Ramanshift[cm-1],Intensity
-93.47115107,14479
-87.69374369,13141.8
-81.9253076,12913.8
-76.16582701,12964.4
-70.41528615,13112.4
-64.67366933,12737.6
-58.94096086,12839.6
-53.21714512,13057.2
-47.50220652,13199.2
-41.79612954,13200.6
-36.09889866,13663
-30.41049843,13654.2
-24.73091343,13361.4
-19.0601283,13325
-13.39812769,13208.4
-7.744896327,12897.8
-2.100418946,12809.4
3.535319659,13466.8
9.162334658,12779.2
14.78064118,13039.4
20.39025432,12764.4
25.99118913,12822
31.58346061,13217.4
37.16708375,13061.8
42.74207347,12750.2
48.30844468,12842.8
53.86621222,12679.4
59.41539093,12299.8
64.95599558,12257.6
70.48804091,12598
76.01154164,12739.6
81.52651243,12138.2
87.03296792,12704.8
92.5309227,13050.8
98.02039134,12357
103.5013884,12704.8
108.9739282,12472.6
114.4380255,12463
119.8936944,12624.4
125.3409495,13447.6
130.779805,12368.8
136.2102753,12169
141.6323747,12228.2
147.0461174,12892.2
152.4515176,12367.2
157.8485895,12426.4
163.2373472,12251.2
168.6178049,12520.2
173.9899766,12856.4
179.3538764,12324.6
184.7095182,12444.8
190.0569161,12722.2
195.396084,12822.6
200.7270358,12218.4
206.0497854,12286
211.3643466,12015.8
216.6707333,12427.4
221.9689593,12037.6
227.2590382,12262.6
232.5409839,12190.2
237.8148101,12081
243.0805303,12270.8
248.3381582,12190.2
253.5877075,12065.6
258.8291917,12164.2
264.0626244,12314
269.288019,12459.8
274.5053891,12590.8
279.7147481,12211.2
284.9161094,11996.2
290.1094865,12089.4
295.2948927,12501.4
300.4723414,13581.6
305.6418459,14027.4
310.8034194,14413.8
315.9570752,15510
321.1028267,15683
326.2406869,15805
331.370669,15881.2
336.4927863,15725.2
341.6070517,15866.4
346.7134786,15656.4
351.8120798,15969.8
356.9028684,15574.2
361.9858576,15684.2
367.0610602,15960.8
372.1284892,15691
377.1881577,16120
382.2400784,15983.8
387.2842644,16325.8
392.3207284,16733
397.3494833,16291.8
402.370542,16459.8
407.3839172,15948.4
412.3896217,15543.6
417.3876683,15221.4
422.3780697,15281.4
427.3608386,15342.6
432.3359876,15743.8
437.3035295,15938
442.2634769,16008
447.2158423,15279.6
452.1606383,15298.4
457.0978776,15489.6
462.0275727,14785.6
466.9497361,15394
471.8643802,14686.4
476.7715176,15238.2
481.6711608,15202.6
486.5633221,15424.8
491.448014,15343.4
496.3252488,15218.4
501.195039,15137.6
506.0573969,15600.4
510.9123349,15188
515.7598651,14720.6
520.6,15176
525.4327518,15173.8
530.2581327,15132.2
535.076155,14750
539.8868309,15154.4
544.6901726,15264.2
549.4861922,15047
554.2749019,16093
559.0563139,15256
563.8304402,15040.4
568.597293,16049.8
573.3568844,15693.6
578.1092263,14926.2
582.8543308,15372.2
587.5922101,15185.8
592.322876,14956.6
597.0463405,14979.6
601.7626157,15298.8
606.4717135,14816.8
611.1736458,14880.8
615.8684246,14896.8
620.5560617,15162.2
625.2365691,14915.6
629.9099585,15317.8
634.5762419,15736.8
639.2354312,15046.8
643.887538,15231
648.5325743,14966.6
653.1705518,14881.6
657.8014823,14982.4
662.4253775,14489.8
667.0422493,14893.6
671.6521092,14901.2
676.2549691,14983.6
680.8508407,15001
685.4397355,14851.2
690.0216654,14985
694.5966419,14656.8
699.1646767,15272.6
703.7257814,14888.4
708.2799676,15104
712.827247,15244.8
717.367631,14965.8
721.9011314,14979.6
726.4277595,14349.2
730.9475271,15077
735.4604456,14834.4
739.9665264,15432.4
744.4657813,14863.4
748.9582215,14989.2
753.4438587,14374.8
757.9227042,14256
762.3947696,14782.2
766.8600662,14365.2
771.3186056,15884.4
775.770399,14769
780.215458,15247
784.6537939,14484.8
789.0854181,14347.4
793.510342,14407.4
797.9285769,15075.6
802.3401342,14462.6
806.7450253,14762.2
811.1432614,14605.4
815.5348538,14414.2
819.9198139,14252.2
824.2981531,14588
828.6698824,14632.4
833.0350133,14534.8
837.393557,14232.4
841.7455248,14565.2
846.0909278,14492.4
850.4297774,14447.6
854.7620848,14404.4
859.0878611,14649.2
863.4071176,14009.4
867.7198655,14406
872.026116,14877.4
876.3258802,15267.6
880.6191693,14680.4
884.9059946,14688.2
889.186367,15255.6
893.4602979,14044
897.7277982,13950.2
901.9888793,14440.4
906.2435521,14784.2
910.4918277,14139.2
914.7337174,14161.8
918.9692321,14093
923.1983831,14746.2
927.4211813,14381
931.6376378,15111
935.8477637,14531.2
940.0515701,14730.4
944.249068,14730
948.4402684,13870
952.6251825,14905
956.8038212,14283.6
960.9761955,15075
965.1423166,14509.6
969.3021953,14562.2
973.4558427,14506.8
977.6032699,14244.6
981.7444877,14513.6
985.8795072,14429.6
990.0083394,14521.4
994.1309953,14127
998.2474857,14541.8
1002.357822,13652.6
1006.462014,14324.2
1010.560075,14121.8
1014.652013,14361.2
1018.737841,14744.4
1022.81757,14151
1026.891209,14258.2
1030.958771,14085.2
1035.020266,14508.6
1039.075705,14235.6
1043.1251,13888.8
1047.16846,14243.8
1051.205797,14146.4
1055.237121,13939.4
1059.262444,13896.2
1063.281777,13671.4
1067.295131,13883.2
1071.302515,15276.8
1075.303942,14825.4
1079.299422,15739.4
1083.288966,15195.8
1087.272585,14567.8
1091.250289,14551.6
1095.222091,14393.6
1099.187999,14100.6
1103.148026,14119
1107.102183,14059.2
1111.050479,14345.8
1114.992927,14141.2
1118.929536,13937.4
1122.860318,14387.4
1126.785283,13852.2
1130.704443,13980.6
1134.617808,15051.8
1138.52539,15053
1142.427198,14853.8
1146.323244,14761.4
1150.213538,14259.2
1154.098093,14542.2
1157.976917,14009.4
1161.850023,13755.8
1165.717421,14354.2
1169.579121,13999.6
1173.435135,14379.6
1177.285474,13518
1181.130148,13814.4
1184.969169,14171.8
1188.802547,14202
1192.630292,13836.8
1196.452416,13482
1200.26893,13523.2
1204.079844,13347
1207.88517,12935.6
1211.684917,13628.2
1215.479098,13210
1219.267722,14848.2
1223.050801,13266.2
1226.828346,13365.2
1230.600366,13676.4
1234.366874,13633
1238.12788,13376.2
1241.883395,13470
1245.633429,13798.8
1249.377994,13841.8
1253.1171,12889
1256.850759,13471.8
1260.578981,13221.2
1264.301776,13373.4
1268.019157,13428.6
1271.731133,13020.6
1275.437715,12878.2
1279.138915,13512.6
1282.834743,13802.4
1286.52521,13196.8
1290.210328,12949.2
1293.890106,13229.4
1297.564555,13776.4
1301.233688,13072.6
1304.897514,13514
1308.556044,13498.4
1312.209289,13420.4
1315.857261,12912.8
1319.499969,13127.2
1323.137425,13937
1326.769641,13382.4
1330.396626,14037.4
1334.018391,13366.4
1337.634948,13494.6
1341.246307,13184
1344.85248,13190.2
1348.453477,13063.6
1352.049309,13052
1355.639987,13193
1359.225522,13946.8
1362.805925,13323.8
1366.381207,13557.6
1369.951379,13555.2
1373.516452,13832.2
1377.076436,14000
1380.631343,13819.4
1384.181184,13780.2
1387.725969,13860
1391.26571,13465
1394.800417,13160.4
1398.330102,13360.2
1401.854776,13466.2
1405.374448,13296.4
1408.889132,12775.4
1412.398837,12484.4
1415.903574,12929.8
1419.403355,13536
1422.89819,13220.2
1426.388091,13215.2
1429.873069,13853
1433.353134,13206.2
1436.828298,13180.2
1440.298571,13213.4
1443.763965,12929.2
1447.224491,12873.2
1450.68016,12845.8
1454.130983,13362
1457.576971,13188.6
1461.018135,13344.8
1464.454486,13522.6
1467.886036,12863
1471.312794,13043.2
1474.734774,12730
1478.151985,13412.6
1481.564439,13129.4
1484.972146,13187.6
1488.375119,12681.4
1491.773368,13068
1495.166904,13756.2
1498.555739,12932
1501.939883,13063.6
1505.319349,12650.2
1508.694146,12894.4
1512.064286,13035
1515.429781,13075.4
1518.790642,12825.8
1522.146879,13135
1525.498505,12540.6
1528.845529,12585
1532.187965,13282.2
1535.525822,12865.6
1538.859112,12834
1542.187846,13425
1545.512036,12539.8
1548.831693,13818
1552.146829,13305.4
1555.457453,12704.4
1558.763579,12270.4
1562.065216,12812.6
1565.362377,13051.2
1568.655073,13330.4
1571.943315,13044.4
1575.227114,13023.6
1578.506482,13049
1581.781431,13512
1585.051971,13072.8
1588.318114,13177.8
1591.579872,13157
1594.837255,12964
1598.090275,12699.4
1601.338945,12785.4
1604.583274,13133.4
1607.823275,12700.4
1611.058959,12345.4
1614.290338,13138.4
1617.517422,12295.8
1620.740224,12717.4
1623.958755,12284.8
1627.173027,12501.6
1630.38305,12072
1633.588838,12560.4
1636.7904,12391
1639.987749,12533.4
1643.180896,12731.8
1646.369853,12125.2
1649.554632,12964.2
1652.735244,12307.8
1655.9117,11968.2
1659.084013,12337.6
1662.252193,13031.2
1665.416254,12087.4
1668.576205,12455
1671.732059,12640.2
1674.883828,12645
1678.031523,12241.4
1681.175157,12303.4
1684.314739,12349.2
1687.450284,12242.8
1690.581801,12247
1693.709304,12128.2
1696.832803,12079.2
1699.952311,12302.8
1703.067839,12234.8
1706.179399,12245
1709.287003,12770.8
1712.390663,12314
1715.49039,12330.2
1718.586197,12569.8
1721.678095,12509
1724.766096,12486.8
1727.850213,11842
1730.930456,12271
1734.006838,12069.2
1737.079372,12398.6
1740.148067,12009
1743.212938,13087.2
1746.273996,12291.2
1749.331252,12152.4
1752.384718,12214.2
1755.434408,12256
1758.480332,12388.6
1761.522503,12438
1764.560933,12124.2
1767.595634,11850
1770.626618,12504.2
1773.653896,12583
1776.677482,12140.2
1779.697388,12099
1782.713625,12672.2
1785.726205,12704.6
1788.735141,12645
1791.740445,12133.6
1794.742129,12080.6
1797.740206,12642.4
1800.734687,12617.2
1803.725585,12371.8
1806.712912,12278.4
1809.69668,12065.2
1812.676902,12144.2
1815.65359,11848.2
1818.626756,11950.6
1821.596413,12057.6
1824.562573,11791.6
1827.525247,12192.4
1830.48445,11897.8
1833.440192,12130
1836.392487,11986.8
1839.341347,12227.2
1842.286784,12358.6
1845.22881,11763
1848.167439,12285.2
1851.102682,12063.8
1854.034553,12106.8
1856.963063,11852.8
1859.888226,12861.2
1862.810053,12236
1865.728557,12083.6
1868.643751,11843.4
1871.555648,11923.8
1874.46426,11592.6
1877.369599,12293.8
1880.271679,12103.4
1883.170512,11920.2
1886.06611,12411.4
1888.958487,12056.6
1891.847655,12005.6
1894.733626,12141.2
1897.616414,12258.4
1900.496032,11814.6
1903.372491,12111.6
1906.245805,12405.6
1909.115987,12428.4
1911.983049,12404.2
1914.847004,12280.4
1917.707866,12399
1920.565646,12345.4
1923.420359,11759
1926.272016,12124.8
1929.120631,11876
1931.966216,12076.6
1934.808786,12067.2
1937.648351,12357.4
1940.484927,12285.8
1943.318525,12304.6
1946.149158,12541.6
1948.97684,13652.8
1951.801584,12577.8
1954.623403,12279
1957.44231,12458.6
1960.258318,11900.8
1963.071439,11992.4
1965.881688,12188.8
1968.689078,12359.8
1971.493621,12046
