Ramanshift[cm-1],Intensity
-93.47115107,14474.2
-87.69374369,13208.6
-81.9253076,12989.2
-76.16582701,13113.6
-70.41528615,13131.8
-64.67366933,12816
-58.94096086,12833.4
-53.21714512,13139.4
-47.50220652,13275
-41.79612954,13190.4
-36.09889866,13725.8
-30.41049843,13682.6
-24.73091343,13319.6
-19.0601283,13442
-13.39812769,13311.2
-7.744896327,12995.2
-2.100418946,12873.4
3.535319659,13468.2
9.162334658,12797.4
14.78064118,13233.8
20.39025432,12826.6
25.99118913,12836.2
31.58346061,13336.2
37.16708375,13115.2
42.74207347,12734.4
48.30844468,12919.8
53.86621222,12616.6
59.41539093,12395.8
64.95599558,12377.6
70.48804091,12765.4
76.01154164,12824.8
81.52651243,12187
87.03296792,12683.8
92.5309227,13205
98.02039134,12375.6
103.5013884,12665
108.9739282,12454.6
114.4380255,12515.4
119.8936944,12722.6
125.3409495,13608.8
130.779805,12478.6
136.2102753,12229
141.6323747,12275.8
147.0461174,12991.4
152.4515176,12434.6
157.8485895,12393.4
163.2373472,12264
168.6178049,12622
173.9899766,12878.4
179.3538764,12423
184.7095182,12473
190.0569161,12674.2
195.396084,12863.4
200.7270358,12312.2
206.0497854,12345.8
211.3643466,12093.4
216.6707333,12529.4
221.9689593,12144.6
227.2590382,12180.4
232.5409839,12245.4
237.8148101,12149.4
243.0805303,12224.6
248.3381582,12176.2
253.5877075,12139.4
258.8291917,12227.4
264.0626244,12346.6
269.288019,12539.6
274.5053891,12705.6
279.7147481,12354.6
284.9161094,12135.8
290.1094865,12558.2
295.2948927,13449.4
300.4723414,16121
305.6418459,18738.4
310.8034194,21281
315.9570752,23402.4
321.1028267,23799.4
326.2406869,24053.2
331.370669,24449.4
336.4927863,24635.8
341.6070517,24914.2
346.7134786,25061.6
351.8120798,25401.8
356.9028684,25064.6
361.9858576,25210.6
367.0610602,25433.4
372.1284892,25210.4
377.1881577,25372
382.2400784,25198.2
387.2842644,25123.4
392.3207284,25489
397.3494833,25253.6
402.370542,25374.8
407.3839172,25146.4
412.3896217,24725.6
417.3876683,24592.4
422.3780697,24742.4
427.3608386,24692.6
432.3359876,25100
437.3035295,25101.6
442.2634769,25270.4
447.2158423,24321.6
452.1606383,24580.2
457.0978776,24575.2
462.0275727,24000.2
466.9497361,24674.8
471.8643802,23929.8
476.7715176,24614.4
481.6711608,24513
486.5633221,24830
491.448014,24520.8
496.3252488,24306.6
501.195039,24486.6
506.0573969,24748
510.9123349,24404.2
515.7598651,23789.2
520.6,24343.6
525.4327518,24135
530.2581327,24115.4
535.076155,23508.6
539.8868309,23860
544.6901726,24043
549.4861922,23629.2
554.2749019,24745.8
559.0563139,23632.8
563.8304402,23460
568.597293,24538
573.3568844,24154.8
578.1092263,23663.6
582.8543308,24038.6
587.5922101,24100.6
592.322876,23567.8
597.0463405,23825.8
601.7626157,24107.4
606.4717135,23660.2
611.1736458,23685
615.8684246,23766.2
620.5560617,23916.2
625.2365691,23659.2
629.9099585,24166.2
634.5762419,24210
639.2354312,23607.4
643.887538,23766
648.5325743,23482.8
653.1705518,23547
657.8014823,23449.6
662.4253775,23064.2
667.0422493,23284.2
671.6521092,23359.2
676.2549691,23487.8
680.8508407,23440.4
685.4397355,23173.8
690.0216654,23318.6
694.5966419,23076.6
699.1646767,23552.8
703.7257814,23279.6
708.2799676,23408.2
712.827247,23514.8
717.367631,23179.2
721.9011314,23172
726.4277595,22481.8
730.9475271,23142
735.4604456,23049.2
739.9665264,23474.4
744.4657813,22987.8
748.9582215,23032.2
753.4438587,22423.2
757.9227042,22246.4
762.3947696,22737.8
766.8600662,22225
771.3186056,23657.6
775.770399,22466.2
780.215458,22708.8
784.6537939,22041.4
789.0854181,21850.6
793.510342,21777.8
797.9285769,22471.6
802.3401342,21852
806.7450253,21909.6
811.1432614,21907.6
815.5348538,21737.2
819.9198139,21355.2
824.2981531,21518.2
828.6698824,21493.6
833.0350133,21345.4
837.393557,21026.6
841.7455248,21438.8
846.0909278,21117.2
850.4297774,21225.6
854.7620848,21131
859.0878611,21529.2
863.4071176,20714.2
867.7198655,21306.4
872.026116,21635.2
876.3258802,22123.2
880.6191693,21560.4
884.9059946,21557.8
889.186367,21926.8
893.4602979,20721.4
897.7277982,20753
901.9888793,21110.4
906.2435521,21512
910.4918277,20891.6
914.7337174,20765.8
918.9692321,20743
923.1983831,21420
927.4211813,21068
931.6376378,21792
935.8477637,21153.6
940.0515701,21429.4
944.249068,21390
948.4402684,20591.8
952.6251825,21330
956.8038212,21056
960.9761955,21778.8
965.1423166,21183.4
969.3021953,21262.8
973.4558427,21193.4
977.6032699,20989
981.7444877,21195.6
985.8795072,21120.2
990.0083394,21158.4
994.1309953,20820.2
998.2474857,21248.6
1002.357822,20298
1006.462014,21020.4
1010.560075,20845.6
1014.652013,21150.6
1018.737841,21581.2
1022.81757,20990
1026.891209,20826.8
1030.958771,20602.2
1035.020266,21016.6
1039.075705,20700.6
1043.1251,20551.6
1047.16846,20841.6
1051.205797,20657.4
1055.237121,20449
1059.262444,20317.2
1063.281777,20153.6
1067.295131,20220.8
1071.302515,21515
1075.303942,20919.6
1079.299422,21880.6
1083.288966,21404.4
1087.272585,21001.4
1091.250289,20981.6
1095.222091,21008.8
1099.187999,20536.2
1103.148026,20774.2
1107.102183,20723.4
1111.050479,20935.2
1114.992927,20762.6
1118.929536,20703.2
1122.860318,21043.2
1126.785283,20418.8
1130.704443,20534.8
1134.617808,21426.2
1138.52539,21242.2
1142.427198,21331.8
1146.323244,21342.2
1150.213538,20906.6
1154.098093,21378.2
1157.976917,20725.8
1161.850023,20660.4
1165.717421,21142.8
1169.579121,20778.4
1173.435135,21200.8
1177.285474,20173
1181.130148,20475.6
1184.969169,20837.6
1188.802547,20854.4
1192.630292,20349.8
1196.452416,20121
1200.26893,20276.4
1204.079844,19984.4
1207.88517,19646.4
1211.684917,20423.6
1215.479098,20031.6
1219.267722,21622.8
1223.050801,19987.6
1226.828346,20072.4
1230.600366,20408.8
1234.366874,20344.4
1238.12788,20168.8
1241.883395,20137.4
1245.633429,20572.8
1249.377994,20562.4
1253.1171,19931.6
1256.850759,20348.2
1260.578981,20187.2
1264.301776,20354.2
1268.019157,20192.8
1271.731133,20131
1275.437715,19969.2
1279.138915,20641.6
1282.834743,20768.2
1286.52521,20284
1290.210328,20171.2
1293.890106,20309.8
1297.564555,20849.2
1301.233688,20170.6
1304.897514,20509.8
1308.556044,20507
1312.209289,20639
1315.857261,20066
1319.499969,20198.2
1323.137425,20977.8
1326.769641,20325.6
1330.396626,21162
1334.018391,20271.6
1337.634948,20483.6
1341.246307,20055
1344.85248,19958.8
1348.453477,19886.8
1352.049309,19796.8
1355.639987,19881.4
1359.225522,20485.4
1362.805925,19912.2
1366.381207,19923
1369.951379,20099.4
1373.516452,20057.2
1377.076436,20326.2
1380.631343,20187.4
1384.181184,19820.2
1387.725969,20036
1391.26571,19733.2
1394.800417,19596
1398.330102,19564.2
1401.854776,19701
1405.374448,19610.4
1408.889132,19186.8
1412.398837,18757
1415.903574,19259.6
1419.403355,19659.8
1422.89819,19208.6
1426.388091,19128.2
1429.873069,19658.8
1433.353134,19123
1436.828298,19154.4
1440.298571,19208.4
1443.763965,18943
1447.224491,18795.4
1450.68016,18629.8
1454.130983,19169.2
1457.576971,19102.8
1461.018135,19287.4
1464.454486,19275.6
1467.886036,18736.4
1471.312794,18765
1474.734774,18398
1478.151985,19180.8
1481.564439,18863.8
1484.972146,18720.6
1488.375119,18357.8
1491.773368,18605.8
1495.166904,19172.4
1498.555739,18324.4
1501.939883,18557.4
1505.319349,17962.6
1508.694146,18335.8
1512.064286,18399
1515.429781,18431
1518.790642,18258.2
1522.146879,18659.4
1525.498505,17944.6
1528.845529,17865.2
1532.187965,18586.2
1535.525822,18103
1538.859112,18182.2
1542.187846,18707.2
1545.512036,17894
1548.831693,19053.2
1552.146829,18545.8
1555.457453,17930.2
1558.763579,17399.4
1562.065216,17874.6
1565.362377,18103.6
1568.655073,18324.4
1571.943315,18120.6
1575.227114,17957.6
1578.506482,17920.4
1581.781431,18304.2
1585.051971,17883.8
1588.318114,17885.2
1591.579872,17850.2
1594.837255,17482.2
1598.090275,17351.8
1601.338945,17240
1604.583274,17758.6
1607.823275,17234
1611.058959,16762.6
1614.290338,17414.4
1617.517422,16634.6
1620.740224,16779.2
1623.958755,16417.2
1627.173027,16474.8
1630.38305,16115.2
1633.588838,16387.8
1636.7904,16059.8
1639.987749,16347.2
1643.180896,16512.6
1646.369853,15763
1649.554632,16581.4
1652.735244,15930
1655.9117,15430.2
1659.084013,15746.8
1662.252193,16425.6
1665.416254,15352.4
1668.576205,15757.4
1671.732059,15912.2
1674.883828,15916.4
1678.031523,15428
1681.175157,15409.4
1684.314739,15472
1687.450284,15252.6
1690.581801,15276.4
1693.709304,15013.8
1696.832803,15113.2
1699.952311,15232.2
1703.067839,15185.2
1706.179399,15044.8
1709.287003,15607.2
1712.390663,15138
1715.49039,15157.8
1718.586197,15446
1721.678095,15277.4
1724.766096,15277.6
1727.850213,14617.6
1730.930456,15055
1734.006838,14816.8
1737.079372,15107
1740.148067,14704.6
1743.212938,15685.4
1746.273996,14916.6
1749.331252,14810.4
1752.384718,14856
1755.434408,14945
1758.480332,14839.4
1761.522503,14922.8
1764.560933,14599.4
1767.595634,14194.6
1770.626618,14869.2
1773.653896,14943.2
1776.677482,14531.6
1779.697388,14534.4
1782.713625,15036.8
1785.726205,14948.6
1788.735141,14989.2
1791.740445,14367.8
1794.742129,14405.6
1797.740206,14909.8
1800.734687,14973.8
1803.725585,14734.6
1806.712912,14779.4
1809.69668,14345.6
1812.676902,14398.2
1815.65359,14248.8
1818.626756,14147
1821.596413,14427.6
1824.562573,13990.8
1827.525247,14405.6
1830.48445,14186
1833.440192,14300.8
1836.392487,14099.6
1839.341347,14415.2
1842.286784,14340.8
1845.22881,13977
1848.167439,14492.4
1851.102682,14325.6
1854.034553,14215.8
1856.963063,14054
1859.888226,14910.6
1862.810053,14287.8
1865.728557,14145
1868.643751,13886.4
1871.555648,13941.8
1874.46426,13618.2
1877.369599,14323.2
1880.271679,14125.6
1883.170512,13952.2
1886.06611,14394.2
1888.958487,14076
1891.847655,14166
1894.733626,14187.8
1897.616414,14436
1900.496032,13722.4
1903.372491,14171.8
1906.245805,14408
1909.115987,14381.8
1911.983049,14432.2
1914.847004,14188.2
1917.707866,14409.4
1920.565646,14263.6
1923.420359,13883
1926.272016,14014.6
1929.120631,13829.6
1931.966216,14056
1934.808786,13967.4
1937.648351,14256
1940.484927,13998.4
1943.318525,14182
1946.149158,14440.4
1948.97684,15530.8
1951.801584,14382.8
1954.623403,14146.6
1957.44231,14224.2
1960.258318,13733
1963.071439,13712
1965.881688,14043.8
1968.689078,14170.4
1971.493621,13811.4
