Ramanshift[cm-1],Intensity
-93.47115107,14583.6
-87.69374369,13054.8
-81.9253076,13000.6
-76.16582701,13192.8
-70.41528615,13203
-64.67366933,12855.8
-58.94096086,12845.6
-53.21714512,13023
-47.50220652,13242.6
-41.79612954,13186.8
-36.09889866,13719.4
-30.41049843,13783
-24.73091343,13339.8
-19.0601283,13454.4
-13.39812769,13238
-7.744896327,12988.4
-2.100418946,12785
3.535319659,13481
9.162334658,12784
14.78064118,13111.8
20.39025432,12751.4
25.99118913,12825.2
31.58346061,13393.6
37.16708375,13090.6
42.74207347,12839
48.30844468,12785.8
53.86621222,12666
59.41539093,12247.4
64.95599558,12307.6
70.48804091,12711.8
76.01154164,12884
81.52651243,12204.8
87.03296792,12813.6
92.5309227,13043
98.02039134,12449.4
103.5013884,12700.8
108.9739282,12469.2
114.4380255,12576.4
119.8936944,12725.4
125.3409495,13631.2
130.779805,12415.6
136.2102753,12215.4
141.6323747,12215.4
147.0461174,12914
152.4515176,12323.4
157.8485895,12307.8
163.2373472,12200
168.6178049,12652.2
173.9899766,12823.8
179.3538764,12391.4
184.7095182,12466.4
190.0569161,12739.4
195.396084,12884.2
200.7270358,12282.2
206.0497854,12323.6
211.3643466,12011.4
216.6707333,12469.6
221.9689593,12062.8
227.2590382,12228.6
232.5409839,12268.6
237.8148101,12101.4
243.0805303,12241
248.3381582,12279.4
253.5877075,12030.8
258.8291917,12309.2
264.0626244,12235.2
269.288019,12487
274.5053891,12692.4
279.7147481,12274.8
284.9161094,11975.4
290.1094865,12207.4
295.2948927,12528.4
300.4723414,13463.4
305.6418459,13865.8
310.8034194,14105.8
315.9570752,15126
321.1028267,15306.8
326.2406869,15313
331.370669,15328.6
336.4927863,15350
341.6070517,15438.6
346.7134786,15350.4
351.8120798,15560.4
356.9028684,15204.4
361.9858576,15363
367.0610602,15652.2
372.1284892,15469.8
377.1881577,15939.4
382.2400784,15975.6
387.2842644,16226.4
392.3207284,16915.6
397.3494833,16279.8
402.370542,16492.2
407.3839172,15768.4
412.3896217,15450.4
417.3876683,15077
422.3780697,14951.8
427.3608386,15041.2
432.3359876,15479.8
437.3035295,15543.4
442.2634769,15657.2
447.2158423,14799.8
452.1606383,14956.4
457.0978776,15032
462.0275727,14491
466.9497361,15057.2
471.8643802,14414.2
476.7715176,15014.2
481.6711608,14943.2
486.5633221,15020.8
491.448014,14940.8
496.3252488,14769.2
501.195039,14946.2
506.0573969,15229.4
510.9123349,14875
515.7598651,14438.6
520.6,14948.4
525.4327518,14902.4
530.2581327,14986
535.076155,14316
539.8868309,14776.8
544.6901726,14963.6
549.4861922,14657.6
554.2749019,15609.8
559.0563139,14570.2
563.8304402,14378.8
568.597293,15458.4
573.3568844,15107.6
578.1092263,14628.4
582.8543308,15092.8
587.5922101,14978.2
592.322876,14661.2
597.0463405,14755
601.7626157,15037.2
606.4717135,14577.6
611.1736458,14658
615.8684246,14692.6
620.5560617,15062
625.2365691,14823.6
629.9099585,15114.8
634.5762419,15340.4
639.2354312,14612.4
643.887538,15042.2
648.5325743,14696.8
653.1705518,14599.8
657.8014823,14907
662.4253775,14190
667.0422493,14643.2
671.6521092,14629.8
676.2549691,14907
680.8508407,14709
685.4397355,14631
690.0216654,14717.4
694.5966419,14524.6
699.1646767,15041.4
703.7257814,14702.8
708.2799676,14797.4
712.827247,14923.4
717.367631,14654.8
721.9011314,14676
726.4277595,14113
730.9475271,14757
735.4604456,14706.2
739.9665264,15250.8
744.4657813,14697.2
748.9582215,14710.8
753.4438587,14202.8
757.9227042,13978
762.3947696,14627.8
766.8600662,14261.2
771.3186056,15704.2
775.770399,14602.2
780.215458,15005.6
784.6537939,14206.6
789.0854181,14154.2
793.510342,14287.6
797.9285769,14920.2
802.3401342,14447.2
806.7450253,14511.2
811.1432614,14443.4
815.5348538,14249.6
819.9198139,13900.4
824.2981531,14297
828.6698824,14418.2
833.0350133,14378.2
837.393557,13964.4
841.7455248,14456.6
846.0909278,14168.8
850.4297774,13997.2
854.7620848,14136
859.0878611,14324
863.4071176,13823.6
867.7198655,14319.6
872.026116,14625
876.3258802,15072.8
880.6191693,14613
884.9059946,14677.6
889.186367,15041.4
893.4602979,13908
897.7277982,13879
901.9888793,14202.6
906.2435521,14704.4
910.4918277,14091.8
914.7337174,13948.6
918.9692321,13960.4
923.1983831,14659.6
927.4211813,14170.6
931.6376378,14940.2
935.8477637,14368.6
940.0515701,14514.4
944.249068,14666.8
948.4402684,13661.2
952.6251825,14656.8
956.8038212,14258.6
960.9761955,14858.6
965.1423166,14365.2
969.3021953,14458.2
973.4558427,14363.6
977.6032699,14162
981.7444877,14348
985.8795072,14307.8
990.0083394,14341.4
994.1309953,13961.4
998.2474857,14404.8
1002.357822,13565
1006.462014,14261.2
1010.560075,13970.6
1014.652013,14403.4
1018.737841,14679.2
1022.81757,14104.8
1026.891209,13944.2
1030.958771,13947.4
1035.020266,14314
1039.075705,14021.2
1043.1251,13760
1047.16846,14103
1051.205797,14028.6
1055.237121,13631.2
1059.262444,13707
1063.281777,13519.6
1067.295131,13696.8
1071.302515,14874.4
1075.303942,14672.8
1079.299422,15572.2
1083.288966,14938.6
1087.272585,14479.2
1091.250289,14254.2
1095.222091,14117
1099.187999,13789.4
1103.148026,14030.6
1107.102183,13866
1111.050479,14062.4
1114.992927,13955.8
1118.929536,13722.6
1122.860318,14087
1126.785283,13549.8
1130.704443,13488.8
1134.617808,14450
1138.52539,14242
1142.427198,14205.6
1146.323244,14174.4
1150.213538,13771.4
1154.098093,14305
1157.976917,13610.8
1161.850023,13559.8
1165.717421,14216.2
1169.579121,13862.6
1173.435135,14244
1177.285474,13410.4
1181.130148,13696.8
1184.969169,14133.2
1188.802547,14024.8
1192.630292,13638.6
1196.452416,13311
1200.26893,13334
1204.079844,13183
1207.88517,12758
1211.684917,13494.4
1215.479098,13020.4
1219.267722,14698.8
1223.050801,13155.6
1226.828346,13109.2
1230.600366,13516.6
1234.366874,13488.8
1238.12788,13230.2
1241.883395,13351
1245.633429,13724
1249.377994,13596.4
1253.1171,12785.8
1256.850759,13339.2
1260.578981,13092.8
1264.301776,13207
1268.019157,13142
1271.731133,12920.2
1275.437715,12821
1279.138915,13510.8
1282.834743,13652
1286.52521,13124
1290.210328,13004.6
1293.890106,13122.8
1297.564555,13546
1301.233688,13022.6
1304.897514,13264.2
1308.556044,13337.2
1312.209289,13338.8
1315.857261,12840.2
1319.499969,12953.6
1323.137425,13905.4
1326.769641,13230
1330.396626,13933
1334.018391,13220.8
1337.634948,13382.2
1341.246307,13023.8
1344.85248,13087.2
1348.453477,12901.4
1352.049309,12844.4
1355.639987,13028.8
1359.225522,13676.4
1362.805925,13082
1366.381207,13199.4
1369.951379,13271.6
1373.516452,13338.6
1377.076436,13515.4
1380.631343,13215.8
1384.181184,13100
1387.725969,13256.8
1391.26571,12929.4
1394.800417,12816.6
1398.330102,13067.4
1401.854776,13271.4
1405.374448,13220.6
1408.889132,12652.2
1412.398837,12297.2
1415.903574,12823.4
1419.403355,13261.2
1422.89819,12877.8
1426.388091,12814.4
1429.873069,13443
1433.353134,12786.4
1436.828298,12909.2
1440.298571,12974.2
1443.763965,12805.4
1447.224491,12576.8
1450.68016,12777
1454.130983,13224
1457.576971,13016.6
1461.018135,13287.6
1464.454486,13391.6
1467.886036,12806.4
1471.312794,12959.2
1474.734774,12654.4
1478.151985,13393.4
1481.564439,13058.8
1484.972146,13027.6
1488.375119,12660.8
1491.773368,13039.4
1495.166904,13690.2
1498.555739,12788.2
1501.939883,13143.4
1505.319349,12490.4
1508.694146,12907.6
1512.064286,12918
1515.429781,12834.6
1518.790642,12692.8
1522.146879,13120.8
1525.498505,12471.2
1528.845529,12502.6
1532.187965,13147.4
1535.525822,12807.4
1538.859112,12750
1542.187846,13373.2
1545.512036,12505
1548.831693,13853.2
1552.146829,13353.4
1555.457453,12653.6
1558.763579,12205.6
1562.065216,12654.8
1565.362377,13070.8
1568.655073,13336
1571.943315,12993
1575.227114,13072.8
1578.506482,13046
1581.781431,13615
1585.051971,13203.6
1588.318114,13282.6
1591.579872,13240
1594.837255,13028.8
1598.090275,12881.4
1601.338945,12737.6
1604.583274,13107.8
1607.823275,12773
1611.058959,12381
1614.290338,13148
1617.517422,12231.4
1620.740224,12666.4
1623.958755,12384
1627.173027,12372.2
1630.38305,12085.4
1633.588838,12568.4
1636.7904,12385.4
1639.987749,12584.4
1643.180896,12716
1646.369853,12192
1649.554632,12966.2
1652.735244,12333.4
1655.9117,11964
1659.084013,12374
1662.252193,13132.4
1665.416254,12129
1668.576205,12401.6
1671.732059,12653.6
1674.883828,12698.4
1678.031523,12334.6
1681.175157,12438.2
1684.314739,12354.6
1687.450284,12378
1690.581801,12194.8
1693.709304,12091.8
1696.832803,12077.2
1699.952311,12355
1703.067839,12312
1706.179399,12307.6
1709.287003,12755
1712.390663,12307.6
1715.49039,12274.4
1718.586197,12729.6
1721.678095,12532.2
1724.766096,12529.2
1727.850213,11844.4
1730.930456,12331.4
1734.006838,12163.8
1737.079372,12415.4
1740.148067,12004.8
1743.212938,13072.2
1746.273996,12293.4
1749.331252,12260
1752.384718,12261.6
1755.434408,12375.8
1758.480332,12344.8
1761.522503,12374.6
1764.560933,12149.2
1767.595634,11845.6
1770.626618,12476.8
1773.653896,12551.2
1776.677482,12220.4
1779.697388,12172
1782.713625,12699
1785.726205,12686.8
1788.735141,12685
1791.740445,12109
1794.742129,12134.2
1797.740206,12579.6
1800.734687,12540.4
1803.725585,12459
1806.712912,12342
1809.69668,12087
1812.676902,12175.6
1815.65359,11885.4
1818.626756,11881.8
1821.596413,12192.2
1824.562573,11746
1827.525247,12209.2
1830.48445,12036.2
1833.440192,12069.4
1836.392487,12032.4
1839.341347,12221.4
1842.286784,12272.2
1845.22881,11759.4
1848.167439,12324.8
1851.102682,12137.8
1854.034553,12135
1856.963063,11911.2
1859.888226,12812.2
1862.810053,12326.4
1865.728557,12147.8
1868.643751,11972
1871.555648,11860.2
1874.46426,11706
1877.369599,12193.6
1880.271679,12065.4
1883.170512,11990.2
1886.06611,12366
1888.958487,12070.6
1891.847655,12076.8
1894.733626,12146.6
1897.616414,12365.8
1900.496032,11856.4
1903.372491,12177.6
1906.245805,12429.8
1909.115987,12497.6
1911.983049,12403
1914.847004,12253.8
1917.707866,12462.6
1920.565646,12477.2
1923.420359,11936.8
1926.272016,12198.6
1929.120631,11992.8
1931.966216,12243.6
1934.808786,12011
1937.648351,12379.4
1940.484927,12234.2
1943.318525,12421
1946.149158,12595.8
1948.97684,13642.2
1951.801584,12673.4
1954.623403,12270.4
1957.44231,12455.6
1960.258318,11969.6
1963.071439,12010.4
1965.881688,12300.4
1968.689078,12361.6
1971.493621,12129.6
