Ramanshift[cm-1],Intensity,,,,,,,,
-93.47115107,14440,,,,,,,, 
-87.69374369,13114,,,,,,,,
-81.9253076,12977.6,,,,,,,,
-76.16582701,13121.4,,,,,,,,
-70.41528615,13229.8,,,,,,,,
-64.67366933,12864.2,,,,,,,,
-58.94096086,12904.4,,,,,,,,
-53.21714512,12987.2,,,,,,,,
-47.50220652,13287.6,,,,,,,,
-41.79612954,13289.2,,,,,,,,
-36.09889866,13547.6,,,,,,,,
-30.41049843,13733.2,,,,,,,,
-24.73091343,13410.4,,,,,,,,
-19.0601283,13450.2,,,,,,,,
-13.39812769,13207.8,,,,,,,,
-7.744896327,12953,,,,,,,,
-2.100418946,12693.6,,,,,,,,
3.535319659,13439,,,,,,,,
9.162334658,12826.6,,,,,,,,
14.78064118,13090,,,,,,,,
20.39025432,12817,,,,,,,,
25.99118913,12935,,,,,,,,
31.58346061,13279.8,,,,,,,,
37.16708375,13194.8,,,,,,,,
42.74207347,12826.4,,,,,,,,
48.30844468,12773,,,,,,,,
53.86621222,12675.2,,,,,,,,
59.41539093,12291.4,,,,,,,,
64.95599558,12340.2,,,,,,,,
70.48804091,12730.2,,,,,,,,
76.01154164,12905.8,,,,,,,,
81.52651243,12189,,,,,,,,
87.03296792,12783,,,,,,,,
92.5309227,13090.6,,,,,,,,
98.02039134,12403.8,,,,,,,,
103.5013884,12704.8,,,,,,,,
108.9739282,12460.6,,,,,,,,
114.4380255,12529.6,,,,,,,,
119.8936944,12660.2,,,,,,,,
125.3409495,13643.8,,,,,,,,
130.779805,12560.2,,,,,,,,
136.2102753,12182.8,,,,,,,,
141.6323747,12336.4,,,,,,,,
147.0461174,12889.4,,,,,,,,
152.4515176,12532.2,,,,,,,,
157.8485895,12352.8,,,,,,,,
163.2373472,12328.8,,,,,,,,
168.6178049,12619.8,,,,,,,,
173.9899766,12895.6,,,,,,,,
179.3538764,12340.8,,,,,,,,
184.7095182,12527.6,,,,,,,,
190.0569161,12709,,,,,,,,
195.396084,12836.6,,,,,,,,
200.7270358,12248,,,,,,,,
206.0497854,12338.2,,,,,,,,
211.3643466,12067.8,,,,,,,,
216.6707333,12438.8,,,,,,,,
221.9689593,12095.6,,,,,,,,
227.2590382,12267.8,,,,,,,,
232.5409839,12261.8,,,,,,,,
237.8148101,12084.6,,,,,,,,
243.0805303,12293,,,,,,,,
248.3381582,12258.6,,,,,,,,
253.5877075,12102.8,,,,,,,,
258.8291917,12220.8,,,,,,,,
264.0626244,12363.2,,,,,,,,
269.288019,12551.6,,,,,,,,
274.5053891,12573.8,,,,,,,,
279.7147481,12391.2,,,,,,,,
284.9161094,12053.4,,,,,,,,
290.1094865,12142,,,,,,,,
295.2948927,12452.2,,,,,,,,
300.4723414,13484.2,,,,,,,,
305.6418459,13579.8,,,,,,,,
310.8034194,13998.8,,,,,,,,
315.9570752,14935.6,,,,,,,,
321.1028267,15076.6,,,,,,,,
326.2406869,15082.2,,,,,,,,
331.370669,15171.6,,,,,,,,
336.4927863,15180.2,,,,,,,,
341.6070517,15191.8,,,,,,,,
346.7134786,14991,,,,,,,,
351.8120798,15310,,,,,,,,
356.9028684,14839.8,,,,,,,,
361.9858576,14972.2,,,,,,,,
367.0610602,15472,,,,,,,,
372.1284892,15005.2,,,,,,,,
377.1881577,15449.8,,,,,,,,
382.2400784,15379.4,,,,,,,,
387.2842644,15499.4,,,,,,,,
392.3207284,15891.8,,,,,,,,
397.3494833,15428.6,,,,,,,,
402.370542,15669.4,,,,,,,,
407.3839172,15202,,,,,,,,
412.3896217,14823.4,,,,,,,,
417.3876683,14610,,,,,,,,
422.3780697,14746,,,,,,,,
427.3608386,14777.4,,,,,,,,
432.3359876,15231.6,,,,,,,,
437.3035295,15322.8,,,,,,,,
442.2634769,15473.6,,,,,,,,
447.2158423,14675.4,,,,,,,,
452.1606383,14742.2,,,,,,,,
457.0978776,15007,,,,,,,,
462.0275727,14307.8,,,,,,,,
466.9497361,14835.2,,,,,,,,
471.8643802,14222.2,,,,,,,,
476.7715176,14782.2,,,,,,,,
481.6711608,14631.2,,,,,,,,
486.5633221,14843.8,,,,,,,,
491.448014,14772.4,,,,,,,,
496.3252488,14673.4,,,,,,,,
501.195039,14635.8,,,,,,,,
506.0573969,15098.2,,,,,,,,
510.9123349,14767.4,,,,,,,,
515.7598651,14177.4,,,,,,,,
520.6,14731.6,,,,,,,,
525.4327518,14673.4,,,,,,,,
530.2581327,14689.2,,,,,,,,
535.076155,14213.6,,,,,,,,
539.8868309,14531,,,,,,,,
544.6901726,14720,,,,,,,,
549.4861922,14471,,,,,,,,
554.2749019,15474,,,,,,,,
559.0563139,14383.6,,,,,,,,
563.8304402,14136,,,,,,,,
568.597293,15197.2,,,,,,,,
573.3568844,14864.4,,,,,,,,
578.1092263,14448.6,,,,,,,,
582.8543308,14898.4,,,,,,,,
587.5922101,14806.2,,,,,,,,
592.322876,14509.6,,,,,,,,
597.0463405,14545.8,,,,,,,,
601.7626157,14853.4,,,,,,,,
606.4717135,14406.4,,,,,,,,
611.1736458,14384.2,,,,,,,,
615.8684246,14514,,,,,,,,
620.5560617,14755.4,,,,,,,,
625.2365691,14492.6,,,,,,,,
629.9099585,15053.8,,,,,,,,
634.5762419,15290.6,,,,,,,,
639.2354312,14579.6,,,,,,,,
643.887538,14730.6,,,,,,,,
648.5325743,14607.4,,,,,,,,
653.1705518,14457.8,,,,,,,,
657.8014823,14698,,,,,,,,
662.4253775,13996.8,,,,,,,,
667.0422493,14425.2,,,,,,,,
671.6521092,14497,,,,,,,,
676.2549691,14591.4,,,,,,,,
680.8508407,14508.4,,,,,,,,
685.4397355,14422.4,,,,,,,,
690.0216654,14573.8,,,,,,,,
694.5966419,14326.2,,,,,,,,
699.1646767,14799,,,,,,,,
703.7257814,14449.4,,,,,,,,
708.2799676,14677,,,,,,,,
712.827247,14743.2,,,,,,,,
717.367631,14485.6,,,,,,,,
721.9011314,14517,,,,,,,,
726.4277595,13902.2,,,,,,,,
730.9475271,14641,,,,,,,,
735.4604456,14430.4,,,,,,,,
739.9665264,15074.6,,,,,,,,
744.4657813,14493.4,,,,,,,,
748.9582215,14510.4,,,,,,,,
753.4438587,14014.8,,,,,,,,
757.9227042,13967,,,,,,,,
762.3947696,14512.6,,,,,,,,
766.8600662,14094.2,,,,,,,,
771.3186056,15427.2,,,,,,,,
775.770399,14308.6,,,,,,,,
780.215458,14901,,,,,,,,
784.6537939,14083.4,,,,,,,,
789.0854181,14037,,,,,,,,
793.510342,14022.8,,,,,,,,
797.9285769,14684.2,,,,,,,,
802.3401342,14105.8,,,,,,,,
806.7450253,14373.4,,,,,,,,
811.1432614,14281.4,,,,,,,,
815.5348538,14088.8,,,,,,,,
819.9198139,13826.6,,,,,,,,
824.2981531,14242.2,,,,,,,,
828.6698824,14262.8,,,,,,,,
833.0350133,14130.2,,,,,,,,
837.393557,13946.4,,,,,,,,
841.7455248,14162.2,,,,,,,,
846.0909278,13999.6,,,,,,,,
850.4297774,14035.6,,,,,,,,
854.7620848,14003.8,,,,,,,,
859.0878611,14251.2,,,,,,,,
863.4071176,13707.6,,,,,,,,
867.7198655,14194.8,,,,,,,,
872.026116,14546.6,,,,,,,,
876.3258802,14920.8,,,,,,,,
880.6191693,14335.2,,,,,,,,
884.9059946,14425.6,,,,,,,,
889.186367,14894.8,,,,,,,,
893.4602979,13721.8,,,,,,,,
897.7277982,13637,,,,,,,,
901.9888793,14103.8,,,,,,,,
906.2435521,14501.8,,,,,,,,
910.4918277,13870.6,,,,,,,,
914.7337174,13813.2,,,,,,,,
918.9692321,13734,,,,,,,,
923.1983831,14313.6,,,,,,,,
927.4211813,13932,,,,,,,,
931.6376378,14739.8,,,,,,,,
935.8477637,14111.4,,,,,,,,
940.0515701,14283.4,,,,,,,,
944.249068,14329.8,,,,,,,,
948.4402684,13372.2,,,,,,,,
952.6251825,14462.8,,,,,,,,
956.8038212,13996.2,,,,,,,,
960.9761955,14605,,,,,,,,
965.1423166,14024.8,,,,,,,,
969.3021953,14125.2,,,,,,,,
973.4558427,14194.4,,,,,,,,
977.6032699,13929.2,,,,,,,,
981.7444877,14103,,,,,,,,
985.8795072,13998.2,,,,,,,,
990.0083394,14067.2,,,,,,,,
994.1309953,13785.6,,,,,,,,
998.2474857,14067.4,,,,,,,,
1002.357822,13363.2,,,,,,,,
1006.462014,13971.2,,,,,,,,
1010.560075,13647.4,,,,,,,,
1014.652013,14134.2,,,,,,,,
1018.737841,14515.2,,,,,,,,
1022.81757,13898.6,,,,,,,,
1026.891209,13911.2,,,,,,,,
1030.958771,13716.2,,,,,,,,
1035.020266,14069,,,,,,,,
1039.075705,13830.8,,,,,,,,
1043.1251,13508.6,,,,,,,,
1047.16846,13869,,,,,,,,
1051.205797,13804,,,,,,,,
1055.237121,13449.4,,,,,,,,
1059.262444,13495,,,,,,,,
1063.281777,13171.4,,,,,,,,
1067.295131,13203.4,,,,,,,,
1071.302515,14284.8,,,,,,,,
1075.303942,13901.2,,,,,,,,
1079.299422,14845.8,,,,,,,,
1083.288966,14341.6,,,,,,,,
1087.272585,14034.6,,,,,,,,
1091.250289,14058.2,,,,,,,,
1095.222091,13940.4,,,,,,,,
1099.187999,13671,,,,,,,,
1103.148026,13745.2,,,,,,,,
1107.102183,13785.6,,,,,,,,
1111.050479,13924.8,,,,,,,,
1114.992927,13694.2,,,,,,,,
1118.929536,13615,,,,,,,,
1122.860318,13978.2,,,,,,,,
1126.785283,13343.6,,,,,,,,
1130.704443,13255.4,,,,,,,,
1134.617808,14045.6,,,,,,,,
1138.52539,13838.6,,,,,,,,
1142.427198,13733.8,,,,,,,,
1146.323244,13902.6,,,,,,,,
1150.213538,13591,,,,,,,,
1154.098093,13943.2,,,,,,,,
1157.976917,13417.8,,,,,,,,
1161.850023,13368,,,,,,,,
1165.717421,13915.4,,,,,,,,
1169.579121,13690.8,,,,,,,,
1173.435135,13995.4,,,,,,,,
1177.285474,13118.2,,,,,,,,
1181.130148,13339,,,,,,,,
1184.969169,13739,,,,,,,,
1188.802547,13639,,,,,,,,
1192.630292,13334.6,,,,,,,,
1196.452416,13155,,,,,,,,
1200.26893,13281.4,,,,,,,,
1204.079844,12975.6,,,,,,,,
1207.88517,12633.2,,,,,,,,
1211.684917,13310.4,,,,,,,,
1215.479098,12910,,,,,,,,
1219.267722,14571.6,,,,,,,,
1223.050801,12932.6,,,,,,,,
1226.828346,13043.8,,,,,,,,
1230.600366,13258.2,,,,,,,,
1234.366874,13235.8,,,,,,,,
1238.12788,13044.2,,,,,,,,
1241.883395,13066.8,,,,,,,,
1245.633429,13496.2,,,,,,,,
1249.377994,13422,,,,,,,,
1253.1171,12623.6,,,,,,,,
1256.850759,13110.2,,,,,,,,
1260.578981,13032,,,,,,,,
1264.301776,13083.6,,,,,,,,
1268.019157,13050.4,,,,,,,,
1271.731133,12829.2,,,,,,,,
1275.437715,12638,,,,,,,,
1279.138915,13322.6,,,,,,,,
1282.834743,13361.2,,,,,,,,
1286.52521,12907.4,,,,,,,,
1290.210328,12783.6,,,,,,,,
1293.890106,12977,,,,,,,,
1297.564555,13447.6,,,,,,,,
1301.233688,12744.6,,,,,,,,
1304.897514,13191,,,,,,,,
1308.556044,13195.4,,,,,,,,
1312.209289,13224,,,,,,,,
1315.857261,12690.2,,,,,,,,
1319.499969,12919.2,,,,,,,,
1323.137425,13676.4,,,,,,,,
1326.769641,13078.4,,,,,,,,
1330.396626,13735.8,,,,,,,,
1334.018391,13054.2,,,,,,,,
1337.634948,13149.8,,,,,,,,
1341.246307,12896.2,,,,,,,,
1344.85248,12810.2,,,,,,,,
1348.453477,12719.8,,,,,,,,
1352.049309,12674,,,,,,,,
1355.639987,12764.8,,,,,,,,
1359.225522,13462,,,,,,,,
1362.805925,13003.2,,,,,,,,
1366.381207,12912.2,,,,,,,,
1369.951379,13078.6,,,,,,,,
1373.516452,13077.8,,,,,,,,
1377.076436,13269.4,,,,,,,,
1380.631343,13129.4,,,,,,,,
1384.181184,12851,,,,,,,,
1387.725969,12997.2,,,,,,,,
1391.26571,12741,,,,,,,,
1394.800417,12646.2,,,,,,,,
1398.330102,12841.2,,,,,,,,
1401.854776,13117.8,,,,,,,,
1405.374448,12922.8,,,,,,,,
1408.889132,12482.8,,,,,,,,
1412.398837,12150.2,,,,,,,,
1415.903574,12619,,,,,,,,
1419.403355,13207.8,,,,,,,,
1422.89819,12669.4,,,,,,,,
1426.388091,12598,,,,,,,,
1429.873069,13050.2,,,,,,,,
1433.353134,12483.2,,,,,,,,
1436.828298,12604.8,,,,,,,,
1440.298571,12826.2,,,,,,,,
1443.763965,12558.6,,,,,,,,
1447.224491,12467,,,,,,,,
1450.68016,12416,,,,,,,,
1454.130983,13026.4,,,,,,,,
1457.576971,12841.2,,,,,,,,
1461.018135,13077.2,,,,,,,,
1464.454486,13177.8,,,,,,,,
1467.886036,12693.8,,,,,,,,
1471.312794,12853.6,,,,,,,,
1474.734774,12443,,,,,,,,
1478.151985,13221.4,,,,,,,,
1481.564439,13005.4,,,,,,,,
1484.972146,12894.2,,,,,,,,
1488.375119,12548.2,,,,,,,,
1491.773368,12796,,,,,,,,
1495.166904,13494.4,,,,,,,,
1498.555739,12795.6,,,,,,,,
1501.939883,12907.8,,,,,,,,
1505.319349,12310.6,,,,,,,,
1508.694146,12804.6,,,,,,,,
1512.064286,12874,,,,,,,,
1515.429781,12729.4,,,,,,,,
1518.790642,12608.8,,,,,,,,
1522.146879,12892.4,,,,,,,,
1525.498505,12416.4,,,,,,,,
1528.845529,12384.4,,,,,,,,
1532.187965,13019.6,,,,,,,,
1535.525822,12759.8,,,,,,,,
1538.859112,12788.2,,,,,,,,
1542.187846,13364.4,,,,,,,,
1545.512036,12359.8,,,,,,,,
1548.831693,13731.4,,,,,,,,
1552.146829,13167.4,,,,,,,,
1555.457453,12498.4,,,,,,,,
1558.763579,12056.8,,,,,,,,
1562.065216,12506.6,,,,,,,,
1565.362377,12727.2,,,,,,,,
1568.655073,13120.4,,,,,,,,
1571.943315,12753,,,,,,,,
1575.227114,12695.8,,,,,,,,
1578.506482,12762.6,,,,,,,,
1581.781431,13295.2,,,,,,,,
1585.051971,12805,,,,,,,,
1588.318114,12899.4,,,,,,,,
1591.579872,12801.6,,,,,,,,
1594.837255,12784.6,,,,,,,,
1598.090275,12517.6,,,,,,,,
1601.338945,12520.8,,,,,,,,
1604.583274,13012.2,,,,,,,,
1607.823275,12667.2,,,,,,,,
1611.058959,12093,,,,,,,,
1614.290338,12882.6,,,,,,,,
1617.517422,12076.8,,,,,,,,
1620.740224,12584,,,,,,,,
1623.958755,12262,,,,,,,,
1627.173027,12264.8,,,,,,,,
1630.38305,12006,,,,,,,,
1633.588838,12486.2,,,,,,,,
1636.7904,12201.4,,,,,,,,
1639.987749,12447.8,,,,,,,,
1643.180896,12618.2,,,,,,,,
1646.369853,11960.6,,,,,,,,
1649.554632,12917.4,,,,,,,,
1652.735244,12240.6,,,,,,,,
1655.9117,11900.4,,,,,,,,
1659.084013,12268.6,,,,,,,,
1662.252193,12918.4,,,,,,,,
1665.416254,12007.6,,,,,,,,
1668.576205,12324.2,,,,,,,,
1671.732059,12620.6,,,,,,,,
1674.883828,12685.6,,,,,,,,
1678.031523,12051.8,,,,,,,,
1681.175157,12227.4,,,,,,,,
1684.314739,12196.6,,,,,,,,
1687.450284,12262.6,,,,,,,,
1690.581801,12234.2,,,,,,,,
1693.709304,12002,,,,,,,,
1696.832803,11979.2,,,,,,,,
1699.952311,12233.8,,,,,,,,
1703.067839,12200.6,,,,,,,,
1706.179399,12194.8,,,,,,,,
1709.287003,12619.6,,,,,,,,
1712.390663,12206.8,,,,,,,,
1715.49039,12282.2,,,,,,,,
1718.586197,12550.6,,,,,,,,
1721.678095,12480.4,,,,,,,,
1724.766096,12467.4,,,,,,,,
1727.850213,11842.2,,,,,,,,
1730.930456,12289,,,,,,,,
1734.006838,12068.2,,,,,,,,
1737.079372,12356,,,,,,,,
1740.148067,11976.8,,,,,,,,
1743.212938,13082,,,,,,,,
1746.273996,12247.8,,,,,,,,
1749.331252,12107,,,,,,,,
1752.384718,12206.4,,,,,,,,
1755.434408,12366.6,,,,,,,,
1758.480332,12273.6,,,,,,,,
1761.522503,12321.8,,,,,,,,
1764.560933,12033.4,,,,,,,,
1767.595634,11752.4,,,,,,,,
1770.626618,12493.8,,,,,,,,
1773.653896,12579.6,,,,,,,,
1776.677482,12140.2,,,,,,,,
1779.697388,12086.4,,,,,,,,
1782.713625,12702.2,,,,,,,,
1785.726205,12533,,,,,,,,
1788.735141,12600.4,,,,,,,,
1791.740445,12132,,,,,,,,
1794.742129,12081.8,,,,,,,,
1797.740206,12677.6,,,,,,,,
1800.734687,12601.4,,,,,,,,
1803.725585,12414.8,,,,,,,,
1806.712912,12324.8,,,,,,,,
1809.69668,11974,,,,,,,,
1812.676902,12083,,,,,,,,
1815.65359,11730.6,,,,,,,,
1818.626756,11870.8,,,,,,,,
1821.596413,12132.2,,,,,,,,
1824.562573,11778.6,,,,,,,,
1827.525247,12140,,,,,,,,
1830.48445,11891.6,,,,,,,,
1833.440192,12096,,,,,,,,
1836.392487,12003.6,,,,,,,,
1839.341347,12164,,,,,,,,
1842.286784,12242,,,,,,,,
1845.22881,11668.2,,,,,,,,
1848.167439,12210,,,,,,,,
1851.102682,12050.2,,,,,,,,
1854.034553,12177,,,,,,,,
1856.963063,11861.2,,,,,,,,
1859.888226,12732.4,,,,,,,,
1862.810053,12233.8,,,,,,,,
1865.728557,12051,,,,,,,,
1868.643751,11792,,,,,,,,
1871.555648,11814.8,,,,,,,,
1874.46426,11654.8,,,,,,,,
1877.369599,12260.4,,,,,,,,
1880.271679,12058,,,,,,,,
1883.170512,11893.6,,,,,,,,
1886.06611,12375.4,,,,,,,,
1888.958487,12073,,,,,,,,
1891.847655,12010.6,,,,,,,,
1894.733626,12118,,,,,,,,
1897.616414,12265.6,,,,,,,,
1900.496032,11741.4,,,,,,,,
1903.372491,12092.2,,,,,,,,
1906.245805,12363,,,,,,,,
1909.115987,12472.8,,,,,,,,
1911.983049,12404.2,,,,,,,,
1914.847004,12266.8,,,,,,,,
1917.707866,12470.2,,,,,,,,
1920.565646,12414.8,,,,,,,,
1923.420359,11935,,,,,,,,
1926.272016,12137.6,,,,,,,,
1929.120631,11955.2,,,,,,,,
1931.966216,12134.4,,,,,,,,
1934.808786,12045,,,,,,,,
1937.648351,12314.4,,,,,,,,
1940.484927,12213.8,,,,,,,,
1943.318525,12328.2,,,,,,,,
1946.149158,12606.4,,,,,,,,
1948.97684,13617.4,,,,,,,,
1951.801584,12549.4,,,,,,,,
1954.623403,12344.6,,,,,,,,
1957.44231,12342.6,,,,,,,,
1960.258318,12002.6,,,,,,,,
1963.071439,11925.8,,,,,,,,
1965.881688,12118.6,,,,,,,,
1968.689078,12222,,,,,,,,
1971.493621,12040.8,,,,,,,,
