Ramanshift[cm-1],Intensity
-93.47115107,14438.6
-87.69374369,13187.8
-81.9253076,13014.2
-76.16582701,13095.4
-70.41528615,13117
-64.67366933,12778.2
-58.94096086,12795
-53.21714512,13018.4
-47.50220652,13105.8
-41.79612954,13175.6
-36.09889866,13602
-30.41049843,13781
-24.73091343,13391.4
-19.0601283,13311.6
-13.39812769,13175
-7.744896327,12945.2
-2.100418946,12745
3.535319659,13431.2
9.162334658,12776.2
14.78064118,13093.4
20.39025432,12812.4
25.99118913,12829.2
31.58346061,13394
37.16708375,13210.8
42.74207347,12656.6
48.30844468,12808.8
53.86621222,12625.8
59.41539093,12326.6
64.95599558,12318.6
70.48804091,12682.4
76.01154164,12823.2
81.52651243,12172
87.03296792,12728.8
92.5309227,13082.4
98.02039134,12390.2
103.5013884,12660
108.9739282,12531.6
114.4380255,12423
119.8936944,12633
125.3409495,13644.6
130.779805,12441.8
136.2102753,12127.4
141.6323747,12126.2
147.0461174,12830.4
152.4515176,12455.2
157.8485895,12290.6
163.2373472,12257.6
168.6178049,12543.8
173.9899766,12876.4
179.3538764,12361.6
184.7095182,12418.4
190.0569161,12630
195.396084,12874.8
200.7270358,12241.8
206.0497854,12277.2
211.3643466,12017.4
216.6707333,12463
221.9689593,11902.6
227.2590382,12252.2
232.5409839,12288.2
237.8148101,12088.2
243.0805303,12316.8
248.3381582,12218
253.5877075,12018
258.8291917,12241.6
264.0626244,12189.6
269.288019,12448
274.5053891,12639.4
279.7147481,12339.2
284.9161094,11961.2
290.1094865,12132
295.2948927,12685.2
300.4723414,13921.2
305.6418459,14391.4
310.8034194,15103.2
315.9570752,16241.4
321.1028267,16515.6
326.2406869,16507.8
331.370669,16797
336.4927863,16741.6
341.6070517,16967.2
346.7134786,16794.6
351.8120798,17096.8
356.9028684,16822.6
361.9858576,17036.6
367.0610602,17335.8
372.1284892,16995.2
377.1881577,17722
382.2400784,18283.6
387.2842644,19379
392.3207284,20299.6
397.3494833,19657.2
402.370542,19152.6
407.3839172,18087.2
412.3896217,17130.4
417.3876683,16420
422.3780697,16440.6
427.3608386,16412.2
432.3359876,16680.6
437.3035295,16929.4
442.2634769,17047
447.2158423,16122.6
452.1606383,16144.8
457.0978776,16323
462.0275727,15732.4
466.9497361,16247.4
471.8643802,15663.6
476.7715176,16233.4
481.6711608,16129
486.5633221,16418.6
491.448014,16196
496.3252488,16039
501.195039,16132.8
506.0573969,16546.6
510.9123349,16097.6
515.7598651,15673
520.6,16124.2
525.4327518,16093.8
530.2581327,16146
535.076155,15629.6
539.8868309,15895
544.6901726,16191.8
549.4861922,15866.2
554.2749019,16805.2
559.0563139,15819
563.8304402,15612
568.597293,16625
573.3568844,16346.6
578.1092263,15837
582.8543308,16258
587.5922101,16112.6
592.322876,15814.6
597.0463405,15848.6
601.7626157,16200.4
606.4717135,15781
611.1736458,15701.4
615.8684246,15818.2
620.5560617,16076.2
625.2365691,15769.6
629.9099585,16235
634.5762419,16566
639.2354312,15915.6
643.887538,16179.8
648.5325743,15759
653.1705518,15701.6
657.8014823,15830.2
662.4253775,15230.8
667.0422493,15700.8
671.6521092,15669.6
676.2549691,15896
680.8508407,15773
685.4397355,15582
690.0216654,15884.8
694.5966419,15583.6
699.1646767,16145.6
703.7257814,16002.2
708.2799676,15945.6
712.827247,16144.2
717.367631,15637
721.9011314,15733.4
726.4277595,15120.2
730.9475271,15838.4
735.4604456,15625.6
739.9665264,16176
744.4657813,15751.2
748.9582215,15772.8
753.4438587,15226.2
757.9227042,15057.6
762.3947696,15553
766.8600662,15181.6
771.3186056,16679.8
775.770399,15487
780.215458,15949.6
784.6537939,15226.2
789.0854181,15204.4
793.510342,15374.2
797.9285769,16031.6
802.3401342,15471.6
806.7450253,15699.2
811.1432614,15514.6
815.5348538,15317.2
819.9198139,15081.4
824.2981531,15332
828.6698824,15381.8
833.0350133,15128.6
837.393557,14832
841.7455248,15289.8
846.0909278,15084.4
850.4297774,14870.4
854.7620848,15007.4
859.0878611,15250
863.4071176,14652.8
867.7198655,15144.8
872.026116,15541.6
876.3258802,16028
880.6191693,15397.2
884.9059946,15497.2
889.186367,16019.6
893.4602979,14827.2
897.7277982,14806.2
901.9888793,15087.6
906.2435521,15615.4
910.4918277,15077.8
914.7337174,14990.2
918.9692321,14900.2
923.1983831,15629.6
927.4211813,15195.2
931.6376378,15998.2
935.8477637,15356.6
940.0515701,15642.4
944.249068,15712.2
948.4402684,14924.4
952.6251825,15846
956.8038212,15467.8
960.9761955,16143.8
965.1423166,15606.6
969.3021953,15629.2
973.4558427,15692.2
977.6032699,15369
981.7444877,15587.2
985.8795072,15558.6
990.0083394,15677
994.1309953,15185.4
998.2474857,15602.2
1002.357822,14784.2
1006.462014,15346
1010.560075,15128.8
1014.652013,15406.4
1018.737841,15579.6
1022.81757,15107.2
1026.891209,15055.2
1030.958771,14798
1035.020266,15160.2
1039.075705,14965
1043.1251,14665.6
1047.16846,14907.4
1051.205797,14838.6
1055.237121,14639.2
1059.262444,14600.6
1063.281777,14449.4
1067.295131,14819.6
1071.302515,16596
1075.303942,16792.8
1079.299422,17889.4
1083.288966,16861.2
1087.272585,15926.8
1091.250289,15331.8
1095.222091,15210.2
1099.187999,14720.8
1103.148026,14855
1107.102183,14678
1111.050479,14925.4
1114.992927,14799.6
1118.929536,14574.4
1122.860318,14983.6
1126.785283,14429
1130.704443,14370
1134.617808,15338.6
1138.52539,15267.8
1142.427198,15261.6
1146.323244,15269.8
1150.213538,14702.8
1154.098093,15137.2
1157.976917,14511.6
1161.850023,14411
1165.717421,14969.8
1169.579121,14824.4
1173.435135,15161
1177.285474,14402
1181.130148,14746.6
1184.969169,15134.4
1188.802547,14954.4
1192.630292,14519.8
1196.452416,14248.4
1200.26893,14174.4
1204.079844,14016
1207.88517,13573
1211.684917,14276.4
1215.479098,13808.6
1219.267722,15521.4
1223.050801,13936.6
1226.828346,13980
1230.600366,14336.8
1234.366874,14330.4
1238.12788,14060.6
1241.883395,14295.4
1245.633429,14549.8
1249.377994,14522.4
1253.1171,13577.2
1256.850759,14116.6
1260.578981,13948.2
1264.301776,14117.2
1268.019157,14000.6
1271.731133,13756.8
1275.437715,13597.6
1279.138915,14130.2
1282.834743,14373.8
1286.52521,13868.8
1290.210328,13815.2
1293.890106,13823.8
1297.564555,14422.4
1301.233688,13793.2
1304.897514,14157.2
1308.556044,14234
1312.209289,14196.2
1315.857261,13656.8
1319.499969,13778.8
1323.137425,14470.8
1326.769641,13911.6
1330.396626,14684
1334.018391,14028.8
1337.634948,14158
1341.246307,13872.6
1344.85248,13877.2
1348.453477,13737.6
1352.049309,13694.6
1355.639987,13633.8
1359.225522,14375.2
1362.805925,14006.4
1366.381207,13994.6
1369.951379,14001.6
1373.516452,14177.8
1377.076436,14273.6
1380.631343,14186.4
1384.181184,14034.4
1387.725969,14107.2
1391.26571,13922.8
1394.800417,13748.6
1398.330102,13868.4
1401.854776,14055.2
1405.374448,13826.8
1408.889132,13410.4
1412.398837,13039
1415.903574,13463.2
1419.403355,14075.4
1422.89819,13769.6
1426.388091,13747.2
1429.873069,14311.2
1433.353134,13689.2
1436.828298,13751.2
1440.298571,13834.4
1443.763965,13546
1447.224491,13348.6
1450.68016,13374.6
1454.130983,13859.2
1457.576971,13812.6
1461.018135,13895
1464.454486,14057.8
1467.886036,13498.2
1471.312794,13637.6
1474.734774,13293.2
1478.151985,14039.6
1481.564439,13752.2
1484.972146,13630.2
1488.375119,13327.6
1491.773368,13636.2
1495.166904,14278.2
1498.555739,13551
1501.939883,13572
1505.319349,13149
1508.694146,13526.8
1512.064286,13479
1515.429781,13484.2
1518.790642,13347.8
1522.146879,13658.6
1525.498505,13122
1528.845529,13055.6
1532.187965,13721.4
1535.525822,13438.8
1538.859112,13358.4
1542.187846,14027.8
1545.512036,13094.6
1548.831693,14457
1552.146829,13871.8
1555.457453,13184.2
1558.763579,12876.6
1562.065216,13452
1565.362377,13746.8
1568.655073,13997.4
1571.943315,13886.8
1575.227114,13929.4
1578.506482,13940.2
1581.781431,14726.2
1585.051971,14443.8
1588.318114,14513.4
1591.579872,14503.6
1594.837255,14069.2
1598.090275,13619
1601.338945,13483
1604.583274,13693.4
1607.823275,13427.2
1611.058959,12773
1614.290338,13700.4
1617.517422,12790.4
1620.740224,13242.4
1623.958755,12773.6
1627.173027,12881.8
1630.38305,12489.2
1633.588838,13002.8
1636.7904,12748.2
1639.987749,12967.8
1643.180896,13115.8
1646.369853,12463.8
1649.554632,13371.6
1652.735244,12729.4
1655.9117,12343
1659.084013,12735.6
1662.252193,13372.4
1665.416254,12410.8
1668.576205,12754.2
1671.732059,13118.8
1674.883828,13088.4
1678.031523,12617.6
1681.175157,12637.8
1684.314739,12682
1687.450284,12584.4
1690.581801,12531.6
1693.709304,12365
1696.832803,12417.4
1699.952311,12611
1703.067839,12623
1706.179399,12528.2
1709.287003,12991.8
1712.390663,12556.4
1715.49039,12677.8
1718.586197,12958.8
1721.678095,12843.4
1724.766096,12854.2
1727.850213,12209.6
1730.930456,12617.4
1734.006838,12369.8
1737.079372,12673.4
1740.148067,12399.2
1743.212938,13404.8
1746.273996,12603.6
1749.331252,12475.6
1752.384718,12500
1755.434408,12560.2
1758.480332,12644.6
1761.522503,12630.8
1764.560933,12345.8
1767.595634,12094
1770.626618,12677.2
1773.653896,12859
1776.677482,12455
1779.697388,12480.6
1782.713625,13041.2
1785.726205,12873.6
1788.735141,12861.8
1791.740445,12371.8
1794.742129,12359.2
1797.740206,12876
1800.734687,12833.8
1803.725585,12629
1806.712912,12656.2
1809.69668,12323.8
1812.676902,12361.2
1815.65359,12028.2
1818.626756,12187.6
1821.596413,12359.4
1824.562573,11945.4
1827.525247,12451.2
1830.48445,12194
1833.440192,12402.6
1836.392487,12194
1839.341347,12522.8
1842.286784,12539.8
1845.22881,11997
1848.167439,12570.8
1851.102682,12355.2
1854.034553,12385
1856.963063,12088.6
1859.888226,13150.8
1862.810053,12528.2
1865.728557,12331.6
1868.643751,12088.4
1871.555648,12082.4
1874.46426,11795.6
1877.369599,12478.2
1880.271679,12230.8
1883.170512,12079.8
1886.06611,12631.4
1888.958487,12314.6
1891.847655,12265
1894.733626,12447.4
1897.616414,12496.4
1900.496032,11994.2
1903.372491,12326.6
1906.245805,12726.4
1909.115987,12715.8
1911.983049,12606.6
1914.847004,12430.2
1917.707866,12734
1920.565646,12655.8
1923.420359,12195.8
1926.272016,12452
1929.120631,12134.4
1931.966216,12391.2
1934.808786,12192.8
1937.648351,12597.2
1940.484927,12408.2
1943.318525,12568
1946.149158,12827
1948.97684,13819.6
1951.801584,12781.8
1954.623403,12534.8
1957.44231,12693.6
1960.258318,12109.2
1963.071439,12182.6
1965.881688,12412
1968.689078,12571
1971.493621,12282.2
