Ramanshift[cm-1],Intensity
-93.47115107,14532.8
-87.69374369,13255.8
-81.9253076,13056.6
-76.16582701,13118.6
-70.41528615,13229.8
-64.67366933,12894.4
-58.94096086,12935.6
-53.21714512,13070
-47.50220652,13286.8
-41.79612954,13199.4
-36.09889866,13797.2
-30.41049843,13863.4
-24.73091343,13378
-19.0601283,13410.8
-13.39812769,13283.4
-7.744896327,12974.2
-2.100418946,12753
3.535319659,13501.4
9.162334658,12826.4
14.78064118,13141.6
20.39025432,12835.2
25.99118913,12901.6
31.58346061,13372.2
37.16708375,13126.8
42.74207347,12860.2
48.30844468,12692.4
53.86621222,12668.4
59.41539093,12360
64.95599558,12387.6
70.48804091,12864.2
76.01154164,12883.6
81.52651243,12224
87.03296792,12835.6
92.5309227,13132.6
98.02039134,12438.4
103.5013884,12771
108.9739282,12601
114.4380255,12567
119.8936944,12802.8
125.3409495,13607
130.779805,12528.2
136.2102753,12272
141.6323747,12200.6
147.0461174,12921.2
152.4515176,12437.6
157.8485895,12390.2
163.2373472,12259
168.6178049,12637.2
173.9899766,12951.8
179.3538764,12444.2
184.7095182,12583.4
190.0569161,12833.8
195.396084,12984.8
200.7270358,12355
206.0497854,12380.4
211.3643466,12074.8
216.6707333,12530.4
221.9689593,12031.8
227.2590382,12276.8
232.5409839,12335.2
237.8148101,12169.2
243.0805303,12259
248.3381582,12293.2
253.5877075,12060
258.8291917,12325.8
264.0626244,12417.8
269.288019,12579.2
274.5053891,12698.4
279.7147481,12393.4
284.9161094,12091.8
290.1094865,12389.4
295.2948927,13085.2
300.4723414,14969.8
305.6418459,16424
310.8034194,17916.8
315.9570752,19390
321.1028267,19591.8
326.2406869,19768
331.370669,19828.4
336.4927863,20016
341.6070517,20252.2
346.7134786,20273.8
351.8120798,20538.2
356.9028684,20163.6
361.9858576,20238.6
367.0610602,20630.8
372.1284892,20335.4
377.1881577,21081.6
382.2400784,21745.2
387.2842644,22726.2
392.3207284,23513.6
397.3494833,22568.4
402.370542,22077.6
407.3839172,21137.2
412.3896217,20249.8
417.3876683,19692.6
422.3780697,19578.8
427.3608386,19460.2
432.3359876,19816.6
437.3035295,19830.6
442.2634769,19877.8
447.2158423,18986.4
452.1606383,19017
457.0978776,19191.8
462.0275727,18596.8
466.9497361,19056.2
471.8643802,18565.2
476.7715176,19015.2
481.6711608,19058.6
486.5633221,19347.4
491.448014,19127
496.3252488,18980.2
501.195039,18884.8
506.0573969,19269.4
510.9123349,18924.4
515.7598651,18367.8
520.6,18800.2
525.4327518,18774.6
530.2581327,18750.8
535.076155,18189.4
539.8868309,18716.2
544.6901726,18757
549.4861922,18260
554.2749019,19205.6
559.0563139,18099.4
563.8304402,18003.8
568.597293,19022.8
573.3568844,18696.2
578.1092263,18187.8
582.8543308,18590.8
587.5922101,18477
592.322876,18218
597.0463405,18313
601.7626157,18666.4
606.4717135,18200.2
611.1736458,18113.2
615.8684246,18231.4
620.5560617,18628.4
625.2365691,18352.6
629.9099585,18773.2
634.5762419,18961.2
639.2354312,18350
643.887538,18503.4
648.5325743,18096.4
653.1705518,18059.6
657.8014823,18287
662.4253775,17537.2
667.0422493,17902.2
671.6521092,17850.8
676.2549691,18016.4
680.8508407,18134.2
685.4397355,17871.8
690.0216654,18020.2
694.5966419,17822.6
699.1646767,18294
703.7257814,18053.2
708.2799676,18146.8
712.827247,18322.4
717.367631,17930.8
721.9011314,17810.4
726.4277595,17206.2
730.9475271,17925.8
735.4604456,17814.8
739.9665264,18275.2
744.4657813,17749.4
748.9582215,17740.4
753.4438587,17284.2
757.9227042,17038.8
762.3947696,17597.2
766.8600662,17105.8
771.3186056,18622.8
775.770399,17447
780.215458,17962.6
784.6537939,17029.6
789.0854181,16965.8
793.510342,17138.2
797.9285769,17747
802.3401342,17123.4
806.7450253,17422
811.1432614,17158.2
815.5348538,16991.6
819.9198139,16654.2
824.2981531,16936.8
828.6698824,16940.2
833.0350133,16808.6
837.393557,16499.2
841.7455248,16834.6
846.0909278,16640.4
850.4297774,16548.4
854.7620848,16733.6
859.0878611,16965.2
863.4071176,16256.6
867.7198655,16789.6
872.026116,17087.4
876.3258802,17497
880.6191693,17073.8
884.9059946,17145.2
889.186367,17468.8
893.4602979,16328.8
897.7277982,16353.2
901.9888793,16809.6
906.2435521,17191.8
910.4918277,16592.6
914.7337174,16588.2
918.9692321,16456.6
923.1983831,17085
927.4211813,16720
931.6376378,17484.8
935.8477637,16942.8
940.0515701,17104.8
944.249068,17172.6
948.4402684,16360.8
952.6251825,17282.6
956.8038212,16841.4
960.9761955,17553
965.1423166,16837.6
969.3021953,16953.2
973.4558427,17072.4
977.6032699,16838.4
981.7444877,16903.8
985.8795072,16821
990.0083394,16798
994.1309953,16600
998.2474857,16931
1002.357822,16137.2
1006.462014,16815.4
1010.560075,16488.6
1014.652013,16795.8
1018.737841,17051
1022.81757,16524.8
1026.891209,16402.2
1030.958771,16301.2
1035.020266,16707
1039.075705,16414.4
1043.1251,16122.6
1047.16846,16409
1051.205797,16363.4
1055.237121,16085.4
1059.262444,16250.6
1063.281777,16282.8
1067.295131,17093.6
1071.302515,18905
1075.303942,18852
1079.299422,19808.6
1083.288966,18435.8
1087.272585,17408.8
1091.250289,16820.2
1095.222091,16683.4
1099.187999,16067.4
1103.148026,16369
1107.102183,16159.8
1111.050479,16398.6
1114.992927,16135.4
1118.929536,16050.6
1122.860318,16422.6
1126.785283,16115.6
1130.704443,16102
1134.617808,17171.4
1138.52539,17211.2
1142.427198,17098.2
1146.323244,16989
1150.213538,16352
1154.098093,16721.4
1157.976917,16014.4
1161.850023,15985.8
1165.717421,16587.8
1169.579121,16178.8
1173.435135,16812.6
1177.285474,16125.6
1181.130148,16393.8
1184.969169,16633.2
1188.802547,16459
1192.630292,15837
1196.452416,15663.2
1200.26893,15602
1204.079844,15307.6
1207.88517,14925.6
1211.684917,15627.8
1215.479098,15299.6
1219.267722,16868.4
1223.050801,15270.4
1226.828346,15265.6
1230.600366,15646.2
1234.366874,15582
1238.12788,15414.4
1241.883395,15474.2
1245.633429,15800.2
1249.377994,15777.6
1253.1171,15110.8
1256.850759,15385.2
1260.578981,15288.6
1264.301776,15402.2
1268.019157,15244
1271.731133,15033.6
1275.437715,14959
1279.138915,15462
1282.834743,15818
1286.52521,15206.4
1290.210328,14993.4
1293.890106,15296.4
1297.564555,15748
1301.233688,15113.6
1304.897514,15419.8
1308.556044,15592.2
1312.209289,15486.2
1315.857261,14895.6
1319.499969,15070.2
1323.137425,15926.2
1326.769641,15377.8
1330.396626,15976.6
1334.018391,15397
1337.634948,15456.2
1341.246307,15177.2
1344.85248,15088.2
1348.453477,15055.4
1352.049309,14893.8
1355.639987,15071.8
1359.225522,15817.4
1362.805925,15188.2
1366.381207,15318
1369.951379,15323.2
1373.516452,15371.8
1377.076436,15657.8
1380.631343,15436.2
1384.181184,15321.8
1387.725969,15517.8
1391.26571,15337
1394.800417,15024.8
1398.330102,15216.2
1401.854776,15215.6
1405.374448,15044.8
1408.889132,14706.2
1412.398837,14283.4
1415.903574,14718.2
1419.403355,15431.2
1422.89819,15062.8
1426.388091,15129
1429.873069,15789.4
1433.353134,15130.8
1436.828298,15050
1440.298571,15016.4
1443.763965,14648
1447.224491,14458.8
1450.68016,14452.6
1454.130983,15004
1457.576971,14860.8
1461.018135,15031.2
1464.454486,15132
1467.886036,14573.2
1471.312794,14716.8
1474.734774,14256.8
1478.151985,15094.4
1481.564439,14821.4
1484.972146,14740.2
1488.375119,14225.4
1491.773368,14635.6
1495.166904,15177.6
1498.555739,14571
1501.939883,14626.4
1505.319349,14114.8
1508.694146,14498.6
1512.064286,14543.6
1515.429781,14523.2
1518.790642,14289.8
1522.146879,14594.4
1525.498505,13981.8
1528.845529,13966
1532.187965,14761.4
1535.525822,14400.4
1538.859112,14455.6
1542.187846,15050.8
1545.512036,14072.6
1548.831693,15512.2
1552.146829,14877.6
1555.457453,14280
1558.763579,13952.8
1562.065216,14451.2
1565.362377,14824.2
1568.655073,15246.6
1571.943315,14959.6
1575.227114,15117.2
1578.506482,15073.4
1581.781431,15754.8
1585.051971,15511.4
1588.318114,15396.6
1591.579872,15219.6
1594.837255,14739.6
1598.090275,14333.4
1601.338945,14220
1604.583274,14525.6
1607.823275,14113.2
1611.058959,13693
1614.290338,14353.4
1617.517422,13530
1620.740224,13896.2
1623.958755,13506.4
1627.173027,13638.6
1630.38305,13202.2
1633.588838,13698.6
1636.7904,13346
1639.987749,13785
1643.180896,13824
1646.369853,13171.8
1649.554632,14029.8
1652.735244,13330.6
1655.9117,12906.4
1659.084013,13314.8
1662.252193,13989.4
1665.416254,12999.4
1668.576205,13312.2
1671.732059,13622.2
1674.883828,13681
1678.031523,13016.4
1681.175157,13183
1684.314739,13143.8
1687.450284,13058
1690.581801,12993.4
1693.709304,12785.2
1696.832803,12898.8
1699.952311,13116
1703.067839,13001
1706.179399,13038.6
1709.287003,13464.4
1712.390663,13003.2
1715.49039,13008.6
1718.586197,13438.6
1721.678095,13189
1724.766096,13170.8
1727.850213,12614
1730.930456,13045.4
1734.006838,12735.2
1737.079372,13084.8
1740.148067,12686.8
1743.212938,13813.2
1746.273996,12985.8
1749.331252,12844.4
1752.384718,12889.2
1755.434408,12984.6
1758.480332,13049.4
1761.522503,12901.4
1764.560933,12697.2
1767.595634,12302
1770.626618,13227.8
1773.653896,13128.2
1776.677482,12688.4
1779.697388,12652.2
1782.713625,13334.2
1785.726205,13101
1788.735141,13235.2
1791.740445,12812.6
1794.742129,12640.8
1797.740206,13089
1800.734687,13284.6
1803.725585,12930.2
1806.712912,12907
1809.69668,12670.6
1812.676902,12786.4
1815.65359,12282
1818.626756,12514.4
1821.596413,12611.8
1824.562573,12266.6
1827.525247,12617.6
1830.48445,12455.8
1833.440192,12579.2
1836.392487,12484.2
1839.341347,12785
1842.286784,12784.2
1845.22881,12210
1848.167439,12839
1851.102682,12609
1854.034553,12654.8
1856.963063,12395.8
1859.888226,13174.8
1862.810053,12702
1865.728557,12609.2
1868.643751,12377.6
1871.555648,12393
1874.46426,12027
1877.369599,12791
1880.271679,12529.6
1883.170512,12361.6
1886.06611,12946.2
1888.958487,12541.8
1891.847655,12478.2
1894.733626,12594.6
1897.616414,12734.8
1900.496032,12332.2
1903.372491,12588.6
1906.245805,12960.6
1909.115987,12893.6
1911.983049,12827
1914.847004,12788.2
1917.707866,12918.6
1920.565646,12866
1923.420359,12366.2
1926.272016,12585.8
1929.120631,12392
1931.966216,12640.2
1934.808786,12536
1937.648351,12810.4
1940.484927,12682.6
1943.318525,12924.8
1946.149158,13036.2
1948.97684,14155.2
1951.801584,13063.8
1954.623403,12787
1957.44231,12956
1960.258318,12389.2
1963.071439,12435.2
1965.881688,12640
1968.689078,12752.6
1971.493621,12539.6
