Ramanshift[cm-1],Intensity
-93.47115107,14512.6
-87.69374369,13200.6
-81.9253076,12993.2
-76.16582701,13054.2
-70.41528615,13124.2
-64.67366933,12847.8
-58.94096086,12898.2
-53.21714512,13065.2
-47.50220652,13308.8
-41.79612954,13300.8
-36.09889866,13758.4
-30.41049843,13691.8
-24.73091343,13415.2
-19.0601283,13433.6
-13.39812769,13179.6
-7.744896327,12956
-2.100418946,12704.8
3.535319659,13471.6
9.162334658,12786.6
14.78064118,13178.6
20.39025432,12789.6
25.99118913,12930.6
31.58346061,13474
37.16708375,13158.2
42.74207347,12776.8
48.30844468,12844.8
53.86621222,12747.6
59.41539093,12351.8
64.95599558,12392
70.48804091,12789
76.01154164,12895.2
81.52651243,12211
87.03296792,12816.4
92.5309227,13081.6
98.02039134,12421.2
103.5013884,12633.6
108.9739282,12559
114.4380255,12551
119.8936944,12700
125.3409495,13705.4
130.779805,12562.2
136.2102753,12184.6
141.6323747,12271
147.0461174,12923
152.4515176,12491.6
157.8485895,12436.8
163.2373472,12291
168.6178049,12633.4
173.9899766,12917.4
179.3538764,12461
184.7095182,12539.2
190.0569161,12773.8
195.396084,12893
200.7270358,12287.4
206.0497854,12403
211.3643466,12102.8
216.6707333,12532.4
221.9689593,12027.8
227.2590382,12283.6
232.5409839,12267
237.8148101,12165.8
243.0805303,12262
248.3381582,12236.8
253.5877075,12117
258.8291917,12185.2
264.0626244,12320.2
269.288019,12484.2
274.5053891,12610.4
279.7147481,12221.6
284.9161094,12067.4
290.1094865,12259.8
295.2948927,12802.6
300.4723414,13875.4
305.6418459,14533.2
310.8034194,15283.8
315.9570752,16256.2
321.1028267,16559.8
326.2406869,16503.2
331.370669,16737.4
336.4927863,16689.2
341.6070517,16863.8
346.7134786,16752
351.8120798,17157.8
356.9028684,16824.6
361.9858576,16896.4
367.0610602,17211
372.1284892,16912.6
377.1881577,17501.2
382.2400784,18175.8
387.2842644,19363
392.3207284,20675.4
397.3494833,20017.2
402.370542,19645.8
407.3839172,18399
412.3896217,17246.4
417.3876683,16556.6
422.3780697,16374.6
427.3608386,16233.2
432.3359876,16646
437.3035295,16724.4
442.2634769,16685.6
447.2158423,15975.8
452.1606383,15927
457.0978776,16176
462.0275727,15599.4
466.9497361,15976.2
471.8643802,15473.6
476.7715176,16050.2
481.6711608,15923
486.5633221,16231.2
491.448014,16080.4
496.3252488,15873.8
501.195039,15877
506.0573969,16263
510.9123349,15960.2
515.7598651,15357.6
520.6,15824.6
525.4327518,15854.8
530.2581327,15966.2
535.076155,15423.8
539.8868309,15757.8
544.6901726,15964.2
549.4861922,15601.8
554.2749019,16507.6
559.0563139,15544.8
563.8304402,15287.2
568.597293,16363.2
573.3568844,16170.8
578.1092263,15569.8
582.8543308,16009.8
587.5922101,15925
592.322876,15595.2
597.0463405,15587
601.7626157,15962.6
606.4717135,15494.8
611.1736458,15505.8
615.8684246,15594.2
620.5560617,15903.8
625.2365691,15694.2
629.9099585,15894.6
634.5762419,16268.6
639.2354312,15612.8
643.887538,15924.6
648.5325743,15590.4
653.1705518,15473.2
657.8014823,15674.6
662.4253775,15078
667.0422493,15414.4
671.6521092,15471.2
676.2549691,15687.2
680.8508407,15546.2
685.4397355,15501
690.0216654,15571.4
694.5966419,15348
699.1646767,15985.4
703.7257814,15567.6
708.2799676,15859.4
712.827247,15793.8
717.367631,15590.6
721.9011314,15533.8
726.4277595,14913.2
730.9475271,15507
735.4604456,15564.8
739.9665264,16053.4
744.4657813,15392.4
748.9582215,15370.2
753.4438587,14979.4
757.9227042,14864.6
762.3947696,15357.8
766.8600662,14857.8
771.3186056,16443
775.770399,15357.2
780.215458,15819.6
784.6537939,15097.4
789.0854181,14897.8
793.510342,15153.6
797.9285769,15895.8
802.3401342,15264.8
806.7450253,15525.2
811.1432614,15323.8
815.5348538,15187.6
819.9198139,14692
824.2981531,15177.4
828.6698824,15093.2
833.0350133,15013.8
837.393557,14631.6
841.7455248,14960.2
846.0909278,14825.2
850.4297774,14872.6
854.7620848,14743.2
859.0878611,15094.6
863.4071176,14434.4
867.7198655,15008.4
872.026116,15281
876.3258802,15711.4
880.6191693,15312.8
884.9059946,15310.8
889.186367,15714.6
893.4602979,14652
897.7277982,14676.6
901.9888793,14999
906.2435521,15369.6
910.4918277,14782.6
914.7337174,14824
918.9692321,14696.6
923.1983831,15448.6
927.4211813,15155.2
931.6376378,15830.6
935.8477637,15313.8
940.0515701,15629.2
944.249068,15516.4
948.4402684,14797.4
952.6251825,15785.2
956.8038212,15343.8
960.9761955,15958.4
965.1423166,15372.4
969.3021953,15511
973.4558427,15628.6
977.6032699,15239
981.7444877,15484.2
985.8795072,15235
990.0083394,15396.4
994.1309953,15096
998.2474857,15341.4
1002.357822,14576.6
1006.462014,15232.8
1010.560075,14872.6
1014.652013,15229.6
1018.737841,15372.8
1022.81757,14953.2
1026.891209,14848.2
1030.958771,14724.8
1035.020266,15164
1039.075705,14745
1043.1251,14518.4
1047.16846,14776.2
1051.205797,14738.8
1055.237121,14291.2
1059.262444,14372.8
1063.281777,14201.8
1067.295131,14548.8
1071.302515,16216.2
1075.303942,16142.6
1079.299422,17373.8
1083.288966,16732.2
1087.272585,15722.2
1091.250289,15169.6
1095.222091,14934.6
1099.187999,14561
1103.148026,14679.6
1107.102183,14406.4
1111.050479,14583.4
1114.992927,14552.8
1118.929536,14456.6
1122.860318,14687.4
1126.785283,14161
1130.704443,14043.6
1134.617808,15028
1138.52539,14854.8
1142.427198,14840.8
1146.323244,14872.4
1150.213538,14418.8
1154.098093,14820.6
1157.976917,14073.4
1161.850023,14082
1165.717421,14682
1169.579121,14340.2
1173.435135,14915
1177.285474,14118.4
1181.130148,14535.2
1184.969169,14831.8
1188.802547,14638.8
1192.630292,14148.2
1196.452416,13823
1200.26893,13975.4
1204.079844,13708.2
1207.88517,13231.2
1211.684917,13944.6
1215.479098,13616.2
1219.267722,15172.8
1223.050801,13611.2
1226.828346,13781.2
1230.600366,13941.2
1234.366874,14010
1238.12788,13807.4
1241.883395,13907
1245.633429,14298.2
1249.377994,14176.2
1253.1171,13380.6
1256.850759,13930
1260.578981,13771
1264.301776,13780.4
1268.019157,13725.2
1271.731133,13467
1275.437715,13321.4
1279.138915,13983
1282.834743,14159
1286.52521,13578
1290.210328,13449.2
1293.890106,13635
1297.564555,14080.2
1301.233688,13466.6
1304.897514,13798
1308.556044,13856.6
1312.209289,13905.4
1315.857261,13340.4
1319.499969,13473.8
1323.137425,14331.2
1326.769641,13776.8
1330.396626,14478
1334.018391,13738.2
1337.634948,13859
1341.246307,13600.4
1344.85248,13673.4
1348.453477,13448.2
1352.049309,13455.2
1355.639987,13457.6
1359.225522,14038.8
1362.805925,13643.8
1366.381207,13713.6
1369.951379,13729.8
1373.516452,13778.2
1377.076436,13961.8
1380.631343,13743.4
1384.181184,13646.2
1387.725969,13881.4
1391.26571,13505
1394.800417,13332.2
1398.330102,13504.6
1401.854776,13749
1405.374448,13607.6
1408.889132,13092.6
1412.398837,12786.8
1415.903574,13180.2
1419.403355,13839.6
1422.89819,13381.2
1426.388091,13344.6
1429.873069,13970.2
1433.353134,13347.2
1436.828298,13420
1440.298571,13504.2
1443.763965,13215
1447.224491,13180.8
1450.68016,13137.6
1454.130983,13608.8
1457.576971,13492.2
1461.018135,13693.8
1464.454486,13737.8
1467.886036,13227.2
1471.312794,13437.6
1474.734774,13057
1478.151985,13669.2
1481.564439,13589.4
1484.972146,13335
1488.375119,12979.8
1491.773368,13394.8
1495.166904,13982
1498.555739,13319.2
1501.939883,13395.4
1505.319349,12913.4
1508.694146,13218.2
1512.064286,13341.8
1515.429781,13190.2
1518.790642,13026.6
1522.146879,13390.2
1525.498505,12750.6
1528.845529,12837.2
1532.187965,13589.2
1535.525822,13115
1538.859112,13199.4
1542.187846,13817.4
1545.512036,12857.4
1548.831693,14238.2
1552.146829,13619.2
1555.457453,13040
1558.763579,12587.4
1562.065216,12997.4
1565.362377,13420
1568.655073,13641.6
1571.943315,13641.8
1575.227114,13578
1578.506482,13562.2
1581.781431,14380.6
1585.051971,14020.8
1588.318114,14323.4
1591.579872,14261.4
1594.837255,13864.4
1598.090275,13420.4
1601.338945,13354
1604.583274,13501.8
1607.823275,13064.4
1611.058959,12631
1614.290338,13434.4
1617.517422,12581.6
1620.740224,13046
1623.958755,12660
1627.173027,12640.4
1630.38305,12324.8
1633.588838,12868.2
1636.7904,12605
1639.987749,12910.6
1643.180896,13061.4
1646.369853,12368.4
1649.554632,13235
1652.735244,12642.4
1655.9117,12191.8
1659.084013,12592
1662.252193,13191.8
1665.416254,12199
1668.576205,12623.4
1671.732059,12951.4
1674.883828,12896.8
1678.031523,12436.8
1681.175157,12601.6
1684.314739,12552.4
1687.450284,12563.6
1690.581801,12392.2
1693.709304,12237.2
1696.832803,12277
1699.952311,12517.2
1703.067839,12455.8
1706.179399,12483
1709.287003,12841.6
1712.390663,12451.2
1715.49039,12498.6
1718.586197,12805.2
1721.678095,12747.6
1724.766096,12672.4
1727.850213,12160
1730.930456,12500.2
1734.006838,12232.8
1737.079372,12534.4
1740.148067,12182.4
1743.212938,13283.6
1746.273996,12518.6
1749.331252,12388.4
1752.384718,12471.6
1755.434408,12534.2
1758.480332,12513.2
1761.522503,12482
1764.560933,12195.8
1767.595634,11965.8
1770.626618,12693.4
1773.653896,12769.2
1776.677482,12329.4
1779.697388,12248.8
1782.713625,12955.8
1785.726205,12755.6
1788.735141,12697.2
1791.740445,12235.6
1794.742129,12353.4
1797.740206,12706.4
1800.734687,12732.6
1803.725585,12494.6
1806.712912,12450.6
1809.69668,12240
1812.676902,12182.4
1815.65359,11928
1818.626756,12067.2
1821.596413,12343.8
1824.562573,11938
1827.525247,12372.4
1830.48445,12120.4
1833.440192,12301.8
1836.392487,12136
1839.341347,12354.4
1842.286784,12349.4
1845.22881,11963.6
1848.167439,12436.2
1851.102682,12106
1854.034553,12273.4
1856.963063,12083.8
1859.888226,12975.6
1862.810053,12476.4
1865.728557,12224.4
1868.643751,12027.4
1871.555648,12000.4
1874.46426,11726.2
1877.369599,12359.4
1880.271679,12206
1883.170512,12040
1886.06611,12575
1888.958487,12171.4
1891.847655,12257.2
1894.733626,12282.4
1897.616414,12439.2
1900.496032,11805.8
1903.372491,12216.6
1906.245805,12535.6
1909.115987,12609.4
1911.983049,12473.8
1914.847004,12389.8
1917.707866,12513.8
1920.565646,12465.8
1923.420359,12161
1926.272016,12304.6
1929.120631,12125.4
1931.966216,12212.6
1934.808786,12224.8
1937.648351,12436
1940.484927,12401.6
1943.318525,12490.8
1946.149158,12713.2
1948.97684,13856
1951.801584,12795.6
1954.623403,12477.4
1957.44231,12641.6
1960.258318,12145.8
1963.071439,12167.8
1965.881688,12301.4
1968.689078,12447.8
1971.493621,12184.8
