Ramanshift[cm-1],Intensity
-93.47115107,14496.2
-87.69374369,13116.6
-81.9253076,12949.8
-76.16582701,13133.2
-70.41528615,13065.2
-64.67366933,12821.2
-58.94096086,12852
-53.21714512,13127
-47.50220652,13151.2
-41.79612954,13199.8
-36.09889866,13696.8
-30.41049843,13671.2
-24.73091343,13429.8
-19.0601283,13424.4
-13.39812769,13198
-7.744896327,12874.4
-2.100418946,12737.6
3.535319659,13389
9.162334658,12727.2
14.78064118,13086
20.39025432,12741.2
25.99118913,12832.4
31.58346061,13334.4
37.16708375,13043.2
42.74207347,12798
48.30844468,12761.6
53.86621222,12629.8
59.41539093,12223
64.95599558,12307.2
70.48804091,12726.8
76.01154164,12855.2
81.52651243,12131.4
87.03296792,12745.4
92.5309227,13077
98.02039134,12376.8
103.5013884,12626
108.9739282,12468.4
114.4380255,12488.2
119.8936944,12645.6
125.3409495,13666.6
130.779805,12419
136.2102753,12167.2
141.6323747,12138
147.0461174,12897.2
152.4515176,12371.2
157.8485895,12455.8
163.2373472,12300.6
168.6178049,12580.4
173.9899766,12856.2
179.3538764,12431.8
184.7095182,12505.6
190.0569161,12678.4
195.396084,12795
200.7270358,12299.2
206.0497854,12254.2
211.3643466,12108.2
216.6707333,12427.6
221.9689593,12078.8
227.2590382,12205.6
232.5409839,12216.4
237.8148101,12162.4
243.0805303,12297.6
248.3381582,12203.8
253.5877075,12111.8
258.8291917,12240.8
264.0626244,12217
269.288019,12493.2
274.5053891,12674.6
279.7147481,12312
284.9161094,12109.6
290.1094865,12772.8
295.2948927,14297.8
300.4723414,18099.6
305.6418459,22215.6
310.8034194,26124.8
315.9570752,28686.6
321.1028267,29427.4
326.2406869,29972
331.370669,30591.8
336.4927863,31340.6
341.6070517,31674.6
346.7134786,31678.8
351.8120798,32066.6
356.9028684,31931.8
361.9858576,32386.2
367.0610602,32855.8
372.1284892,33360.8
377.1881577,35681.6
382.2400784,39725.8
387.2842644,44463.4
392.3207284,46031.4
397.3494833,43465.8
402.370542,40550.6
407.3839172,37740.4
412.3896217,35343
417.3876683,33426.6
422.3780697,32396.8
427.3608386,31603.4
432.3359876,31647
437.3035295,31335
442.2634769,31401.6
447.2158423,30246.2
452.1606383,29773
457.0978776,29704.2
462.0275727,28954.2
466.9497361,29412.4
471.8643802,28768.6
476.7715176,29728.8
481.6711608,30389.2
486.5633221,31171.6
491.448014,30823.8
496.3252488,30008.6
501.195039,29732.2
506.0573969,29703.6
510.9123349,29034.8
515.7598651,28277.2
520.6,28413
525.4327518,28018.8
530.2581327,28007.2
535.076155,27568.8
539.8868309,28321.2
544.6901726,28327.6
549.4861922,27571.6
554.2749019,28094
559.0563139,26830.8
563.8304402,26585.4
568.597293,27726.6
573.3568844,27323.4
578.1092263,26933
582.8543308,27393.8
587.5922101,27153.6
592.322876,26696.2
597.0463405,26983.2
601.7626157,27220.6
606.4717135,26759.4
611.1736458,26667.8
615.8684246,26649.2
620.5560617,26929.6
625.2365691,27048.2
629.9099585,28032.8
634.5762419,28774.6
639.2354312,28032.4
643.887538,27946.2
648.5325743,27160.6
653.1705518,26784.6
657.8014823,26756.4
662.4253775,26139
667.0422493,26426.2
671.6521092,26425.6
676.2549691,26431
680.8508407,26339.6
685.4397355,26304.8
690.0216654,26257.2
694.5966419,26335.2
699.1646767,27491
703.7257814,27380.2
708.2799676,27526
712.827247,27979.2
717.367631,27912.2
721.9011314,27329.8
726.4277595,25626.4
730.9475271,26007
735.4604456,25735.4
739.9665264,26119.2
744.4657813,25584.6
748.9582215,25442.2
753.4438587,24816.4
757.9227042,24617
762.3947696,24975.2
766.8600662,24411.6
771.3186056,25969.4
775.770399,24850
780.215458,25091.6
784.6537939,24402.8
789.0854181,24542
793.510342,24843.2
797.9285769,25823
802.3401342,25687.8
806.7450253,26133
811.1432614,25897
815.5348538,25822
819.9198139,25269.8
824.2981531,24993.4
828.6698824,24989.4
833.0350133,24280.8
837.393557,23737.4
841.7455248,24037.6
846.0909278,23663
850.4297774,23598
854.7620848,23430.4
859.0878611,23731.8
863.4071176,23101.2
867.7198655,23710.2
872.026116,23994.8
876.3258802,24143.8
880.6191693,23685.6
884.9059946,23782
889.186367,24248.8
893.4602979,23092.6
897.7277982,23229
901.9888793,24050.2
906.2435521,24500.8
910.4918277,24089.8
914.7337174,24379.2
918.9692321,24726.6
923.1983831,25338.8
927.4211813,24746.2
931.6376378,25652.6
935.8477637,25247.2
940.0515701,25589.4
944.249068,25862.6
948.4402684,24980
952.6251825,25980.4
956.8038212,25617.8
960.9761955,26277
965.1423166,25866.6
969.3021953,25871.6
973.4558427,25957.8
977.6032699,25865.8
981.7444877,25732
985.8795072,25811
990.0083394,25946.8
994.1309953,25779.8
998.2474857,27099
1002.357822,27523
1006.462014,29736.6
1010.560075,28643.2
1014.652013,27220.6
1018.737841,26136.4
1022.81757,25111.6
1026.891209,24876.8
1030.958771,24596.8
1035.020266,24926
1039.075705,24686.6
1043.1251,24634.6
1047.16846,25334.2
1051.205797,25866
1055.237121,27116.2
1059.262444,29820.6
1063.281777,35087.2
1067.295131,43144.2
1071.302515,53751.8
1075.303942,59015.4
1079.299422,59159.8
1083.288966,50241
1087.272585,39562.6
1091.250289,31975.2
1095.222091,28535.6
1099.187999,26472.6
1103.148026,26067.2
1107.102183,25885
1111.050479,26195.2
1114.992927,26559.6
1118.929536,27495.8
1122.860318,29766
1126.785283,32448.2
1130.704443,38230.2
1134.617808,47787
1138.52539,56488
1142.427198,61187.4
1146.323244,57266.4
1150.213538,47029.8
1154.098093,39300.6
1157.976917,34544.4
1161.850023,33636.8
1165.717421,34615.4
1169.579121,35061.8
1173.435135,35471.6
1177.285474,33777.8
1181.130148,33338.4
1184.969169,33498.6
1188.802547,32918.4
1192.630292,31689
1196.452416,29064.2
1200.26893,27021
1204.079844,25651.8
1207.88517,24706.6
1211.684917,25448.2
1215.479098,24759
1219.267722,26662.8
1223.050801,24790.2
1226.828346,24939.2
1230.600366,24964.6
1234.366874,24807
1238.12788,24524.8
1241.883395,24296.4
1245.633429,24531.4
1249.377994,24539.2
1253.1171,23769.2
1256.850759,24041.4
1260.578981,23973.8
1264.301776,23985
1268.019157,23786.6
1271.731133,23435.6
1275.437715,23334.4
1279.138915,23974.6
1282.834743,24099.6
1286.52521,23649.4
1290.210328,23850
1293.890106,24528.6
1297.564555,25903
1301.233688,25628
1304.897514,26136.2
1308.556044,25629
1312.209289,25159.4
1315.857261,24421.6
1319.499969,24391.8
1323.137425,25301.2
1326.769641,24460.6
1330.396626,25355.6
1334.018391,24676.4
1337.634948,24934.4
1341.246307,24674
1344.85248,24889.4
1348.453477,25147.6
1352.049309,25085.4
1355.639987,25294.4
1359.225522,26027.2
1362.805925,25632.2
1366.381207,25868.6
1369.951379,26164.2
1373.516452,26510.2
1377.076436,27282
1380.631343,28836.4
1384.181184,31103.4
1387.725969,34741.8
1391.26571,36774
1394.800417,35297.2
1398.330102,31019
1401.854776,27716
1405.374448,25191.8
1408.889132,24099.4
1412.398837,23650.2
1415.903574,24419.8
1419.403355,26639
1422.89819,28721.8
1426.388091,32772.6
1429.873069,38398.6
1433.353134,42540
1436.828298,45112.6
1440.298571,45030
1443.763965,41609.2
1447.224491,36994.6
1450.68016,32283.2
1454.130983,29187.4
1457.576971,26663.4
1461.018135,25863.4
1464.454486,25439.8
1467.886036,25327.2
1471.312794,26348.2
1474.734774,26518.6
1478.151985,26989.2
1481.564439,25265.6
1484.972146,24454.8
1488.375119,23799.8
1491.773368,24245.8
1495.166904,24415.8
1498.555739,23320.4
1501.939883,23176.4
1505.319349,22748.6
1508.694146,23117.4
1512.064286,23154.2
1515.429781,23152.2
1518.790642,23092.6
1522.146879,23582.8
1525.498505,23042
1528.845529,23161.8
1532.187965,24350.4
1535.525822,24809.2
1538.859112,25534.6
1542.187846,26891.2
1545.512036,26965.2
1548.831693,29151.2
1552.146829,29780.2
1555.457453,29859
1558.763579,29753.2
1562.065216,30765.8
1565.362377,31480.4
1568.655073,32250.6
1571.943315,32874.4
1575.227114,33482
1578.506482,33667
1581.781431,33849.6
1585.051971,32470
1588.318114,31678.2
1591.579872,30532.2
1594.837255,28383.8
1598.090275,26375.6
1601.338945,24392.8
1604.583274,23348.4
1607.823275,22082.4
1611.058959,21216.8
1614.290338,21374.6
1617.517422,20011
1620.740224,20078.2
1623.958755,19345
1627.173027,18979.4
1630.38305,18336.6
1633.588838,18490
1636.7904,18071.2
1639.987749,18284.4
1643.180896,18059.4
1646.369853,17168.4
1649.554632,18027.4
1652.735244,17086.2
1655.9117,16620.2
1659.084013,16901
1662.252193,17580.8
1665.416254,16361.4
1668.576205,16775.4
1671.732059,16896.4
1674.883828,16899.6
1678.031523,16275.2
1681.175157,16358.6
1684.314739,16369.2
1687.450284,16286
1690.581801,16041.8
1693.709304,15848.8
1696.832803,15851.4
1699.952311,16069
1703.067839,15925.2
1706.179399,16006.4
1709.287003,16339.8
1712.390663,15898.6
1715.49039,15857.4
1718.586197,16235.6
1721.678095,16018.4
1724.766096,16012.6
1727.850213,15248.2
1730.930456,15589
1734.006838,15440.8
1737.079372,15787.2
1740.148067,15156.2
1743.212938,16286.6
1746.273996,15403.2
1749.331252,15405.4
1752.384718,15318.6
1755.434408,15368.8
1758.480332,15336.2
1761.522503,15281
1764.560933,15169
1767.595634,14716.2
1770.626618,15424.6
1773.653896,15486.4
1776.677482,15006.4
1779.697388,14972.2
1782.713625,15614.8
1785.726205,15485.8
1788.735141,15443.6
1791.740445,14913.6
1794.742129,14871.6
1797.740206,15251
1800.734687,15392.4
1803.725585,15193.8
1806.712912,15116.2
1809.69668,14859.4
1812.676902,14874
1815.65359,14473.4
1818.626756,14725
1821.596413,14795.6
1824.562573,14593
1827.525247,14769.4
1830.48445,14633.2
1833.440192,14828.8
1836.392487,14662.8
1839.341347,14798.2
1842.286784,14915.4
1845.22881,14392
1848.167439,15020.4
1851.102682,14756.2
1854.034553,14616
1856.963063,14472.4
1859.888226,15296.8
1862.810053,14787.4
1865.728557,14697.4
1868.643751,14366.6
1871.555648,14405.6
1874.46426,14094.4
1877.369599,14712.8
1880.271679,14494
1883.170512,14323.4
1886.06611,14788.6
1888.958487,14540
1891.847655,14440
1894.733626,14530.8
1897.616414,14636.4
1900.496032,14138
1903.372491,14593
1906.245805,14803.6
1909.115987,14847.6
1911.983049,14742
1914.847004,14689.8
1917.707866,14743.8
1920.565646,14685.6
1923.420359,14196
1926.272016,14530
1929.120631,14250.8
1931.966216,14331.4
1934.808786,14275.8
1937.648351,14532.4
1940.484927,14520
1943.318525,14612.6
1946.149158,14766.8
1948.97684,15864.8
1951.801584,14712.2
1954.623403,14496.2
1957.44231,14606
1960.258318,14108.2
1963.071439,14132.2
1965.881688,14377
1968.689078,14458.8
1971.493621,14230
