Ramanshift[cm-1],Intensity
-93.47115107,14541.6
-87.69374369,13090.6
-81.9253076,12840.8
-76.16582701,13016.2
-70.41528615,13055.2
-64.67366933,12767.4
-58.94096086,12750.4
-53.21714512,12982.2
-47.50220652,13141.2
-41.79612954,13178.4
-36.09889866,13601.4
-30.41049843,13720.6
-24.73091343,13323
-19.0601283,13349.4
-13.39812769,13207.2
-7.744896327,12917
-2.100418946,12629.4
3.535319659,13394.4
9.162334658,12784.4
14.78064118,13146.2
20.39025432,12728.2
25.99118913,12729.8
31.58346061,13275.2
37.16708375,13064.2
42.74207347,12708
48.30844468,12752.8
53.86621222,12585.8
59.41539093,12294.6
64.95599558,12297.6
70.48804091,12632.6
76.01154164,12787.6
81.52651243,12224.4
87.03296792,12660.2
92.5309227,12945.6
98.02039134,12343.2
103.5013884,12643.6
108.9739282,12418.2
114.4380255,12466.8
119.8936944,12686.8
125.3409495,13599
130.779805,12449.2
136.2102753,12174.8
141.6323747,12154.4
147.0461174,12856.2
152.4515176,12503.4
157.8485895,12284.4
163.2373472,12209.6
168.6178049,12569
173.9899766,12861
179.3538764,12378.6
184.7095182,12454.6
190.0569161,12688.8
195.396084,12764.8
200.7270358,12186.4
206.0497854,12415.8
211.3643466,11989.6
216.6707333,12449.6
221.9689593,12015.8
227.2590382,12172.2
232.5409839,12224.8
237.8148101,12148.4
243.0805303,12175.8
248.3381582,12214.6
253.5877075,12014.2
258.8291917,12256.6
264.0626244,12262.4
269.288019,12432.4
274.5053891,12577.6
279.7147481,12208.4
284.9161094,11949.4
290.1094865,12030.6
295.2948927,12441.4
300.4723414,13468.4
305.6418459,13798.2
310.8034194,14175.4
315.9570752,15224.4
321.1028267,15463
326.2406869,15600.4
331.370669,15780
336.4927863,15795
341.6070517,15998.8
346.7134786,15856
351.8120798,16288.6
356.9028684,15998
361.9858576,16060.8
367.0610602,16562.4
372.1284892,16501.4
377.1881577,17563.8
382.2400784,19203.4
387.2842644,21978.4
392.3207284,23797
397.3494833,22408.4
402.370542,20790.8
407.3839172,18754
412.3896217,17199.6
417.3876683,16207.4
422.3780697,15691.4
427.3608386,15753.6
432.3359876,15930.8
437.3035295,16057.6
442.2634769,16052
447.2158423,15158
452.1606383,15086.2
457.0978776,15344
462.0275727,14561.8
466.9497361,15136.4
471.8643802,14535.6
476.7715176,15050.8
481.6711608,14902.6
486.5633221,15378.8
491.448014,15199.6
496.3252488,15016.8
501.195039,15051.2
506.0573969,15498.2
510.9123349,15275
515.7598651,14641.6
520.6,15094
525.4327518,15043.8
530.2581327,14990
535.076155,14475.4
539.8868309,14854.6
544.6901726,15017.6
549.4861922,14737.8
554.2749019,15499.8
559.0563139,14538.4
563.8304402,14370
568.597293,15404.8
573.3568844,15125
578.1092263,14539.4
582.8543308,14995.2
587.5922101,14935
592.322876,14622.6
597.0463405,14597.4
601.7626157,15024.2
606.4717135,14564.2
611.1736458,14497.4
615.8684246,14559.8
620.5560617,14824.6
625.2365691,14626.8
629.9099585,15312.2
634.5762419,15769.2
639.2354312,15064.4
643.887538,15451.2
648.5325743,15002.8
653.1705518,14737.8
657.8014823,14884.8
662.4253775,14186.8
667.0422493,14646.2
671.6521092,14565.4
676.2549691,14748.8
680.8508407,14729.2
685.4397355,14641
690.0216654,14755
694.5966419,14550.8
699.1646767,15320.8
703.7257814,15169.4
708.2799676,15178
712.827247,15192.2
717.367631,14842.6
721.9011314,14770.4
726.4277595,14063.2
730.9475271,14715.4
735.4604456,14682.2
739.9665264,15141
744.4657813,14611.2
748.9582215,14635
753.4438587,14163.6
757.9227042,14032.2
762.3947696,14676.4
766.8600662,14185.8
771.3186056,15583.6
775.770399,14543.2
780.215458,15001.2
784.6537939,14190.6
789.0854181,14231.8
793.510342,14524.8
797.9285769,15235
802.3401342,14751
806.7450253,15046.2
811.1432614,15083.8
815.5348538,14710.2
819.9198139,14517.2
824.2981531,14523
828.6698824,14703.6
833.0350133,14377.4
837.393557,13977.8
841.7455248,14395
846.0909278,14096.6
850.4297774,14041
854.7620848,14143
859.0878611,14422.2
863.4071176,13681
867.7198655,14159.2
872.026116,14524.2
876.3258802,14862.2
880.6191693,14581
884.9059946,14406
889.186367,14983
893.4602979,14020.8
897.7277982,13969.2
901.9888793,14373.6
906.2435521,14786.4
910.4918277,14202
914.7337174,14273
918.9692321,14218
923.1983831,14946.6
927.4211813,14533.4
931.6376378,15257.2
935.8477637,14681.4
940.0515701,15061.2
944.249068,15188.6
948.4402684,14339.6
952.6251825,15439
956.8038212,15083.6
960.9761955,15706.6
965.1423166,15216.6
969.3021953,15255.4
973.4558427,15310.2
977.6032699,15015.8
981.7444877,15201.6
985.8795072,15134.2
990.0083394,15214
994.1309953,14931.8
998.2474857,15426.8
1002.357822,14877.4
1006.462014,15680.2
1010.560075,15134.6
1014.652013,15057.8
1018.737841,15020
1022.81757,14268.2
1026.891209,14137
1030.958771,13986.8
1035.020266,14381.6
1039.075705,14135.2
1043.1251,13875
1047.16846,14198.2
1051.205797,14159.4
1055.237121,14003.2
1059.262444,14201.6
1063.281777,14478.4
1067.295131,15619.4
1071.302515,18715.6
1075.303942,20480.2
1079.299422,22928
1083.288966,21464.8
1087.272585,18659.6
1091.250289,16321
1095.222091,15102.2
1099.187999,14202.4
1103.148026,14137.6
1107.102183,13913.6
1111.050479,14082.8
1114.992927,13893.8
1118.929536,13842.6
1122.860318,14134.6
1126.785283,13858.6
1130.704443,14077.2
1134.617808,15419.6
1138.52539,15745.8
1142.427198,15807
1146.323244,15596
1150.213538,14830
1154.098093,14859
1157.976917,14066.2
1161.850023,13998
1165.717421,14588.2
1169.579121,14491.2
1173.435135,15007
1177.285474,14359
1181.130148,14823.8
1184.969169,15181
1188.802547,14829.4
1192.630292,14057.8
1196.452416,13595.8
1200.26893,13639.2
1204.079844,13228.8
1207.88517,12741.6
1211.684917,13554.2
1215.479098,13188.8
1219.267722,14724.8
1223.050801,13125
1226.828346,13241
1230.600366,13555.4
1234.366874,13544.8
1238.12788,13320.4
1241.883395,13365
1245.633429,13801.6
1249.377994,13690.6
1253.1171,12869.6
1256.850759,13380
1260.578981,13136.2
1264.301776,13229.2
1268.019157,13168.6
1271.731133,12902
1275.437715,12750.4
1279.138915,13342.4
1282.834743,13668.8
1286.52521,13023.8
1290.210328,12952
1293.890106,13098.6
1297.564555,13610.6
1301.233688,13053.8
1304.897514,13375.2
1308.556044,13436.4
1312.209289,13441.8
1315.857261,12944.2
1319.499969,13020
1323.137425,13774.8
1326.769641,13204
1330.396626,13854
1334.018391,13187.8
1337.634948,13240.4
1341.246307,13071.2
1344.85248,13068
1348.453477,12829
1352.049309,12852
1355.639987,12911.8
1359.225522,13620.2
1362.805925,13213
1366.381207,13282.2
1369.951379,13372
1373.516452,13413.4
1377.076436,13693
1380.631343,13577.6
1384.181184,13567
1387.725969,13998
1391.26571,13704.2
1394.800417,13504.4
1398.330102,13406.2
1401.854776,13355.2
1405.374448,13170.6
1408.889132,12664
1412.398837,12345.2
1415.903574,12846.6
1419.403355,13548.2
1422.89819,13362
1426.388091,13611.8
1429.873069,14299
1433.353134,13893.8
1436.828298,13809.2
1440.298571,13740.8
1443.763965,13237.4
1447.224491,12963.2
1450.68016,12794.6
1454.130983,13252.6
1457.576971,13092.8
1461.018135,13258.6
1464.454486,13334.4
1467.886036,12979.6
1471.312794,13008
1474.734774,12764.2
1478.151985,13474
1481.564439,13199
1484.972146,13243.2
1488.375119,12891.8
1491.773368,13329.2
1495.166904,13931.8
1498.555739,12964.4
1501.939883,12995.6
1505.319349,12617
1508.694146,12944.6
1512.064286,12934.2
1515.429781,12906.2
1518.790642,12703.4
1522.146879,13005
1525.498505,12538.2
1528.845529,12508.8
1532.187965,13241.2
1535.525822,12935.2
1538.859112,13029.8
1542.187846,13687.4
1545.512036,12792
1548.831693,14288.8
1552.146829,13719
1555.457453,13130.2
1558.763579,12794.4
1562.065216,13351.6
1565.362377,13796.8
1568.655073,14256.4
1571.943315,14167
1575.227114,14302.4
1578.506482,14550.4
1581.781431,15543.6
1585.051971,15562.8
1588.318114,16042.4
1591.579872,16171.6
1594.837255,15771.6
1598.090275,15013.4
1601.338945,14271.4
1604.583274,14009
1607.823275,13312.6
1611.058959,12682.2
1614.290338,13406.6
1617.517422,12345
1620.740224,12768
1623.958755,12299.4
1627.173027,12475.6
1630.38305,12030.2
1633.588838,12504.4
1636.7904,12225.2
1639.987749,12460
1643.180896,12564.2
1646.369853,12000.8
1649.554632,12861.4
1652.735244,12181.8
1655.9117,11757.4
1659.084013,12158.6
1662.252193,12875.4
1665.416254,11961
1668.576205,12158.6
1671.732059,12377.4
1674.883828,12529.8
1678.031523,12000.6
1681.175157,12126.4
1684.314739,12126.4
1687.450284,12033.8
1690.581801,11974.8
1693.709304,11898.4
1696.832803,11841.6
1699.952311,12114.6
1703.067839,12112.6
1706.179399,12109.4
1709.287003,12566.4
1712.390663,12150
1715.49039,12205.2
1718.586197,12442
1721.678095,12264.8
1724.766096,12247.2
1727.850213,11768
1730.930456,12066.4
1734.006838,11853
1737.079372,12140
1740.148067,11835.6
1743.212938,12855.4
1746.273996,12125.6
1749.331252,11975.4
1752.384718,12139.6
1755.434408,12085
1758.480332,12160.2
1761.522503,12178.6
1764.560933,11927.4
1767.595634,11650.6
1770.626618,12281.2
1773.653896,12453.4
1776.677482,11949.4
1779.697388,11902.8
1782.713625,12516.8
1785.726205,12513.4
1788.735141,12517.2
1791.740445,11943.6
1794.742129,11945.4
1797.740206,12332
1800.734687,12428.4
1803.725585,12125.2
1806.712912,12178.6
1809.69668,11814.2
1812.676902,11906.4
1815.65359,11573.2
1818.626756,11654
1821.596413,11949.6
1824.562573,11599.2
1827.525247,11885.6
1830.48445,11783.8
1833.440192,11870.4
1836.392487,11785.8
1839.341347,12040.4
1842.286784,12066.6
1845.22881,11544.4
1848.167439,12159.6
1851.102682,11898.8
1854.034553,11913
1856.963063,11699.4
1859.888226,12612
1862.810053,12176.6
1865.728557,11948
1868.643751,11672.2
1871.555648,11719.4
1874.46426,11441.4
1877.369599,12080.8
1880.271679,11791
1883.170512,11759.4
1886.06611,12289.4
1888.958487,11854
1891.847655,11893.2
1894.733626,11990.6
1897.616414,12080.4
1900.496032,11600.6
1903.372491,11913.8
1906.245805,12271.6
1909.115987,12191.4
1911.983049,12266.8
1914.847004,12068
1917.707866,12256.4
1920.565646,12175
1923.420359,11728
1926.272016,12019.4
1929.120631,11740.2
1931.966216,12044.8
1934.808786,11806
1937.648351,12178.4
1940.484927,12031.8
1943.318525,12251.4
1946.149158,12357.8
1948.97684,13483
1951.801584,12458
1954.623403,12258.2
1957.44231,12304.8
1960.258318,11760.4
1963.071439,11826.6
1965.881688,12047.6
1968.689078,12235.6
1971.493621,11851.4
