Ramanshift[cm-1],Intensity
-93.47115107,14553.6
-87.69374369,13230.2
-81.9253076,13116.2
-76.16582701,13189.2
-70.41528615,13228.4
-64.67366933,12904
-58.94096086,12919.4
-53.21714512,13057.8
-47.50220652,13359.6
-41.79612954,13253.2
-36.09889866,13706.4
-30.41049843,13825.2
-24.73091343,13456
-19.0601283,13447.8
-13.39812769,13134
-7.744896327,13082.8
-2.100418946,12771.2
3.535319659,13455.6
9.162334658,12804.4
14.78064118,13177.6
20.39025432,12879.4
25.99118913,12938
31.58346061,13337.8
37.16708375,13148
42.74207347,12731.2
48.30844468,12877.6
53.86621222,12738.2
59.41539093,12393.4
64.95599558,12329.6
70.48804091,12787.6
76.01154164,12872.8
81.52651243,12264.6
87.03296792,12771.2
92.5309227,13016.6
98.02039134,12388.6
103.5013884,12755.2
108.9739282,12626.8
114.4380255,12523.8
119.8936944,12729
125.3409495,13717.4
130.779805,12458.2
136.2102753,12259.2
141.6323747,12252.4
147.0461174,12938.8
152.4515176,12442.2
157.8485895,12486
163.2373472,12340.6
168.6178049,12622
173.9899766,12964.6
179.3538764,12459
184.7095182,12542.4
190.0569161,12717.8
195.396084,12946.6
200.7270358,12300
206.0497854,12432.8
211.3643466,12069.8
216.6707333,12527
221.9689593,12076
227.2590382,12250
232.5409839,12292.2
237.8148101,12151
243.0805303,12276.2
248.3381582,12300.2
253.5877075,12119.2
258.8291917,12335.6
264.0626244,12431.4
269.288019,12612
274.5053891,12694
279.7147481,12408.6
284.9161094,12462
290.1094865,13306.4
295.2948927,16276.2
300.4723414,22789.2
305.6418459,31518.4
310.8034194,39814.8
315.9570752,44933
321.1028267,46523.8
326.2406869,47308.6
331.370669,48018.4
336.4927863,48932
341.6070517,49892.8
346.7134786,50548.2
351.8120798,51758.2
356.9028684,51983.2
361.9858576,51571.6
367.0610602,51734.6
372.1284892,51332
377.1881577,52099.6
382.2400784,52585
387.2842644,53585.6
392.3207284,54805.8
397.3494833,55165
402.370542,55751.8
407.3839172,55372
412.3896217,53963.2
417.3876683,52449.8
422.3780697,52108.8
427.3608386,51235.4
432.3359876,51438.6
437.3035295,50913.8
442.2634769,50871.2
447.2158423,49303
452.1606383,49219.4
457.0978776,49321.2
462.0275727,49309.4
466.9497361,49908.8
471.8643802,48693.8
476.7715176,49984.2
481.6711608,51098.8
486.5633221,52086.4
491.448014,51424.8
496.3252488,50208.2
501.195039,49276
506.0573969,48876.6
510.9123349,47770.4
515.7598651,46879.2
520.6,46795.6
525.4327518,46414.6
530.2581327,46208.2
535.076155,45767.4
539.8868309,46541
544.6901726,46766.2
549.4861922,45475.6
554.2749019,45984.8
559.0563139,45066.4
563.8304402,44709.4
568.597293,45772.4
573.3568844,45406.4
578.1092263,44715.2
582.8543308,45382.2
587.5922101,45279.2
592.322876,44612.2
597.0463405,44906.2
601.7626157,45106.8
606.4717135,44632.2
611.1736458,44731.8
615.8684246,44663.4
620.5560617,44931.8
625.2365691,44830.8
629.9099585,45150.6
634.5762419,45350.6
639.2354312,45030.6
643.887538,44882.2
648.5325743,44351.6
653.1705518,43638.4
657.8014823,43429.6
662.4253775,42731
667.0422493,43283
671.6521092,43043.4
676.2549691,43014.4
680.8508407,43015.2
685.4397355,42776.8
690.0216654,42994.4
694.5966419,42808
699.1646767,43521.6
703.7257814,43820.8
708.2799676,44326.2
712.827247,45229
717.367631,45077
721.9011314,44155.2
726.4277595,42891.4
730.9475271,42784
735.4604456,42536.4
739.9665264,42909.4
744.4657813,42698.2
748.9582215,42039.2
753.4438587,41315
757.9227042,40695.8
762.3947696,40871.6
766.8600662,40149.8
771.3186056,41666
775.770399,40299.6
780.215458,40353.8
784.6537939,39616.8
789.0854181,39646.8
793.510342,39285.2
797.9285769,40051.8
802.3401342,39609.8
806.7450253,39832
811.1432614,39855.6
815.5348538,39825.6
819.9198139,39227.2
824.2981531,39503.6
828.6698824,39198.6
833.0350133,38570.4
837.393557,38153.8
841.7455248,38443.4
846.0909278,37848
850.4297774,38032.4
854.7620848,37996.6
859.0878611,38320.6
863.4071176,37627.6
867.7198655,38228.2
872.026116,38222.6
876.3258802,38627.4
880.6191693,38153.8
884.9059946,37958.8
889.186367,38269.2
893.4602979,36878
897.7277982,36887.2
901.9888793,37575.6
906.2435521,38353.8
910.4918277,38004.6
914.7337174,38541.4
918.9692321,38585.8
923.1983831,39287.4
927.4211813,38437.8
931.6376378,39197.8
935.8477637,38685
940.0515701,39206.8
944.249068,39374.6
948.4402684,38104.2
952.6251825,39251.2
956.8038212,38749
960.9761955,39389.8
965.1423166,38846.6
969.3021953,38864
973.4558427,38882.8
977.6032699,38837.8
981.7444877,38779.6
985.8795072,38787.6
990.0083394,38840.8
994.1309953,38660.6
998.2474857,39975
1002.357822,40296.4
1006.462014,42627.4
1010.560075,42169
1014.652013,40758.2
1018.737841,40265.8
1022.81757,39442.8
1026.891209,39115
1030.958771,38948.4
1035.020266,39759
1039.075705,40212.6
1043.1251,40635.6
1047.16846,41614.6
1051.205797,42664
1055.237121,44635
1059.262444,48691.4
1063.281777,55340.8
1067.295131,63118.6
1071.302515,64227
1075.303942,64372.6
1079.299422,62970
1083.288966,56022
1087.272585,49712.6
1091.250289,45548.4
1095.222091,43239.8
1099.187999,41541.2
1103.148026,41223.6
1107.102183,41069.6
1111.050479,41513.2
1114.992927,42357.4
1118.929536,43762.2
1122.860318,46919.8
1126.785283,50803.2
1130.704443,58709.2
1134.617808,64160
1138.52539,64172
1142.427198,64214.4
1146.323244,64356.6
1150.213538,63725.8
1154.098093,55232.6
1157.976917,49382
1161.850023,46681.8
1165.717421,46830.8
1169.579121,46183.2
1173.435135,46360
1177.285474,45157
1181.130148,45389.4
1184.969169,46277.4
1188.802547,46679.8
1192.630292,46253.2
1196.452416,44381.6
1200.26893,42410
1204.079844,40827.4
1207.88517,39558.4
1211.684917,39970
1215.479098,39224.6
1219.267722,40930.2
1223.050801,39098.6
1226.828346,39051.2
1230.600366,39227.6
1234.366874,39074.4
1238.12788,38566.4
1241.883395,38466.2
1245.633429,38470.6
1249.377994,38677.6
1253.1171,37958.6
1256.850759,38172
1260.578981,38212.4
1264.301776,38275.6
1268.019157,38078.6
1271.731133,37415.4
1275.437715,37582.2
1279.138915,37964.2
1282.834743,38266.8
1286.52521,37884.6
1290.210328,37821.6
1293.890106,38375.8
1297.564555,39540.8
1301.233688,39550
1304.897514,40204.4
1308.556044,40103.4
1312.209289,39636.6
1315.857261,38700.2
1319.499969,38403.6
1323.137425,39260.2
1326.769641,38504.2
1330.396626,39383.6
1334.018391,38700.8
1337.634948,38903.6
1341.246307,38569.4
1344.85248,38808
1348.453477,39056.4
1352.049309,39358.4
1355.639987,39701.8
1359.225522,40653.4
1362.805925,40276
1366.381207,40402.8
1369.951379,40798.2
1373.516452,41519
1377.076436,42683.2
1380.631343,44628
1384.181184,48070
1387.725969,52700.8
1391.26571,55016
1394.800417,52654
1398.330102,47715.6
1401.854776,43258
1405.374448,39983.6
1408.889132,38555.6
1412.398837,38103.2
1415.903574,39123.4
1419.403355,42019.2
1422.89819,45229
1426.388091,50201
1429.873069,56606.6
1433.353134,60742.2
1436.828298,62571
1440.298571,61114.4
1443.763965,57255.8
1447.224491,52039
1450.68016,46978.4
1454.130983,43352.4
1457.576971,40556
1461.018135,39058.2
1464.454486,38485.6
1467.886036,38130.2
1471.312794,39005
1474.734774,38495.6
1478.151985,38332.8
1481.564439,36187.6
1484.972146,34860.2
1488.375119,33851.2
1491.773368,33995
1495.166904,34388
1498.555739,33636.8
1501.939883,33724.4
1505.319349,33274.4
1508.694146,33903.2
1512.064286,34053.2
1515.429781,34003.2
1518.790642,33843.8
1522.146879,34200.6
1525.498505,33646.8
1528.845529,33888.2
1532.187965,35057.6
1535.525822,35141.8
1538.859112,35299.6
1542.187846,36292.4
1545.512036,35609.6
1548.831693,37239.4
1552.146829,37413.4
1555.457453,37721.8
1558.763579,38105.4
1562.065216,39766.2
1565.362377,41187.2
1568.655073,42357.2
1571.943315,43461.6
1575.227114,43743.6
1578.506482,43147.6
1581.781431,41828
1585.051971,39327.6
1588.318114,37557.6
1591.579872,35545
1594.837255,33566.4
1598.090275,31985.8
1601.338945,31199.2
1604.583274,30720.8
1607.823275,29831.6
1611.058959,28737.8
1614.290338,29304.4
1617.517422,27985.6
1620.740224,27944.8
1623.958755,27193.8
1627.173027,26846
1630.38305,26274.4
1633.588838,26222.8
1636.7904,25761
1639.987749,25947.6
1643.180896,25767.8
1646.369853,24719.8
1649.554632,25328.8
1652.735244,24535.8
1655.9117,24050.4
1659.084013,24060.4
1662.252193,24676.2
1665.416254,23718
1668.576205,23862.6
1671.732059,23876.6
1674.883828,23947.2
1678.031523,23180
1681.175157,23211
1684.314739,23032.8
1687.450284,23095.6
1690.581801,22695.6
1693.709304,22378.6
1696.832803,22419.2
1699.952311,22462.6
1703.067839,22528.6
1706.179399,22311
1709.287003,22580.4
1712.390663,22177.4
1715.49039,22144.2
1718.586197,22423.4
1721.678095,22250.2
1724.766096,22035.6
1727.850213,21404.6
1730.930456,21753.6
1734.006838,21331
1737.079372,21534.8
1740.148067,21154.4
1743.212938,22165.8
1746.273996,21350
1749.331252,21144.8
1752.384718,21011
1755.434408,20987
1758.480332,20919.8
1761.522503,20901.6
1764.560933,20565.4
1767.595634,20104.2
1770.626618,20822.6
1773.653896,20809
1776.677482,20381.8
1779.697388,20288.8
1782.713625,20887.8
1785.726205,20759.2
1788.735141,20630.6
1791.740445,20172.6
1794.742129,20200.8
1797.740206,20510.6
1800.734687,20627.4
1803.725585,20300
1806.712912,20252.6
1809.69668,20085.6
1812.676902,19975
1815.65359,19673.6
1818.626756,19713
1821.596413,19870.6
1824.562573,19506.4
1827.525247,19673.2
1830.48445,19584.4
1833.440192,19804.4
1836.392487,19576.6
1839.341347,19757.4
1842.286784,19799
1845.22881,19237
1848.167439,19872.8
1851.102682,19525.6
1854.034553,19559.2
1856.963063,19238.8
1859.888226,20176.4
1862.810053,19551.2
1865.728557,19423
1868.643751,19021
1871.555648,19195
1874.46426,18718.8
1877.369599,19456
1880.271679,19022.8
1883.170512,18914.8
1886.06611,19360.6
1888.958487,19184.8
1891.847655,19129
1894.733626,19214.6
1897.616414,19326.4
1900.496032,18765.2
1903.372491,18908.2
1906.245805,19216.6
1909.115987,19307.6
1911.983049,19262.4
1914.847004,18990.8
1917.707866,19222.6
1920.565646,19110
1923.420359,18575.4
1926.272016,18754.4
1929.120631,18597
1931.966216,18573.2
1934.808786,18604.2
1937.648351,18766
1940.484927,18584.2
1943.318525,18679.2
1946.149158,18970.6
1948.97684,20080.2
1951.801584,18945
1954.623403,18600.4
1957.44231,18768.2
1960.258318,18176.4
1963.071439,18217
1965.881688,18364.4
1968.689078,18543.6
1971.493621,18166
