Ramanshift[cm-1],Intensity
-93.47115107,14596.4
-87.69374369,13221.6
-81.9253076,13026.2
-76.16582701,13091
-70.41528615,13200.2
-64.67366933,12829.4
-58.94096086,12839.8
-53.21714512,13038.2
-47.50220652,13263.4
-41.79612954,13245.4
-36.09889866,13702.8
-30.41049843,13764.4
-24.73091343,13317.6
-19.0601283,13380
-13.39812769,13175.2
-7.744896327,12945.2
-2.100418946,12802
3.535319659,13378
9.162334658,12742
14.78064118,13069.4
20.39025432,12775.6
25.99118913,12874.8
31.58346061,13382.4
37.16708375,13155.8
42.74207347,12705.4
48.30844468,12829
53.86621222,12671.8
59.41539093,12356.2
64.95599558,12422.4
70.48804091,12733.2
76.01154164,12810
81.52651243,12154
87.03296792,12775.6
92.5309227,13113.6
98.02039134,12488.2
103.5013884,12716.4
108.9739282,12418.4
114.4380255,12542.6
119.8936944,12760
125.3409495,13644.8
130.779805,12422.4
136.2102753,12294.6
141.6323747,12263.6
147.0461174,12928.8
152.4515176,12351.4
157.8485895,12434.8
163.2373472,12262.4
168.6178049,12649.6
173.9899766,12861
179.3538764,12413.8
184.7095182,12474.6
190.0569161,12700.8
195.396084,12925.8
200.7270358,12266.6
206.0497854,12418
211.3643466,12058.4
216.6707333,12500.8
221.9689593,12064
227.2590382,12295.2
232.5409839,12291.2
237.8148101,12121
243.0805303,12231.2
248.3381582,12273
253.5877075,12153
258.8291917,12210.8
264.0626244,12386
269.288019,12527.4
274.5053891,12641.2
279.7147481,12230.8
284.9161094,12030.6
290.1094865,12249.8
295.2948927,12583
300.4723414,13716
305.6418459,13967.4
310.8034194,14534
315.9570752,15544.6
321.1028267,15637.4
326.2406869,15770
331.370669,15859
336.4927863,15888
341.6070517,15878.6
346.7134786,15660.2
351.8120798,15891.6
356.9028684,15671.6
361.9858576,15800.4
367.0610602,16029.8
372.1284892,15941
377.1881577,16313.4
382.2400784,16396.2
387.2842644,16773.4
392.3207284,16972.4
397.3494833,16412.4
402.370542,16462.4
407.3839172,16085.6
412.3896217,15764.4
417.3876683,15201.2
422.3780697,15318.2
427.3608386,15465.4
432.3359876,15831.6
437.3035295,15949.2
442.2634769,16071.4
447.2158423,15316.4
452.1606383,15394.8
457.0978776,15459.6
462.0275727,14907.4
466.9497361,15434
471.8643802,14863
476.7715176,15354.6
481.6711608,15263.2
486.5633221,15589
491.448014,15343.4
496.3252488,15319.4
501.195039,15326.6
506.0573969,15768.2
510.9123349,15361
515.7598651,14792
520.6,15375.8
525.4327518,15330
530.2581327,15320
535.076155,14751.4
539.8868309,15207.4
544.6901726,15422.4
549.4861922,15054.4
554.2749019,15893.2
559.0563139,14933.8
563.8304402,14809
568.597293,15840
573.3568844,15525.8
578.1092263,14974.6
582.8543308,15538.2
587.5922101,15341
592.322876,15052.6
597.0463405,15124.6
601.7626157,15437.4
606.4717135,14951.2
611.1736458,14991.2
615.8684246,14986.6
620.5560617,15302.4
625.2365691,15173.6
629.9099585,15597.6
634.5762419,15744
639.2354312,15098.2
643.887538,15316
648.5325743,15056.8
653.1705518,15034.8
657.8014823,15248.8
662.4253775,14611
667.0422493,14969.4
671.6521092,15016.6
676.2549691,15091
680.8508407,15199.6
685.4397355,14948
690.0216654,15070.4
694.5966419,14863.4
699.1646767,15355.2
703.7257814,15011.2
708.2799676,15150.8
712.827247,15310
717.367631,14921.4
721.9011314,15054.2
726.4277595,14447.6
730.9475271,15117.2
735.4604456,14992.8
739.9665264,15548.4
744.4657813,15003
748.9582215,15017.2
753.4438587,14522.6
757.9227042,14381.8
762.3947696,15079.8
766.8600662,14587.6
771.3186056,16093.4
775.770399,14900.8
780.215458,15327.4
784.6537939,14559.6
789.0854181,14457.6
793.510342,14604.8
797.9285769,15251.4
802.3401342,14673.4
806.7450253,14781.2
811.1432614,14620.8
815.5348538,14545.6
819.9198139,14256
824.2981531,14603.8
828.6698824,14698.2
833.0350133,14563.2
837.393557,14366.2
841.7455248,14688.2
846.0909278,14504.6
850.4297774,14377.6
854.7620848,14438
859.0878611,14715
863.4071176,14086.4
867.7198655,14542.4
872.026116,14875.6
876.3258802,15388
880.6191693,14846.2
884.9059946,14800.6
889.186367,15301.4
893.4602979,14242
897.7277982,14122.6
901.9888793,14556.2
906.2435521,14971.4
910.4918277,14348.8
914.7337174,14268.6
918.9692321,14153.4
923.1983831,14718.2
927.4211813,14491.4
931.6376378,15244.8
935.8477637,14587.2
940.0515701,14786.8
944.249068,14848.2
948.4402684,13933
952.6251825,14856.2
956.8038212,14525.2
960.9761955,15120.8
965.1423166,14652.6
969.3021953,14720.2
973.4558427,14702.6
977.6032699,14459.8
981.7444877,14564.2
985.8795072,14579.6
990.0083394,14656.4
994.1309953,14193.6
998.2474857,14654.2
1002.357822,13797.6
1006.462014,14496.8
1010.560075,14152
1014.652013,14696.2
1018.737841,15016.2
1022.81757,14394.6
1026.891209,14338
1030.958771,14264
1035.020266,14555
1039.075705,14263.2
1043.1251,14083.8
1047.16846,14251
1051.205797,14299.6
1055.237121,13984.4
1059.262444,13989
1063.281777,13816
1067.295131,14193.6
1071.302515,15392.8
1075.303942,15089.8
1079.299422,16037.8
1083.288966,15194.8
1087.272585,14717
1091.250289,14544
1095.222091,14538
1099.187999,14146.4
1103.148026,14284
1107.102183,14127
1111.050479,14267
1114.992927,14156.6
1118.929536,14050.6
1122.860318,14502.6
1126.785283,13920.8
1130.704443,13960.8
1134.617808,14705
1138.52539,14687.8
1142.427198,14667.2
1146.323244,14510.8
1150.213538,14263.6
1154.098093,14601.8
1157.976917,14041
1161.850023,13837.4
1165.717421,14463.6
1169.579121,14146.2
1173.435135,14559.4
1177.285474,13734
1181.130148,13983.6
1184.969169,14275.6
1188.802547,14249.2
1192.630292,13846.6
1196.452416,13668.8
1200.26893,13686.8
1204.079844,13366.6
1207.88517,13012.8
1211.684917,13726.4
1215.479098,13369.4
1219.267722,14944.4
1223.050801,13436
1226.828346,13515
1230.600366,13772.4
1234.366874,13683.4
1238.12788,13465.4
1241.883395,13532.2
1245.633429,13861.2
1249.377994,13885.4
1253.1171,13149.4
1256.850759,13621
1260.578981,13478.4
1264.301776,13536.6
1268.019157,13433.8
1271.731133,13351.8
1275.437715,13112.8
1279.138915,13786.6
1282.834743,13963.2
1286.52521,13418.6
1290.210328,13235
1293.890106,13405.4
1297.564555,13956
1301.233688,13353
1304.897514,13638.2
1308.556044,13758.8
1312.209289,13684.2
1315.857261,13176
1319.499969,13361
1323.137425,14220.2
1326.769641,13629.6
1330.396626,14260
1334.018391,13598.2
1337.634948,13642.8
1341.246307,13415.8
1344.85248,13386
1348.453477,13227.4
1352.049309,13294.6
1355.639987,13228.4
1359.225522,13864.4
1362.805925,13427.2
1366.381207,13460.4
1369.951379,13530
1373.516452,13586.8
1377.076436,13861.6
1380.631343,13660
1384.181184,13425.6
1387.725969,13561.4
1391.26571,13415.4
1394.800417,13167.2
1398.330102,13397.8
1401.854776,13591.8
1405.374448,13323.4
1408.889132,12967.4
1412.398837,12780
1415.903574,13035
1419.403355,13679.8
1422.89819,13290.6
1426.388091,13272.2
1429.873069,13738
1433.353134,13174.2
1436.828298,13270
1440.298571,13481.8
1443.763965,13060.8
1447.224491,12919.4
1450.68016,12911.8
1454.130983,13369.8
1457.576971,13276.6
1461.018135,13420.4
1464.454486,13568.4
1467.886036,13087.4
1471.312794,13238.4
1474.734774,12842.2
1478.151985,13650.2
1481.564439,13305.4
1484.972146,13170.8
1488.375119,12840.2
1491.773368,13141.6
1495.166904,13832.4
1498.555739,13009.6
1501.939883,13164.2
1505.319349,12786.4
1508.694146,13009.4
1512.064286,13025.2
1515.429781,13034
1518.790642,12891
1522.146879,13259.2
1525.498505,12693.2
1528.845529,12663
1532.187965,13325.8
1535.525822,13164
1538.859112,13023.6
1542.187846,13642
1545.512036,12681.4
1548.831693,14095.8
1552.146829,13439.8
1555.457453,12841.8
1558.763579,12373.8
1562.065216,12968.6
1565.362377,13293.6
1568.655073,13502.4
1571.943315,13329.2
1575.227114,13352.2
1578.506482,13317.8
1581.781431,13878.6
1585.051971,13478
1588.318114,13533.6
1591.579872,13463.4
1594.837255,13114.6
1598.090275,12974
1601.338945,12887.8
1604.583274,13389.8
1607.823275,12960.2
1611.058959,12499.6
1614.290338,13219.8
1617.517422,12398.4
1620.740224,12853.8
1623.958755,12452.8
1627.173027,12624
1630.38305,12121.6
1633.588838,12704.8
1636.7904,12434
1639.987749,12669
1643.180896,12817.2
1646.369853,12346
1649.554632,13095
1652.735244,12474.6
1655.9117,12066.4
1659.084013,12477.8
1662.252193,13143.4
1665.416254,12164
1668.576205,12516.2
1671.732059,12789
1674.883828,12814.2
1678.031523,12309.6
1681.175157,12332.6
1684.314739,12446
1687.450284,12375.8
1690.581801,12269.6
1693.709304,12106.6
1696.832803,12202.4
1699.952311,12363.4
1703.067839,12385.2
1706.179399,12334.2
1709.287003,12826.6
1712.390663,12342.4
1715.49039,12313.6
1718.586197,12715.8
1721.678095,12584
1724.766096,12600.8
1727.850213,12022.8
1730.930456,12414.4
1734.006838,12134.2
1737.079372,12427.8
1740.148067,12111.8
1743.212938,13169.2
1746.273996,12338.8
1749.331252,12328.8
1752.384718,12339.6
1755.434408,12439.6
1758.480332,12388.6
1761.522503,12349.6
1764.560933,12229.4
1767.595634,11940.2
1770.626618,12672
1773.653896,12660.4
1776.677482,12269.4
1779.697388,12263.4
1782.713625,12793.8
1785.726205,12687.2
1788.735141,12679.8
1791.740445,12235.2
1794.742129,12181.8
1797.740206,12700.6
1800.734687,12687.4
1803.725585,12399.8
1806.712912,12481.2
1809.69668,12056.6
1812.676902,12217.6
1815.65359,11874
1818.626756,11942.4
1821.596413,12175.6
1824.562573,11756
1827.525247,12211
1830.48445,12032
1833.440192,12240.8
1836.392487,12012
1839.341347,12270
1842.286784,12371.2
1845.22881,11843.6
1848.167439,12457.2
1851.102682,12213.8
1854.034553,12135.8
1856.963063,11858
1859.888226,12840.4
1862.810053,12306.2
1865.728557,12138.8
1868.643751,12019.6
1871.555648,11904.2
1874.46426,11564
1877.369599,12297.6
1880.271679,12110.6
1883.170512,11973.2
1886.06611,12527.8
1888.958487,12121.6
1891.847655,12108.8
1894.733626,12275.2
1897.616414,12276.6
1900.496032,11774.8
1903.372491,12129.6
1906.245805,12482.4
1909.115987,12445.4
1911.983049,12402.8
1914.847004,12356
1917.707866,12492.4
1920.565646,12434.2
1923.420359,11996.6
1926.272016,12276.4
1929.120631,12006.6
1931.966216,12147
1934.808786,12153.6
1937.648351,12395.6
1940.484927,12327.8
1943.318525,12431.4
1946.149158,12676.4
1948.97684,13712.4
1951.801584,12597
1954.623403,12483.2
1957.44231,12487.6
1960.258318,11949.8
1963.071439,11960.8
1965.881688,12229.4
1968.689078,12385.4
1971.493621,12184.2
