Ramanshift[cm-1],Intensity
-93.47115107,14459.8
-87.69374369,13196.4
-81.9253076,12957.6
-76.16582701,13051.2
-70.41528615,13149.2
-64.67366933,12805
-58.94096086,12839.8
-53.21714512,13025
-47.50220652,13263.6
-41.79612954,13230.8
-36.09889866,13607.6
-30.41049843,13643.4
-24.73091343,13276.2
-19.0601283,13395.6
-13.39812769,13165.6
-7.744896327,12967.4
-2.100418946,12837.2
3.535319659,13382.8
9.162334658,12792
14.78064118,13141.4
20.39025432,12769.4
25.99118913,12856.6
31.58346061,13338.4
37.16708375,13171
42.74207347,12734.2
48.30844468,12857.4
53.86621222,12635.6
59.41539093,12340.8
64.95599558,12343.8
70.48804091,12780
76.01154164,12918.4
81.52651243,12223.6
87.03296792,12798.4
92.5309227,13093
98.02039134,12424.2
103.5013884,12687.6
108.9739282,12503
114.4380255,12496.8
119.8936944,12744.8
125.3409495,13589
130.779805,12432.8
136.2102753,12197.4
141.6323747,12243.6
147.0461174,12885.6
152.4515176,12468
157.8485895,12325.6
163.2373472,12225.8
168.6178049,12681
173.9899766,12851.4
179.3538764,12446
184.7095182,12457
190.0569161,12736.6
195.396084,12927.6
200.7270358,12299.8
206.0497854,12372.6
211.3643466,12050.2
216.6707333,12465.4
221.9689593,11999.4
227.2590382,12213.8
232.5409839,12187.4
237.8148101,12052.2
243.0805303,12250
248.3381582,12280
253.5877075,12004
258.8291917,12299.2
264.0626244,12378.2
269.288019,12427.8
274.5053891,12645.8
279.7147481,12217.8
284.9161094,12047.4
290.1094865,12241.6
295.2948927,12663.8
300.4723414,13775.8
305.6418459,14347.8
310.8034194,15065.6
315.9570752,16161.4
321.1028267,16455.4
326.2406869,16577.6
331.370669,16679.6
336.4927863,16749.8
341.6070517,16801.2
346.7134786,16559.2
351.8120798,16973
356.9028684,16499.2
361.9858576,16708.4
367.0610602,16993.6
372.1284892,16699
377.1881577,17113.4
382.2400784,17045.8
387.2842644,17399.4
392.3207284,17898
397.3494833,17408.4
402.370542,17538.2
407.3839172,17060.4
412.3896217,16711
417.3876683,16331.2
422.3780697,16394.6
427.3608386,16448.4
432.3359876,16832.2
437.3035295,16970.4
442.2634769,17132.4
447.2158423,16267.6
452.1606383,16323.2
457.0978776,16524.6
462.0275727,15855.6
466.9497361,16458.2
471.8643802,15769.6
476.7715176,16310.8
481.6711608,16239.6
486.5633221,16672
491.448014,16214.8
496.3252488,16199.6
501.195039,16167.4
506.0573969,16655.4
510.9123349,16318
515.7598651,15795.4
520.6,16260
525.4327518,16193.6
530.2581327,16337.4
535.076155,15676.6
539.8868309,16157.6
544.6901726,16200.4
549.4861922,15947.6
554.2749019,16807.2
559.0563139,15818.4
563.8304402,15585.2
568.597293,16750.6
573.3568844,16400.6
578.1092263,15888.2
582.8543308,16443.6
587.5922101,16174.2
592.322876,15912
597.0463405,16096.2
601.7626157,16361
606.4717135,15878.6
611.1736458,15864.4
615.8684246,16083.8
620.5560617,16264.4
625.2365691,15957.8
629.9099585,16498.4
634.5762419,16766.4
639.2354312,15855.2
643.887538,16229.4
648.5325743,15991
653.1705518,15895
657.8014823,16135.4
662.4253775,15453.8
667.0422493,15811
671.6521092,15930.6
676.2549691,16014.2
680.8508407,15967.6
685.4397355,15827
690.0216654,15995
694.5966419,15750
699.1646767,16218.6
703.7257814,15863.4
708.2799676,16061.8
712.827247,16232.4
717.367631,15897.6
721.9011314,15863.4
726.4277595,15231.4
730.9475271,16016.2
735.4604456,15921.4
739.9665264,16315.2
744.4657813,15889.4
748.9582215,15958.8
753.4438587,15335.4
757.9227042,15273
762.3947696,15738.2
766.8600662,15349.2
771.3186056,16700.2
775.770399,15774
780.215458,16190.2
784.6537939,15362.4
789.0854181,15336.2
793.510342,15324.8
797.9285769,15935.2
802.3401342,15370.2
806.7450253,15555
811.1432614,15508.8
815.5348538,15388.4
819.9198139,14967.8
824.2981531,15303.4
828.6698824,15422.8
833.0350133,15315
837.393557,15000
841.7455248,15395.4
846.0909278,15234
850.4297774,15047.8
854.7620848,15134.4
859.0878611,15445.2
863.4071176,14855.6
867.7198655,15217.6
872.026116,15688
876.3258802,16030.8
880.6191693,15438.8
884.9059946,15625.6
889.186367,15992.2
893.4602979,14847.6
897.7277982,14715.6
901.9888793,15247.8
906.2435521,15494.4
910.4918277,15001.2
914.7337174,14915.8
918.9692321,14878.8
923.1983831,15416.6
927.4211813,15134.8
931.6376378,15855.8
935.8477637,15271.6
940.0515701,15545.8
944.249068,15629.8
948.4402684,14712.2
952.6251825,15580.8
956.8038212,15033.8
960.9761955,15751.2
965.1423166,15192.6
969.3021953,15348.4
973.4558427,15258.2
977.6032699,15118.4
981.7444877,15278.8
985.8795072,15146.4
990.0083394,15312.6
994.1309953,14976
998.2474857,15386
1002.357822,14405.2
1006.462014,15229.4
1010.560075,14804.4
1014.652013,15341.8
1018.737841,15556.8
1022.81757,15097.8
1026.891209,14999.8
1030.958771,14936.8
1035.020266,15286.4
1039.075705,15019.2
1043.1251,14639.2
1047.16846,15036.2
1051.205797,15043
1055.237121,14701.4
1059.262444,14572.6
1063.281777,14409.8
1067.295131,14622.8
1071.302515,15868.2
1075.303942,15480.8
1079.299422,16464.4
1083.288966,15959.2
1087.272585,15452
1091.250289,15358.2
1095.222091,15229.4
1099.187999,14809.8
1103.148026,14961.6
1107.102183,14832.4
1111.050479,14929.6
1114.992927,14912.2
1118.929536,14745.8
1122.860318,15083.4
1126.785283,14628.2
1130.704443,14465.6
1134.617808,15378.6
1138.52539,15221.8
1142.427198,15146
1146.323244,15267.8
1150.213538,14822.4
1154.098093,15299
1157.976917,14531.6
1161.850023,14650.8
1165.717421,15172.6
1169.579121,14950.8
1173.435135,15298.8
1177.285474,14449.6
1181.130148,14688.8
1184.969169,15119.4
1188.802547,14978.4
1192.630292,14603.6
1196.452416,14385.2
1200.26893,14424.8
1204.079844,14137.2
1207.88517,13836.2
1211.684917,14551.2
1215.479098,14154.6
1219.267722,15781.2
1223.050801,14128
1226.828346,14146.4
1230.600366,14656
1234.366874,14554.2
1238.12788,14355.2
1241.883395,14339.8
1245.633429,14686.4
1249.377994,14773
1253.1171,13841
1256.850759,14314.4
1260.578981,14258.6
1264.301776,14385.6
1268.019157,14237.2
1271.731133,14039.2
1275.437715,13905.2
1279.138915,14456.6
1282.834743,14691
1286.52521,14090.6
1290.210328,13923.4
1293.890106,14171.6
1297.564555,14725.4
1301.233688,14107
1304.897514,14433
1308.556044,14495.8
1312.209289,14527
1315.857261,13868.8
1319.499969,14128.4
1323.137425,14991.2
1326.769641,14255.2
1330.396626,14918.4
1334.018391,14326.6
1337.634948,14465.2
1341.246307,14131.2
1344.85248,14051.6
1348.453477,13988.4
1352.049309,13919.4
1355.639987,14065.4
1359.225522,14714.2
1362.805925,14233.2
1366.381207,14193.2
1369.951379,14190.2
1373.516452,14406.4
1377.076436,14589.8
1380.631343,14322.6
1384.181184,14057.4
1387.725969,14230.8
1391.26571,14003.4
1394.800417,13836.8
1398.330102,14035
1401.854776,14173
1405.374448,14104.4
1408.889132,13747
1412.398837,13255.8
1415.903574,13693
1419.403355,14362.8
1422.89819,13830.8
1426.388091,13804.6
1429.873069,14271.2
1433.353134,13813.6
1436.828298,13808.8
1440.298571,14067.6
1443.763965,13648.2
1447.224491,13556.4
1450.68016,13536.2
1454.130983,14070.6
1457.576971,14004.2
1461.018135,14107
1464.454486,14180.2
1467.886036,13831.6
1471.312794,13801.2
1474.734774,13504.4
1478.151985,14285.8
1481.564439,13904.2
1484.972146,13832.4
1488.375119,13377.2
1491.773368,13824
1495.166904,14478.4
1498.555739,13733
1501.939883,13764.8
1505.319349,13447.2
1508.694146,13814.2
1512.064286,13824.2
1515.429781,13754.2
1518.790642,13553.2
1522.146879,13969.8
1525.498505,13349
1528.845529,13362
1532.187965,14065
1535.525822,13692.8
1538.859112,13694
1542.187846,14276.6
1545.512036,13347.4
1548.831693,14738.2
1552.146829,14092.8
1555.457453,13446.2
1558.763579,12990.6
1562.065216,13513.8
1565.362377,13863
1568.655073,14023
1571.943315,13789.4
1575.227114,13815
1578.506482,13670.6
1581.781431,14241
1585.051971,13804
1588.318114,13783
1591.579872,13928.4
1594.837255,13693.8
1598.090275,13629.6
1601.338945,13410.8
1604.583274,13856.6
1607.823275,13532.2
1611.058959,13072.2
1614.290338,13799
1617.517422,12971.2
1620.740224,13314.4
1623.958755,12970
1627.173027,12938
1630.38305,12706.8
1633.588838,13204
1636.7904,12869.6
1639.987749,13210.6
1643.180896,13258.2
1646.369853,12694.6
1649.554632,13531.2
1652.735244,12848.6
1655.9117,12474.8
1659.084013,12954
1662.252193,13525.2
1665.416254,12646
1668.576205,12876.2
1671.732059,13084.4
1674.883828,13152.2
1678.031523,12678.2
1681.175157,12824.6
1684.314739,12753.8
1687.450284,12665.4
1690.581801,12680.2
1693.709304,12470.2
1696.832803,12521.4
1699.952311,12769.2
1703.067839,12696.8
1706.179399,12728.4
1709.287003,13144.4
1712.390663,12695.2
1715.49039,12684.2
1718.586197,13061.8
1721.678095,12859.2
1724.766096,12977
1727.850213,12314.6
1730.930456,12695.4
1734.006838,12534.2
1737.079372,12819.2
1740.148067,12444.6
1743.212938,13481.8
1746.273996,12717.2
1749.331252,12724.8
1752.384718,12598
1755.434408,12698
1758.480332,12732.6
1761.522503,12727
1764.560933,12483.4
1767.595634,12184
1770.626618,13000.4
1773.653896,12841
1776.677482,12460.6
1779.697388,12426
1782.713625,13160
1785.726205,13017.4
1788.735141,12899.2
1791.740445,12491
1794.742129,12477.8
1797.740206,12966.6
1800.734687,12959.8
1803.725585,12680.4
1806.712912,12746.6
1809.69668,12361.6
1812.676902,12479.2
1815.65359,12093.2
1818.626756,12234.4
1821.596413,12477.6
1824.562573,12132.4
1827.525247,12553.8
1830.48445,12256.2
1833.440192,12465.2
1836.392487,12358.6
1839.341347,12465.2
1842.286784,12632
1845.22881,12078.6
1848.167439,12706.8
1851.102682,12481.8
1854.034553,12424.8
1856.963063,12175.4
1859.888226,13128.4
1862.810053,12538.2
1865.728557,12420.6
1868.643751,12135.4
1871.555648,12169
1874.46426,11948.4
1877.369599,12507.8
1880.271679,12411
1883.170512,12314
1886.06611,12762.4
1888.958487,12352.4
1891.847655,12330.6
1894.733626,12531.4
1897.616414,12471.8
1900.496032,12030
1903.372491,12403.8
1906.245805,12639.6
1909.115987,12774.2
1911.983049,12663.8
1914.847004,12664
1917.707866,12739.8
1920.565646,12712.4
1923.420359,12241.6
1926.272016,12496.6
1929.120631,12218.2
1931.966216,12472.2
1934.808786,12321.2
1937.648351,12637.4
1940.484927,12582
1943.318525,12584.6
1946.149158,12871.8
1948.97684,13938.6
1951.801584,12868.2
1954.623403,12670.4
1957.44231,12664.6
1960.258318,12259.6
1963.071439,12260.6
1965.881688,12458.2
1968.689078,12590.2
1971.493621,12383
