Ramanshift[cm-1],Intensity
-93.47115107,14490.6
-87.69374369,13091.4
-81.9253076,12915
-76.16582701,13057.2
-70.41528615,13163.6
-64.67366933,12722.2
-58.94096086,12801.4
-53.21714512,12910.8
-47.50220652,13150.4
-41.79612954,13212
-36.09889866,13668.8
-30.41049843,13747.8
-24.73091343,13353.2
-19.0601283,13352.2
-13.39812769,13223.4
-7.744896327,12941
-2.100418946,12783.4
3.535319659,13418.4
9.162334658,12717.6
14.78064118,13132
20.39025432,12783.4
25.99118913,12881
31.58346061,13260
37.16708375,13075.2
42.74207347,12702.8
48.30844468,12779
53.86621222,12562.6
59.41539093,12361.6
64.95599558,12286
70.48804091,12638.6
76.01154164,12797.2
81.52651243,12228.2
87.03296792,12724.6
92.5309227,13004
98.02039134,12336.8
103.5013884,12669.2
108.9739282,12405.2
114.4380255,12468.6
119.8936944,12745
125.3409495,13631.6
130.779805,12448.8
136.2102753,12145.2
141.6323747,12193.6
147.0461174,12832.2
152.4515176,12372.8
157.8485895,12301.2
163.2373472,12227.8
168.6178049,12538
173.9899766,12869.8
179.3538764,12450.8
184.7095182,12399.4
190.0569161,12697.8
195.396084,12832
200.7270358,12248.6
206.0497854,12343
211.3643466,12040
216.6707333,12329.8
221.9689593,12040.2
227.2590382,12225.8
232.5409839,12218.4
237.8148101,12058.6
243.0805303,12283.2
248.3381582,12124.2
253.5877075,12037.8
258.8291917,12209.8
264.0626244,12290.6
269.288019,12388
274.5053891,12598.2
279.7147481,12243.6
284.9161094,12044.8
290.1094865,11970.6
295.2948927,12413.2
300.4723414,13351.6
305.6418459,13575.2
310.8034194,13926
315.9570752,14768.6
321.1028267,14976.4
326.2406869,15041.8
331.370669,15146.4
336.4927863,15022.2
341.6070517,15141.6
346.7134786,14980
351.8120798,15178.6
356.9028684,14840
361.9858576,15034.4
367.0610602,15375
372.1284892,15092.2
377.1881577,15502.4
382.2400784,15615.6
387.2842644,15958.6
392.3207284,16628.4
397.3494833,16128.4
402.370542,16137
407.3839172,15455.6
412.3896217,15053.6
417.3876683,14659
422.3780697,14626.6
427.3608386,14745.6
432.3359876,15043.6
437.3035295,15194
442.2634769,15263.4
447.2158423,14556
452.1606383,14584.6
457.0978776,14833.2
462.0275727,14134.8
466.9497361,14777.2
471.8643802,14166.2
476.7715176,14607.4
481.6711608,14528.4
486.5633221,14772.4
491.448014,14598.6
496.3252488,14433.6
501.195039,14508.2
506.0573969,14868.2
510.9123349,14607.4
515.7598651,14094.2
520.6,14616.6
525.4327518,14574.8
530.2581327,14556.6
535.076155,14027
539.8868309,14462.4
544.6901726,14577.4
549.4861922,14347.6
554.2749019,15194.4
559.0563139,14253.2
563.8304402,14033.8
568.597293,15158.6
573.3568844,14880.2
578.1092263,14340.4
582.8543308,14723.8
587.5922101,14664.6
592.322876,14309.6
597.0463405,14345.4
601.7626157,14764.6
606.4717135,14242
611.1736458,14212.4
615.8684246,14388.4
620.5560617,14647.2
625.2365691,14433.6
629.9099585,14819
634.5762419,15038.8
639.2354312,14374.2
643.887538,14726.8
648.5325743,14409.4
653.1705518,14278.8
657.8014823,14583.2
662.4253775,13810.6
667.0422493,14266.6
671.6521092,14311.6
676.2549691,14504.6
680.8508407,14404.6
685.4397355,14269.6
690.0216654,14378
694.5966419,14122.2
699.1646767,14595.2
703.7257814,14327.2
708.2799676,14518.6
712.827247,14532.4
717.367631,14338
721.9011314,14395.6
726.4277595,13684.8
730.9475271,14333.6
735.4604456,14371
739.9665264,14799.4
744.4657813,14280.2
748.9582215,14365.4
753.4438587,13787.8
757.9227042,13710
762.3947696,14400.2
766.8600662,13800.2
771.3186056,15276.8
775.770399,14217.2
780.215458,14646.8
784.6537939,13929.4
789.0854181,13818.6
793.510342,13928.2
797.9285769,14679.8
802.3401342,13989.8
806.7450253,14188.6
811.1432614,14085.6
815.5348538,13872
819.9198139,13710.8
824.2981531,13872.6
828.6698824,14116.6
833.0350133,13984.8
837.393557,13658.2
841.7455248,14134
846.0909278,13842.8
850.4297774,13796.8
854.7620848,13875
859.0878611,14101.8
863.4071176,13415.4
867.7198655,14015.4
872.026116,14262
876.3258802,14738.8
880.6191693,14251.4
884.9059946,14215
889.186367,14755.2
893.4602979,13575.2
897.7277982,13510.8
901.9888793,13894
906.2435521,14381.8
910.4918277,13705.2
914.7337174,13620.8
918.9692321,13443.6
923.1983831,14216.8
927.4211813,13874.6
931.6376378,14555.4
935.8477637,13919
940.0515701,14231.6
944.249068,14212.8
948.4402684,13532.6
952.6251825,14314.8
956.8038212,13889.6
960.9761955,14551.4
965.1423166,14008.6
969.3021953,14008.4
973.4558427,14046
977.6032699,13803.8
981.7444877,13967.2
985.8795072,13973.6
990.0083394,14004.2
994.1309953,13631.2
998.2474857,14070.4
1002.357822,13217.2
1006.462014,13836
1010.560075,13647.6
1014.652013,14065.8
1018.737841,14393.8
1022.81757,13749.8
1026.891209,13661.8
1030.958771,13573.4
1035.020266,14019
1039.075705,13598.4
1043.1251,13375.8
1047.16846,13769
1051.205797,13740.8
1055.237121,13352
1059.262444,13283
1063.281777,13186.4
1067.295131,13303.8
1071.302515,14535.4
1075.303942,14225
1079.299422,15193.4
1083.288966,14768.8
1087.272585,14250
1091.250289,14019.6
1095.222091,13904.2
1099.187999,13596.6
1103.148026,13668.4
1107.102183,13632.8
1111.050479,13767.4
1114.992927,13593.6
1118.929536,13515.6
1122.860318,13778.6
1126.785283,13296.6
1130.704443,13124.8
1134.617808,14130.2
1138.52539,13895.2
1142.427198,13902.8
1146.323244,13856.6
1150.213538,13450.2
1154.098093,13986.4
1157.976917,13346.8
1161.850023,13247.6
1165.717421,13760
1169.579121,13421.2
1173.435135,13972.2
1177.285474,13045
1181.130148,13387.2
1184.969169,13753.4
1188.802547,13573.4
1192.630292,13272.4
1196.452416,13048.6
1200.26893,13089
1204.079844,12847.2
1207.88517,12529.8
1211.684917,13094.8
1215.479098,12744
1219.267722,14389.2
1223.050801,12883.8
1226.828346,12855
1230.600366,13240.2
1234.366874,13150.4
1238.12788,12930.2
1241.883395,12986.6
1245.633429,13437.8
1249.377994,13388.6
1253.1171,12491.2
1256.850759,13051
1260.578981,12856.2
1264.301776,13031.2
1268.019157,12826.2
1271.731133,12590.6
1275.437715,12416.8
1279.138915,13142.6
1282.834743,13280.4
1286.52521,12773.6
1290.210328,12619.8
1293.890106,12827.6
1297.564555,13369.6
1301.233688,12666
1304.897514,13032
1308.556044,13086.6
1312.209289,13112.2
1315.857261,12595.6
1319.499969,12606.4
1323.137425,13526
1326.769641,13028.8
1330.396626,13563
1334.018391,13004.4
1337.634948,13044.4
1341.246307,12814.4
1344.85248,12754.8
1348.453477,12620.2
1352.049309,12642.4
1355.639987,12711.8
1359.225522,13277
1362.805925,12911.8
1366.381207,12887.2
1369.951379,12947.4
1373.516452,13067.2
1377.076436,13218.4
1380.631343,12961
1384.181184,12807.2
1387.725969,12926.6
1391.26571,12590.2
1394.800417,12545.4
1398.330102,12824
1401.854776,12948.2
1405.374448,12881
1408.889132,12390.4
1412.398837,12044.4
1415.903574,12515
1419.403355,13029
1422.89819,12623.8
1426.388091,12531.4
1429.873069,13102.4
1433.353134,12482.2
1436.828298,12582.4
1440.298571,12735.4
1443.763965,12517.4
1447.224491,12426.4
1450.68016,12382.4
1454.130983,12874
1457.576971,12792.8
1461.018135,12966.8
1464.454486,13124.6
1467.886036,12494.6
1471.312794,12692.8
1474.734774,12279.8
1478.151985,13103
1481.564439,12804
1484.972146,12737.8
1488.375119,12290.8
1491.773368,12821
1495.166904,13324.2
1498.555739,12639.2
1501.939883,12709.2
1505.319349,12282.4
1508.694146,12543.2
1512.064286,12658.6
1515.429781,12650.4
1518.790642,12492.4
1522.146879,12834.8
1525.498505,12263
1528.845529,12241
1532.187965,12948.2
1535.525822,12560.6
1538.859112,12600.6
1542.187846,13120
1545.512036,12179.6
1548.831693,13537
1552.146829,12992.2
1555.457453,12414.4
1558.763579,11928.8
1562.065216,12358
1565.362377,12720.8
1568.655073,13017
1571.943315,12687.2
1575.227114,12688.8
1578.506482,12658.2
1581.781431,13316.2
1585.051971,13024.6
1588.318114,13074.6
1591.579872,13017.2
1594.837255,12794.2
1598.090275,12572.6
1601.338945,12502.4
1604.583274,12930.4
1607.823275,12511
1611.058959,11983
1614.290338,12827.2
1617.517422,11967.6
1620.740224,12449.8
1623.958755,12026.8
1627.173027,12189.6
1630.38305,11850.6
1633.588838,12340.6
1636.7904,12049.4
1639.987749,12366.8
1643.180896,12463.2
1646.369853,11852.8
1649.554632,12759
1652.735244,12081.4
1655.9117,11712
1659.084013,12083
1662.252193,12768.8
1665.416254,11807.6
1668.576205,12223
1671.732059,12513.8
1674.883828,12460
1678.031523,11959.6
1681.175157,12068.4
1684.314739,12131
1687.450284,12098.8
1690.581801,11935.2
1693.709304,11823.4
1696.832803,11792
1699.952311,12195.8
1703.067839,12076
1706.179399,12112.6
1709.287003,12470
1712.390663,12038
1715.49039,12171.8
1718.586197,12526.8
1721.678095,12267.4
1724.766096,12318.6
1727.850213,11715.4
1730.930456,12106.4
1734.006838,11805.2
1737.079372,12357.8
1740.148067,11840
1743.212938,12878.4
1746.273996,12016.6
1749.331252,12106.6
1752.384718,11984.6
1755.434408,12077.6
1758.480332,12159.8
1761.522503,12103.4
1764.560933,11888.6
1767.595634,11645.4
1770.626618,12347.2
1773.653896,12372.6
1776.677482,11990.4
1779.697388,11980.2
1782.713625,12533.2
1785.726205,12439.4
1788.735141,12418
1791.740445,11992.8
1794.742129,11988.6
1797.740206,12368.8
1800.734687,12430.8
1803.725585,12162.2
1806.712912,12213.6
1809.69668,11905.4
1812.676902,12010
1815.65359,11699.2
1818.626756,11731.6
1821.596413,11914.8
1824.562573,11641.6
1827.525247,12018.6
1830.48445,11788
1833.440192,11942.4
1836.392487,11856.4
1839.341347,12050.6
1842.286784,12022.2
1845.22881,11542
1848.167439,12112.4
1851.102682,11857.6
1854.034553,11906.8
1856.963063,11713.6
1859.888226,12626.4
1862.810053,12090.2
1865.728557,11861.8
1868.643751,11691.8
1871.555648,11688.6
1874.46426,11352.8
1877.369599,12043.2
1880.271679,11811.4
1883.170512,11678
1886.06611,12256.8
1888.958487,11938.4
1891.847655,11962
1894.733626,12041.8
1897.616414,12180.2
1900.496032,11650.6
1903.372491,11952.4
1906.245805,12228.2
1909.115987,12341.4
1911.983049,12268.6
1914.847004,12095.2
1917.707866,12316.4
1920.565646,12185.2
1923.420359,11824.4
1926.272016,12053.8
1929.120631,11794.8
1931.966216,11989
1934.808786,11911
1937.648351,12178
1940.484927,12108.6
1943.318525,12201.6
1946.149158,12420.2
1948.97684,13537
1951.801584,12387.4
1954.623403,12154.2
1957.44231,12316.6
1960.258318,11877.2
1963.071439,11884.4
1965.881688,11993.8
1968.689078,12249.8
1971.493621,11993.8
