Ramanshift[cm-1],Intensity
-93.47115107,14458.6
-87.69374369,13161.6
-81.9253076,12913.6
-76.16582701,13028.4
-70.41528615,13102.8
-64.67366933,12757.2
-58.94096086,12747.6
-53.21714512,12946.8
-47.50220652,13128.6
-41.79612954,13232.6
-36.09889866,13636
-30.41049843,13731
-24.73091343,13342.6
-19.0601283,13389
-13.39812769,13103.2
-7.744896327,12894.4
-2.100418946,12704.8
3.535319659,13453.6
9.162334658,12770.6
14.78064118,13078.2
20.39025432,12736.8
25.99118913,12847.8
31.58346061,13341.8
37.16708375,13090.8
42.74207347,12715
48.30844468,12727.8
53.86621222,12607.2
59.41539093,12388.2
64.95599558,12289.6
70.48804091,12691.8
76.01154164,12801
81.52651243,12205.2
87.03296792,12718
92.5309227,12952.8
98.02039134,12345.4
103.5013884,12604
108.9739282,12464.2
114.4380255,12406.6
119.8936944,12667.4
125.3409495,13588.6
130.779805,12460.4
136.2102753,12039.4
141.6323747,12171.8
147.0461174,12914
152.4515176,12338.8
157.8485895,12371.2
163.2373472,12249.6
168.6178049,12639
173.9899766,12868.6
179.3538764,12326.8
184.7095182,12373.6
190.0569161,12633
195.396084,12776.4
200.7270358,12190.4
206.0497854,12361
211.3643466,12065.8
216.6707333,12317.4
221.9689593,11954.8
227.2590382,12272.8
232.5409839,12147.2
237.8148101,12097.4
243.0805303,12175.8
248.3381582,12273.2
253.5877075,12152.2
258.8291917,12188
264.0626244,12259.8
269.288019,12441.8
274.5053891,12606
279.7147481,12104.6
284.9161094,11975.8
290.1094865,12179.8
295.2948927,12497.6
300.4723414,13520.6
305.6418459,13696.2
310.8034194,14134
315.9570752,15154.6
321.1028267,15284.4
326.2406869,15318.8
331.370669,15443.4
336.4927863,15433.4
341.6070517,15484.4
346.7134786,15417.2
351.8120798,15603.6
356.9028684,15213
361.9858576,15462.8
367.0610602,15837.4
372.1284892,15512
377.1881577,16117.2
382.2400784,16540
387.2842644,17384.2
392.3207284,18348
397.3494833,17688.2
402.370542,17300.4
407.3839172,16250.2
412.3896217,15732
417.3876683,15024.4
422.3780697,15073.4
427.3608386,14965
432.3359876,15343.4
437.3035295,15470.4
442.2634769,15590
447.2158423,14824.6
452.1606383,14914.2
457.0978776,15237
462.0275727,14397
466.9497361,15036.2
471.8643802,14422.4
476.7715176,14861
481.6711608,14804.6
486.5633221,15104.2
491.448014,14787
496.3252488,14760.8
501.195039,14871.4
506.0573969,15151.6
510.9123349,14867.6
515.7598651,14381.4
520.6,14850.4
525.4327518,14877.2
530.2581327,14866.8
535.076155,14382.8
539.8868309,14822.4
544.6901726,15054.6
549.4861922,14707.4
554.2749019,15631.8
559.0563139,14661
563.8304402,14439.6
568.597293,15498.6
573.3568844,15138.6
578.1092263,14552.2
582.8543308,14931.2
587.5922101,14947
592.322876,14591.8
597.0463405,14712.8
601.7626157,14990.8
606.4717135,14534.6
611.1736458,14593
615.8684246,14736.6
620.5560617,14875.4
625.2365691,14691.8
629.9099585,15204
634.5762419,15398.2
639.2354312,14701.8
643.887538,14979.6
648.5325743,14668.4
653.1705518,14653
657.8014823,14861.6
662.4253775,14104.4
667.0422493,14562.8
671.6521092,14569.8
676.2549691,14758
680.8508407,14667.8
685.4397355,14590.8
690.0216654,14794.4
694.5966419,14481
699.1646767,15076.4
703.7257814,14714.4
708.2799676,14919.6
712.827247,14995.4
717.367631,14637.4
721.9011314,14590.4
726.4277595,13939.8
730.9475271,14694
735.4604456,14570.6
739.9665264,15065.6
744.4657813,14678.6
748.9582215,14658.6
753.4438587,14167.2
757.9227042,14067.2
762.3947696,14685.2
766.8600662,14124
771.3186056,15579.2
775.770399,14565.2
780.215458,14971.8
784.6537939,14305
789.0854181,14170.6
793.510342,14223.2
797.9285769,15045.8
802.3401342,14493.8
806.7450253,14638.6
811.1432614,14546.4
815.5348538,14315.4
819.9198139,14096.8
824.2981531,14313
828.6698824,14500.8
833.0350133,14271
837.393557,14069.4
841.7455248,14353.8
846.0909278,14376.4
850.4297774,14152.8
854.7620848,14289.6
859.0878611,14454.4
863.4071176,13856.2
867.7198655,14453
872.026116,14715
876.3258802,15111.6
880.6191693,14622
884.9059946,14676.2
889.186367,15101.8
893.4602979,14008.8
897.7277982,13987.6
901.9888793,14416.4
906.2435521,14801.8
910.4918277,14123.2
914.7337174,14098.4
918.9692321,14057.4
923.1983831,14699.6
927.4211813,14287.6
931.6376378,15019.2
935.8477637,14447
940.0515701,14711
944.249068,14789
948.4402684,14026.8
952.6251825,14961.2
956.8038212,14530.6
960.9761955,15158.8
965.1423166,14678.2
969.3021953,14664
973.4558427,14581.2
977.6032699,14464
981.7444877,14444.4
985.8795072,14459.8
990.0083394,14561.4
994.1309953,14242.4
998.2474857,14639.2
1002.357822,13774
1006.462014,14418.2
1010.560075,14144.6
1014.652013,14502
1018.737841,14670.2
1022.81757,14211.8
1026.891209,14188.8
1030.958771,13895.4
1035.020266,14316.4
1039.075705,14037.8
1043.1251,13793.4
1047.16846,14115.8
1051.205797,13976
1055.237121,13754
1059.262444,13759.2
1063.281777,13457
1067.295131,13847.2
1071.302515,15262.8
1075.303942,15186.6
1079.299422,16617.8
1083.288966,15984.6
1087.272585,15223.6
1091.250289,14547.2
1095.222091,14310.6
1099.187999,13978.4
1103.148026,14059.4
1107.102183,13837.6
1111.050479,14091.6
1114.992927,13927.6
1118.929536,13723.4
1122.860318,14070.8
1126.785283,13623.6
1130.704443,13569.2
1134.617808,14442.2
1138.52539,14307.8
1142.427198,14181.6
1146.323244,14255.4
1150.213538,13974.4
1154.098093,14249.4
1157.976917,13695.4
1161.850023,13572.6
1165.717421,14216.6
1169.579121,13890.6
1173.435135,14267
1177.285474,13533
1181.130148,13858.8
1184.969169,14152
1188.802547,14025
1192.630292,13645.6
1196.452416,13241.2
1200.26893,13326.2
1204.079844,13133.2
1207.88517,12818.2
1211.684917,13462
1215.479098,13064.2
1219.267722,14632
1223.050801,13139.4
1226.828346,13257
1230.600366,13503.4
1234.366874,13424.8
1238.12788,13266.4
1241.883395,13308.6
1245.633429,13723.2
1249.377994,13727
1253.1171,12832.8
1256.850759,13294.2
1260.578981,13207.2
1264.301776,13271.6
1268.019157,13291
1271.731133,12947.6
1275.437715,12778.4
1279.138915,13449.2
1282.834743,13597.2
1286.52521,13060.6
1290.210328,12957.8
1293.890106,13087.4
1297.564555,13615.8
1301.233688,13001.6
1304.897514,13291.6
1308.556044,13419.8
1312.209289,13343
1315.857261,12908.2
1319.499969,13018.6
1323.137425,13735.8
1326.769641,13257.4
1330.396626,13942.8
1334.018391,13199
1337.634948,13385.8
1341.246307,13068
1344.85248,12978.6
1348.453477,12820.2
1352.049309,12853.8
1355.639987,12990.4
1359.225522,13519.8
1362.805925,13203.6
1366.381207,13253.2
1369.951379,13253.4
1373.516452,13379.4
1377.076436,13625.8
1380.631343,13357
1384.181184,13105
1387.725969,13381.8
1391.26571,12940.6
1394.800417,12883.8
1398.330102,13054.2
1401.854776,13231.6
1405.374448,13093.2
1408.889132,12688.4
1412.398837,12322.4
1415.903574,12707.2
1419.403355,13280.6
1422.89819,12931.8
1426.388091,12870.6
1429.873069,13433.2
1433.353134,12744.2
1436.828298,12810.2
1440.298571,13055.4
1443.763965,12774.6
1447.224491,12710.2
1450.68016,12709.4
1454.130983,13098.2
1457.576971,13045.8
1461.018135,13214.4
1464.454486,13362.2
1467.886036,12806.8
1471.312794,12977.2
1474.734774,12615.6
1478.151985,13401.4
1481.564439,13097.6
1484.972146,13114.6
1488.375119,12671.4
1491.773368,13124.6
1495.166904,13781.2
1498.555739,12888.6
1501.939883,13026
1505.319349,12606.4
1508.694146,12886.8
1512.064286,12948.6
1515.429781,12892.4
1518.790642,12715.6
1522.146879,13139.4
1525.498505,12507.4
1528.845529,12537.6
1532.187965,13199.8
1535.525822,12818.6
1538.859112,12913.6
1542.187846,13518.2
1545.512036,12592.8
1548.831693,13850.2
1552.146829,13299.4
1555.457453,12675.8
1558.763579,12192.8
1562.065216,12700.8
1565.362377,13131.2
1568.655073,13356
1571.943315,13259.6
1575.227114,13173
1578.506482,13240.6
1581.781431,13916.8
1585.051971,13579.2
1588.318114,13803.6
1591.579872,13824.6
1594.837255,13590
1598.090275,13186.6
1601.338945,12964.4
1604.583274,13312.2
1607.823275,12795
1611.058959,12450
1614.290338,13112.6
1617.517422,12289.2
1620.740224,12634
1623.958755,12417.8
1627.173027,12458.6
1630.38305,12124.2
1633.588838,12605.4
1636.7904,12385.6
1639.987749,12579
1643.180896,12670.8
1646.369853,12130
1649.554632,12993.4
1652.735244,12304.8
1655.9117,11959.6
1659.084013,12415.6
1662.252193,13014.2
1665.416254,12074.6
1668.576205,12388.2
1671.732059,12644
1674.883828,12784.8
1678.031523,12176.6
1681.175157,12433.8
1684.314739,12395.6
1687.450284,12296
1690.581801,12278.6
1693.709304,12075.6
1696.832803,12144.4
1699.952311,12289
1703.067839,12298.4
1706.179399,12374.2
1709.287003,12778.4
1712.390663,12314.8
1715.49039,12395
1718.586197,12646.2
1721.678095,12550.2
1724.766096,12628
1727.850213,12013.6
1730.930456,12395.4
1734.006838,12176.2
1737.079372,12512.6
1740.148067,12047.2
1743.212938,13231
1746.273996,12380.6
1749.331252,12318.4
1752.384718,12350
1755.434408,12359.8
1758.480332,12391.4
1761.522503,12429.4
1764.560933,12223.4
1767.595634,11932
1770.626618,12575
1773.653896,12634.2
1776.677482,12170.2
1779.697388,12247
1782.713625,12810.2
1785.726205,12702.4
1788.735141,12715.6
1791.740445,12276.4
1794.742129,12191.8
1797.740206,12664.6
1800.734687,12777.6
1803.725585,12369.2
1806.712912,12435.2
1809.69668,12181.8
1812.676902,12197.2
1815.65359,11875.4
1818.626756,12127.8
1821.596413,12158.4
1824.562573,11782
1827.525247,12177.8
1830.48445,11967.6
1833.440192,12171.8
1836.392487,12098
1839.341347,12278.6
1842.286784,12234
1845.22881,11854
1848.167439,12482.8
1851.102682,12116.4
1854.034553,12162.4
1856.963063,11852.2
1859.888226,12857
1862.810053,12402.6
1865.728557,12208.2
1868.643751,11889.8
1871.555648,12011.8
1874.46426,11635.8
1877.369599,12400.4
1880.271679,12115.6
1883.170512,11871.4
1886.06611,12502.2
1888.958487,12237.8
1891.847655,12152.8
1894.733626,12258.8
1897.616414,12302.2
1900.496032,11908.8
1903.372491,12201.8
1906.245805,12375.8
1909.115987,12507
1911.983049,12481.2
1914.847004,12360.6
1917.707866,12491.8
1920.565646,12503.6
1923.420359,11992.6
1926.272016,12236.6
1929.120631,12016.6
1931.966216,12225.6
1934.808786,12154.4
1937.648351,12329.6
1940.484927,12371.4
1943.318525,12408.6
1946.149158,12718.8
1948.97684,13663.6
1951.801584,12632
1954.623403,12430.6
1957.44231,12473.2
1960.258318,12120
1963.071439,12043.2
1965.881688,12261.2
1968.689078,12470
1971.493621,12194.2
