Ramanshift[cm-1],Intensity
-93.47115107,14569
-87.69374369,13215.8
-81.9253076,13002
-76.16582701,13150.2
-70.41528615,13194.8
-64.67366933,12959.4
-58.94096086,12826.2
-53.21714512,13095.4
-47.50220652,13164.6
-41.79612954,13354.6
-36.09889866,13663.6
-30.41049843,13746.4
-24.73091343,13423.8
-19.0601283,13532.8
-13.39812769,13223.2
-7.744896327,12952
-2.100418946,12812
3.535319659,13536.6
9.162334658,12787.2
14.78064118,13222.2
20.39025432,12854.4
25.99118913,12926.2
31.58346061,13396.8
37.16708375,13296.2
42.74207347,12842.8
48.30844468,12889.2
53.86621222,12637.6
59.41539093,12369.4
64.95599558,12313.6
70.48804091,12754.8
76.01154164,12951.6
81.52651243,12263.8
87.03296792,12784.8
92.5309227,12991
98.02039134,12470.4
103.5013884,12648.8
108.9739282,12504.2
114.4380255,12564.6
119.8936944,12759.2
125.3409495,13763.6
130.779805,12508
136.2102753,12257.2
141.6323747,12305.8
147.0461174,12914.8
152.4515176,12535.2
157.8485895,12502
163.2373472,12322
168.6178049,12652.4
173.9899766,12986.4
179.3538764,12413
184.7095182,12546.4
190.0569161,12703.4
195.396084,12952.8
200.7270358,12306
206.0497854,12396
211.3643466,12139.2
216.6707333,12579.2
221.9689593,12137.6
227.2590382,12327
232.5409839,12294
237.8148101,12211.2
243.0805303,12281.4
248.3381582,12393.4
253.5877075,12163.2
258.8291917,12381.8
264.0626244,12437.4
269.288019,12593.2
274.5053891,12742.6
279.7147481,12455
284.9161094,12372.2
290.1094865,13403.4
295.2948927,16215.8
300.4723414,22842.4
305.6418459,31341.4
310.8034194,39160.6
315.9570752,43706.6
321.1028267,45135.8
326.2406869,46060.6
331.370669,46944.2
336.4927863,47950
341.6070517,48832.8
346.7134786,49513.6
351.8120798,50295.8
356.9028684,50464.2
361.9858576,50327.2
367.0610602,50576.4
372.1284892,50232.8
377.1881577,50495
382.2400784,50785
387.2842644,51306.2
392.3207284,52327.4
397.3494833,52498
402.370542,53004.4
407.3839172,53355
412.3896217,52472.8
417.3876683,51861.2
422.3780697,51520.2
427.3608386,50970.2
432.3359876,51233.2
437.3035295,50967
442.2634769,50974
447.2158423,49753.4
452.1606383,49756.2
457.0978776,49367.8
462.0275727,48734.4
466.9497361,49030.2
471.8643802,48520.2
476.7715176,48893.6
481.6711608,48750.8
486.5633221,49180.8
491.448014,48864.6
496.3252488,48440.6
501.195039,48462.6
506.0573969,48823.8
510.9123349,48254.6
515.7598651,47691
520.6,47939
525.4327518,47607.4
530.2581327,47548
535.076155,46518
539.8868309,46931.4
544.6901726,46722.4
549.4861922,46356.8
554.2749019,47096.2
559.0563139,46485
563.8304402,46219.4
568.597293,47059.2
573.3568844,46851.6
578.1092263,46224.8
582.8543308,46791
587.5922101,46939
592.322876,46353
597.0463405,46453.4
601.7626157,46917
606.4717135,46461.2
611.1736458,46286
615.8684246,46120.2
620.5560617,46461.4
625.2365691,45928
629.9099585,46293
634.5762419,46374
639.2354312,45795.4
643.887538,45540
648.5325743,45170
653.1705518,45203.2
657.8014823,45054.4
662.4253775,44156
667.0422493,44724.4
671.6521092,44471.8
676.2549691,44595.4
680.8508407,44508.6
685.4397355,44413
690.0216654,44444.6
694.5966419,44172.2
699.1646767,44867.6
703.7257814,44745.8
708.2799676,44687.6
712.827247,45093.2
717.367631,44866.6
721.9011314,44627.2
726.4277595,43547.4
730.9475271,44003.8
735.4604456,43669.8
739.9665264,44047.8
744.4657813,43743.6
748.9582215,43298.8
753.4438587,42538
757.9227042,42239.8
762.3947696,42539
766.8600662,41642.4
771.3186056,43205.8
775.770399,41932.2
780.215458,41963.2
784.6537939,41162
789.0854181,40935
793.510342,40866
797.9285769,41247.8
802.3401342,40868.8
806.7450253,41025.6
811.1432614,41033.2
815.5348538,40678.8
819.9198139,40276.6
824.2981531,40401.2
828.6698824,40409.2
833.0350133,39710.6
837.393557,39463.6
841.7455248,39778.8
846.0909278,39271.6
850.4297774,39551.4
854.7620848,39180.4
859.0878611,39551.2
863.4071176,38817.8
867.7198655,39397.6
872.026116,39584
876.3258802,39986.2
880.6191693,39401.4
884.9059946,39126
889.186367,39242.6
893.4602979,38055.4
897.7277982,37800.6
901.9888793,38446.2
906.2435521,39197
910.4918277,38607.8
914.7337174,38524.8
918.9692321,38409.6
923.1983831,39169.2
927.4211813,38618.2
931.6376378,39537.8
935.8477637,39086.6
940.0515701,39360
944.249068,39725
948.4402684,38646
952.6251825,39383.4
956.8038212,39228.8
960.9761955,39746.6
965.1423166,39302.4
969.3021953,39247.4
973.4558427,39358.8
977.6032699,39117
981.7444877,39084.6
985.8795072,39169.2
990.0083394,39039.8
994.1309953,38589.8
998.2474857,39507
1002.357822,39208.8
1006.462014,40595.2
1010.560075,40533
1014.652013,40483.4
1018.737841,40223
1022.81757,39325
1026.891209,38935
1030.958771,38749.2
1035.020266,39017.8
1039.075705,38966.4
1043.1251,38763
1047.16846,39173
1051.205797,39546.8
1055.237121,39611
1059.262444,40522.8
1063.281777,41629.6
1067.295131,43960.4
1071.302515,47589.6
1075.303942,48453.4
1079.299422,49680.4
1083.288966,47794.8
1087.272585,45115
1091.250289,42730
1095.222091,41280.8
1099.187999,39741.4
1103.148026,39924.2
1107.102183,39602
1111.050479,39613
1114.992927,39617.2
1118.929536,39595.4
1122.860318,40299
1126.785283,40603
1130.704443,41570.8
1134.617808,44229.2
1138.52539,45599.6
1142.427198,46286.8
1146.323244,45636.8
1150.213538,43721.8
1154.098093,43177.8
1157.976917,41965.4
1161.850023,42094
1165.717421,43121.8
1169.579121,43322
1173.435135,44318.6
1177.285474,42963
1181.130148,42935
1184.969169,42730.6
1188.802547,42044.2
1192.630292,41006.4
1196.452416,39926.8
1200.26893,39709.4
1204.079844,39256
1207.88517,38628.2
1211.684917,39381.4
1215.479098,38725
1219.267722,40614.2
1223.050801,38730
1226.828346,38712.6
1230.600366,38912.4
1234.366874,38687.2
1238.12788,38341.2
1241.883395,38527.4
1245.633429,38433.2
1249.377994,38420.2
1253.1171,37809.8
1256.850759,37898
1260.578981,37727
1264.301776,37964
1268.019157,37790.6
1271.731133,37422
1275.437715,37148.2
1279.138915,37619
1282.834743,37958.2
1286.52521,37348
1290.210328,37265.8
1293.890106,37388.2
1297.564555,38162.2
1301.233688,37461.2
1304.897514,37899.4
1308.556044,38081.4
1312.209289,38214.8
1315.857261,37624
1319.499969,37720.6
1323.137425,38618.2
1326.769641,38086.4
1330.396626,38668.6
1334.018391,38135.4
1337.634948,38227
1341.246307,37719.6
1344.85248,37525
1348.453477,37451.2
1352.049309,37401.4
1355.639987,37336
1359.225522,37887.8
1362.805925,37313.6
1366.381207,37227.6
1369.951379,37480.8
1373.516452,37676.2
1377.076436,37919.4
1380.631343,37948.4
1384.181184,37923
1387.725969,38784.8
1391.26571,39173.2
1394.800417,38876
1398.330102,38206.8
1401.854776,37818
1405.374448,36651.4
1408.889132,36063.4
1412.398837,35313.4
1415.903574,35777.4
1419.403355,36518.8
1422.89819,36287.4
1426.388091,37035.8
1429.873069,38838.6
1433.353134,38731.6
1436.828298,39039.8
1440.298571,38839.2
1443.763965,37825.2
1447.224491,37168
1450.68016,36210.6
1454.130983,36036.8
1457.576971,35324.8
1461.018135,35411.6
1464.454486,35134
1467.886036,34676.8
1471.312794,34884.2
1474.734774,34663.8
1478.151985,34930.8
1481.564439,34545.2
1484.972146,34062.2
1488.375119,33636.2
1491.773368,34025.2
1495.166904,34580.2
1498.555739,33876.8
1501.939883,34034.2
1505.319349,33389.2
1508.694146,33839.4
1512.064286,34007.6
1515.429781,33905
1518.790642,33764.6
1522.146879,34088.4
1525.498505,33493.6
1528.845529,33429.2
1532.187965,34484.6
1535.525822,34140.8
1538.859112,34465.4
1542.187846,34980.2
1545.512036,34372.8
1548.831693,35881.6
1552.146829,35739.6
1555.457453,35181.8
1558.763579,34796.8
1562.065216,35569.6
1565.362377,35854.8
1568.655073,36064.6
1571.943315,36019
1575.227114,35662.2
1578.506482,35406.2
1581.781431,35455.2
1585.051971,34716.2
1588.318114,34254.8
1591.579872,33756
1594.837255,32781.4
1598.090275,31893.2
1601.338945,30856.6
1604.583274,30575
1607.823275,29576.8
1611.058959,28776.8
1614.290338,29138.6
1617.517422,28242.8
1620.740224,28183.8
1623.958755,27584.8
1627.173027,27237
1630.38305,26671.8
1633.588838,26571.6
1636.7904,26309.4
1639.987749,26154
1643.180896,26132.2
1646.369853,25116.4
1649.554632,25812.6
1652.735244,24880
1655.9117,24444.2
1659.084013,24482.8
1662.252193,25171.6
1665.416254,23982.2
1668.576205,24083.8
1671.732059,24110.8
1674.883828,24314
1678.031523,23568
1681.175157,23666
1684.314739,23555.4
1687.450284,23316.4
1690.581801,23033.4
1693.709304,22982.2
1696.832803,22804.6
1699.952311,22970.8
1703.067839,22973.4
1706.179399,22843
1709.287003,23243.6
1712.390663,22622.2
1715.49039,22667
1718.586197,22808.6
1721.678095,22653.4
1724.766096,22565.2
1727.850213,22073
1730.930456,22083.2
1734.006838,22013.6
1737.079372,22248
1740.148067,21636
1743.212938,22563.4
1746.273996,21649
1749.331252,21641.2
1752.384718,21567.8
1755.434408,21428.4
1758.480332,21404.4
1761.522503,21247.2
1764.560933,20949.6
1767.595634,20618.4
1770.626618,21310.8
1773.653896,21320.8
1776.677482,20729.8
1779.697388,20810.8
1782.713625,21280
1785.726205,21153.2
1788.735141,21101.8
1791.740445,20612.6
1794.742129,20517.4
1797.740206,20928
1800.734687,21053.4
1803.725585,20844.8
1806.712912,20625.6
1809.69668,20400.6
1812.676902,20549.4
1815.65359,20003.8
1818.626756,20169
1821.596413,20298.8
1824.562573,19932.4
1827.525247,20356.4
1830.48445,20081.2
1833.440192,20268.8
1836.392487,19968.6
1839.341347,20188.2
1842.286784,20055.8
1845.22881,19611.2
1848.167439,20253
1851.102682,19957.4
1854.034553,19911.2
1856.963063,19577.6
1859.888226,20437.8
1862.810053,19908.6
1865.728557,19726.4
1868.643751,19404.4
1871.555648,19444.4
1874.46426,19049.4
1877.369599,19850.8
1880.271679,19528.4
1883.170512,19433.4
1886.06611,19728.6
1888.958487,19520
1891.847655,19303.2
1894.733626,19438.8
1897.616414,19653
1900.496032,18991.6
1903.372491,19367.4
1906.245805,19388.2
1909.115987,19555
1911.983049,19443.8
1914.847004,19320.6
1917.707866,19507.2
1920.565646,19277.4
1923.420359,18901.2
1926.272016,19077.2
1929.120631,18951.4
1931.966216,18837.6
1934.808786,18870.4
1937.648351,19046.6
1940.484927,19059.8
1943.318525,18952
1946.149158,19327.4
1948.97684,20404.6
1951.801584,18994
1954.623403,18919.8
1957.44231,18948.6
1960.258318,18408.2
1963.071439,18373.2
1965.881688,18669.4
1968.689078,18763.2
1971.493621,18451.2
