Ramanshift[cm-1],Intensity
-93.47115107,14510.4
-87.69374369,13112
-81.9253076,12928.2
-76.16582701,13042
-70.41528615,13080.2
-64.67366933,12832.2
-58.94096086,12848.2
-53.21714512,12984
-47.50220652,13185
-41.79612954,13160
-36.09889866,13664
-30.41049843,13743.6
-24.73091343,13319.8
-19.0601283,13398.4
-13.39812769,13179.8
-7.744896327,12912
-2.100418946,12771.8
3.535319659,13433.8
9.162334658,12727.8
14.78064118,13144.4
20.39025432,12728.4
25.99118913,12864
31.58346061,13406.8
37.16708375,13072.6
42.74207347,12770.8
48.30844468,12859.8
53.86621222,12689.8
59.41539093,12295.6
64.95599558,12305.8
70.48804091,12677
76.01154164,12805.6
81.52651243,12118
87.03296792,12704.2
92.5309227,12965.4
98.02039134,12358.4
103.5013884,12681.6
108.9739282,12462.8
114.4380255,12464.4
119.8936944,12697.2
125.3409495,13653
130.779805,12453.4
136.2102753,12130.4
141.6323747,12279.2
147.0461174,12883.2
152.4515176,12459.6
157.8485895,12369.2
163.2373472,12293.6
168.6178049,12527
173.9899766,12827.2
179.3538764,12347.6
184.7095182,12547.2
190.0569161,12639
195.396084,12812.4
200.7270358,12321.2
206.0497854,12407.6
211.3643466,12028.6
216.6707333,12458.8
221.9689593,12053.2
227.2590382,12301.4
232.5409839,12285.4
237.8148101,12197
243.0805303,12265
248.3381582,12134.4
253.5877075,12048.2
258.8291917,12171.6
264.0626244,12319.8
269.288019,12518.8
274.5053891,12581.6
279.7147481,12345.2
284.9161094,12160.8
290.1094865,12623.8
295.2948927,14022.6
300.4723414,17354.4
305.6418459,20962
310.8034194,24258
315.9570752,26632.4
321.1028267,27157.6
326.2406869,27408.2
331.370669,27780
336.4927863,28292.2
341.6070517,28623.6
346.7134786,29056.4
351.8120798,29364.6
356.9028684,29224.6
361.9858576,29117.8
367.0610602,29418.2
372.1284892,29038
377.1881577,29670.8
382.2400784,30029.2
387.2842644,30862
392.3207284,31578.6
397.3494833,31070.8
402.370542,30765.6
407.3839172,29932
412.3896217,29160.8
417.3876683,28586.8
422.3780697,28542.6
427.3608386,28268.2
432.3359876,28591.4
437.3035295,28569.2
442.2634769,28451.4
447.2158423,27601.6
452.1606383,27760.6
457.0978776,27810.4
462.0275727,27075.8
466.9497361,27817.4
471.8643802,27103
476.7715176,27776.4
481.6711608,28072
486.5633221,28374.6
491.448014,27886.6
496.3252488,27610.8
501.195039,27551.8
506.0573969,27973.4
510.9123349,27340.4
515.7598651,26708.6
520.6,27208
525.4327518,27013.8
530.2581327,27063
535.076155,26590.4
539.8868309,26933.2
544.6901726,26880.6
549.4861922,26462.2
554.2749019,27407.6
559.0563139,26205
563.8304402,26087.2
568.597293,27136.2
573.3568844,26770.4
578.1092263,26077
582.8543308,26609.8
587.5922101,26656.2
592.322876,26477.2
597.0463405,26436.2
601.7626157,26610.8
606.4717135,26037.4
611.1736458,26122.4
615.8684246,26105.6
620.5560617,26430.8
625.2365691,26193.6
629.9099585,26575.2
634.5762419,26521.8
639.2354312,25880.8
643.887538,26100.6
648.5325743,25774.4
653.1705518,25618.4
657.8014823,25908.8
662.4253775,25178
667.0422493,25597
671.6521092,25492.8
676.2549691,25563.6
680.8508407,25632.6
685.4397355,25352.6
690.0216654,25557.4
694.5966419,25185.4
699.1646767,25873.6
703.7257814,25719.6
708.2799676,25714.2
712.827247,26119
717.367631,25636.2
721.9011314,25673.4
726.4277595,24860.6
730.9475271,25442.4
735.4604456,25227.6
739.9665264,25583
744.4657813,25177.8
748.9582215,24991
753.4438587,24566
757.9227042,24217
762.3947696,24719.8
766.8600662,23939
771.3186056,25373.6
775.770399,24150.4
780.215458,24415
784.6537939,23686.8
789.0854181,23706.2
793.510342,23692.4
797.9285769,24243.4
802.3401342,23530.8
806.7450253,23690.8
811.1432614,23415.6
815.5348538,23285.2
819.9198139,22916.8
824.2981531,22955
828.6698824,23046.2
833.0350133,22640.6
837.393557,22418.6
841.7455248,22775.2
846.0909278,22454.6
850.4297774,22605.4
854.7620848,22506.4
859.0878611,22740.6
863.4071176,22068.8
867.7198655,22709.4
872.026116,22985.8
876.3258802,23430
880.6191693,22800
884.9059946,22839
889.186367,23365
893.4602979,21907
897.7277982,21993.2
901.9888793,22494.6
906.2435521,22913.2
910.4918277,22353.6
914.7337174,22362.2
918.9692321,22275.8
923.1983831,22901.6
927.4211813,22592.4
931.6376378,23235.2
935.8477637,22767.8
940.0515701,22991.8
944.249068,22884.4
948.4402684,22184.6
952.6251825,22981
956.8038212,22745.4
960.9761955,23456.2
965.1423166,22778.8
969.3021953,22650.2
973.4558427,22793.6
977.6032699,22637.2
981.7444877,22820.6
985.8795072,22792.4
990.0083394,22892.8
994.1309953,22567.4
998.2474857,22854
1002.357822,22095
1006.462014,22753.6
1010.560075,22568.6
1014.652013,22714
1018.737841,22935.8
1022.81757,22484.4
1026.891209,22290.6
1030.958771,21988.4
1035.020266,22544.6
1039.075705,22315
1043.1251,22085.2
1047.16846,22437.2
1051.205797,22392.2
1055.237121,22255.8
1059.262444,22906.6
1063.281777,23381.4
1067.295131,24664.6
1071.302515,26687.2
1075.303942,26403.2
1079.299422,26741.8
1083.288966,25213.6
1087.272585,23931.4
1091.250289,23073.6
1095.222091,22898.2
1099.187999,22377
1103.148026,22621.2
1107.102183,22486.6
1111.050479,22572.6
1114.992927,22533.6
1118.929536,22481
1122.860318,23254.8
1126.785283,23225.4
1130.704443,24141.8
1134.617808,25932.4
1138.52539,26323.6
1142.427198,26001.2
1146.323244,24943.6
1150.213538,23807.6
1154.098093,23654.4
1157.976917,22739
1161.850023,22602.4
1165.717421,23111
1169.579121,22752.4
1173.435135,23311.6
1177.285474,22470.2
1181.130148,22780
1184.969169,23239
1188.802547,23173
1192.630292,22673
1196.452416,22208
1200.26893,22104.4
1204.079844,21684
1207.88517,21366.2
1211.684917,22002.8
1215.479098,21595.4
1219.267722,23403.2
1223.050801,21732.2
1226.828346,21848
1230.600366,22003.2
1234.366874,22110.2
1238.12788,21963.8
1241.883395,22013.2
1245.633429,22285.8
1249.377994,22345
1253.1171,21379.8
1256.850759,21893.6
1260.578981,21779.4
1264.301776,21943.2
1268.019157,21794.6
1271.731133,21684.4
1275.437715,21487.8
1279.138915,22072.8
1282.834743,22393.6
1286.52521,21745.8
1290.210328,21776.4
1293.890106,21812.6
1297.564555,22790.4
1301.233688,22166.8
1304.897514,22665.6
1308.556044,22616
1312.209289,22516.6
1315.857261,21772.6
1319.499969,21833.2
1323.137425,22661.8
1326.769641,22031.4
1330.396626,22750
1334.018391,22026.8
1337.634948,22132.4
1341.246307,21681.6
1344.85248,21742.2
1348.453477,21762
1352.049309,21648.6
1355.639987,21922
1359.225522,22609
1362.805925,22096.6
1366.381207,22018.8
1369.951379,22069.8
1373.516452,22261
1377.076436,22660.4
1380.631343,22815.4
1384.181184,22926.8
1387.725969,23382.6
1391.26571,23000.4
1394.800417,22406
1398.330102,21763.2
1401.854776,21720.4
1405.374448,21250.4
1408.889132,20876.4
1412.398837,20572
1415.903574,21040.8
1419.403355,22129.8
1422.89819,22229.2
1426.388091,22590.6
1429.873069,23346.6
1433.353134,22606.4
1436.828298,22230.2
1440.298571,21892.4
1443.763965,21173.4
1447.224491,20716.8
1450.68016,20424
1454.130983,20734.8
1457.576971,20485.4
1461.018135,20786.8
1464.454486,20729.2
1467.886036,20356.6
1471.312794,20401.2
1474.734774,20154.6
1478.151985,20734
1481.564439,20248.8
1484.972146,19990.4
1488.375119,19484.2
1491.773368,19955.2
1495.166904,20484.2
1498.555739,19828.6
1501.939883,19915
1505.319349,19342.6
1508.694146,19667.4
1512.064286,19796.4
1515.429781,19671.2
1518.790642,19565.8
1522.146879,19855.8
1525.498505,19286.4
1528.845529,19034.6
1532.187965,19988.2
1535.525822,19502.2
1538.859112,19372.2
1542.187846,19900.4
1545.512036,19068.6
1548.831693,20433.4
1552.146829,20064
1555.457453,19404.4
1558.763579,18969
1562.065216,19489.6
1565.362377,20102.6
1568.655073,20374.6
1571.943315,20307.2
1575.227114,20279.6
1578.506482,20404.2
1581.781431,20747.6
1585.051971,20153.6
1588.318114,20002.4
1591.579872,19787.6
1594.837255,19051
1598.090275,18682.8
1601.338945,18341.6
1604.583274,18705.8
1607.823275,18223
1611.058959,17609.8
1614.290338,18371.8
1617.517422,17366.8
1620.740224,17673.6
1623.958755,17125.6
1627.173027,17093.6
1630.38305,16715
1633.588838,16994.6
1636.7904,16835.4
1639.987749,17024.8
1643.180896,17144.4
1646.369853,16285.2
1649.554632,17108.8
1652.735244,16299.4
1655.9117,15806
1659.084013,16245.8
1662.252193,16817
1665.416254,15847.2
1668.576205,16202.6
1671.732059,16312.6
1674.883828,16400.8
1678.031523,15857
1681.175157,15818
1684.314739,15855.8
1687.450284,15827
1690.581801,15580.8
1693.709304,15510.6
1696.832803,15408.6
1699.952311,15549.4
1703.067839,15556.4
1706.179399,15574.6
1709.287003,15978.2
1712.390663,15389.8
1715.49039,15479.6
1718.586197,15747
1721.678095,15613.8
1724.766096,15590.8
1727.850213,15056.8
1730.930456,15272.4
1734.006838,15095.6
1737.079372,15260.4
1740.148067,14877.2
1743.212938,15902
1746.273996,15143
1749.331252,15116.6
1752.384718,15048
1755.434408,15077.8
1758.480332,15088.8
1761.522503,15036.4
1764.560933,14741.6
1767.595634,14450.8
1770.626618,15137
1773.653896,15108.4
1776.677482,14741.2
1779.697388,14705.4
1782.713625,15304.6
1785.726205,15256.4
1788.735141,15158
1791.740445,14682.6
1794.742129,14652.2
1797.740206,15132.6
1800.734687,15185.2
1803.725585,15002
1806.712912,14802
1809.69668,14557
1812.676902,14630.4
1815.65359,14264.4
1818.626756,14283.8
1821.596413,14515.4
1824.562573,14265.6
1827.525247,14632
1830.48445,14355
1833.440192,14506.2
1836.392487,14357.8
1839.341347,14651.6
1842.286784,14572.6
1845.22881,14150.2
1848.167439,14756.6
1851.102682,14482.8
1854.034553,14462.2
1856.963063,14213
1859.888226,15075.4
1862.810053,14502.8
1865.728557,14430
1868.643751,14056.6
1871.555648,14178.4
1874.46426,13871.4
1877.369599,14506.6
1880.271679,14277.2
1883.170512,14018.8
1886.06611,14550.2
1888.958487,14225.2
1891.847655,14229.2
1894.733626,14420.8
1897.616414,14447.6
1900.496032,13947.2
1903.372491,14311
1906.245805,14523.8
1909.115987,14601.6
1911.983049,14504.6
1914.847004,14323
1917.707866,14580.8
1920.565646,14530.8
1923.420359,14007.4
1926.272016,14239.6
1929.120631,13998.8
1931.966216,14158.6
1934.808786,14135.6
1937.648351,14367.2
1940.484927,14203.6
1943.318525,14420.2
1946.149158,14539
1948.97684,15709
1951.801584,14540.4
1954.623403,14336
1957.44231,14442.2
1960.258318,13818.2
1963.071439,13962
1965.881688,14078.2
1968.689078,14278
1971.493621,13922
