Ramanshift[cm-1],Intensity
-93.47115107,14491
-87.69374369,13156.6
-81.9253076,12952.4
-76.16582701,13097.8
-70.41528615,13235.6
-64.67366933,12895.2
-58.94096086,12932.8
-53.21714512,13037
-47.50220652,13178.8
-41.79612954,13213.4
-36.09889866,13666.4
-30.41049843,13732.4
-24.73091343,13346.8
-19.0601283,13485.4
-13.39812769,13223.8
-7.744896327,12972.2
-2.100418946,12708.8
3.535319659,13391.6
9.162334658,12855.6
14.78064118,13109.4
20.39025432,12754.4
25.99118913,12872.2
31.58346061,13284.8
37.16708375,13111.8
42.74207347,12780.2
48.30844468,12805.2
53.86621222,12684.4
59.41539093,12361
64.95599558,12323.2
70.48804091,12718.8
76.01154164,12940.2
81.52651243,12121.4
87.03296792,12776.8
92.5309227,13147.6
98.02039134,12332.6
103.5013884,12665.2
108.9739282,12461
114.4380255,12576.8
119.8936944,12729.8
125.3409495,13746.2
130.779805,12373.4
136.2102753,12203.4
141.6323747,12210.6
147.0461174,12963.4
152.4515176,12443
157.8485895,12359.6
163.2373472,12338.4
168.6178049,12554.8
173.9899766,12878.8
179.3538764,12306
184.7095182,12518
190.0569161,12714.4
195.396084,12884
200.7270358,12150.6
206.0497854,12437.4
211.3643466,12140.6
216.6707333,12459
221.9689593,11994.2
227.2590382,12295.2
232.5409839,12278.6
237.8148101,12082.2
243.0805303,12293.4
248.3381582,12219.8
253.5877075,12067.4
258.8291917,12273.6
264.0626244,12362.8
269.288019,12557
274.5053891,12568.6
279.7147481,12253.6
284.9161094,12068
290.1094865,12239.2
295.2948927,12839.6
300.4723414,14296.6
305.6418459,15138.6
310.8034194,16150.4
315.9570752,17404.8
321.1028267,17609.8
326.2406869,17671
331.370669,17783.4
336.4927863,17766
341.6070517,17881
346.7134786,17744.8
351.8120798,18174.4
356.9028684,17781.8
361.9858576,17816.4
367.0610602,18172
372.1284892,17819.6
377.1881577,18301.8
382.2400784,18209.2
387.2842644,18276.8
392.3207284,18635.6
397.3494833,18238.8
402.370542,18434.4
407.3839172,18188.8
412.3896217,17742.6
417.3876683,17357.2
422.3780697,17469
427.3608386,17452.8
432.3359876,17897
437.3035295,17982.6
442.2634769,18034.8
447.2158423,17131.4
452.1606383,17232
457.0978776,17405.6
462.0275727,16817.2
466.9497361,17386.6
471.8643802,16789.6
476.7715176,17335
481.6711608,17287.8
486.5633221,17695.2
491.448014,17492.4
496.3252488,17429.4
501.195039,17390.8
506.0573969,17819.6
510.9123349,17349.8
515.7598651,16652
520.6,17193.6
525.4327518,17096.4
530.2581327,17038.4
535.076155,16457.2
539.8868309,16812.4
544.6901726,17039
549.4861922,16629.6
554.2749019,17631
559.0563139,16503.4
563.8304402,16381.4
568.597293,17446.8
573.3568844,17128.4
578.1092263,16618.6
582.8543308,16999.6
587.5922101,17039.8
592.322876,16673.6
597.0463405,16736.4
601.7626157,17039.2
606.4717135,16486.2
611.1736458,16587.8
615.8684246,16729.6
620.5560617,16905
625.2365691,16678.8
629.9099585,17197
634.5762419,17407.8
639.2354312,16725.8
643.887538,16992.6
648.5325743,16689.6
653.1705518,16522.8
657.8014823,16790.4
662.4253775,16240.8
667.0422493,16577
671.6521092,16604.8
676.2549691,16757.2
680.8508407,16657.4
685.4397355,16546
690.0216654,16651
694.5966419,16340.6
699.1646767,16929.8
703.7257814,16545.2
708.2799676,16733.4
712.827247,16754
717.367631,16638.6
721.9011314,16483.4
726.4277595,15883.6
730.9475271,16489.4
735.4604456,16436
739.9665264,17028.8
744.4657813,16558
748.9582215,16523.6
753.4438587,15864.2
757.9227042,15732.2
762.3947696,16297.4
766.8600662,15811
771.3186056,17257.8
775.770399,16154.8
780.215458,16480.8
784.6537939,15785.6
789.0854181,15708.4
793.510342,15710.6
797.9285769,16248
802.3401342,15679.6
806.7450253,15894.2
811.1432614,15932.2
815.5348538,15701.4
819.9198139,15372.2
824.2981531,15702.6
828.6698824,15806.8
833.0350133,15613.8
837.393557,15315.8
841.7455248,15759.6
846.0909278,15456.8
850.4297774,15508
854.7620848,15539.2
859.0878611,15732.4
863.4071176,15211.8
867.7198655,15576.6
872.026116,15842.4
876.3258802,16373.4
880.6191693,15903
884.9059946,15901.4
889.186367,16324.8
893.4602979,15172.6
897.7277982,15132
901.9888793,15425.8
906.2435521,16016.8
910.4918277,15231.4
914.7337174,15150
918.9692321,15161.2
923.1983831,15711
927.4211813,15454.6
931.6376378,16101.2
935.8477637,15545.8
940.0515701,15763
944.249068,15760
948.4402684,14888.2
952.6251825,15977.4
956.8038212,15422.8
960.9761955,16043.6
965.1423166,15543.8
969.3021953,15488.4
973.4558427,15558.4
977.6032699,15327.2
981.7444877,15374.2
985.8795072,15436.6
990.0083394,15590
994.1309953,15248
998.2474857,15562.6
1002.357822,14781.4
1006.462014,15471.8
1010.560075,15197.2
1014.652013,15484.6
1018.737841,15895.2
1022.81757,15425
1026.891209,15409.2
1030.958771,15247
1035.020266,15739
1039.075705,15337.4
1043.1251,15083.8
1047.16846,15340.8
1051.205797,15340.8
1055.237121,15010.6
1059.262444,14991.4
1063.281777,14819.6
1067.295131,15112.8
1071.302515,16289
1075.303942,15913.4
1079.299422,16925
1083.288966,16339.2
1087.272585,15585.4
1091.250289,15706.6
1095.222091,15601.8
1099.187999,15166
1103.148026,15242
1107.102183,15104.4
1111.050479,15323.8
1114.992927,15232
1118.929536,15103.8
1122.860318,15446
1126.785283,15070.2
1130.704443,15027.4
1134.617808,15998.8
1138.52539,15965.2
1142.427198,15928.6
1146.323244,16020
1150.213538,15449.4
1154.098093,15773
1157.976917,15136.4
1161.850023,14964.6
1165.717421,15551.2
1169.579121,15265.8
1173.435135,15623.4
1177.285474,14770.4
1181.130148,14939
1184.969169,15437.2
1188.802547,15394.4
1192.630292,15088.2
1196.452416,14741.4
1200.26893,14782.8
1204.079844,14494
1207.88517,14125
1211.684917,14865
1215.479098,14418
1219.267722,15969
1223.050801,14431.8
1226.828346,14525.2
1230.600366,14833.4
1234.366874,14834
1238.12788,14670.2
1241.883395,14709
1245.633429,14914.2
1249.377994,15077.4
1253.1171,14227.6
1256.850759,14665.2
1260.578981,14546.6
1264.301776,14654.4
1268.019157,14631.4
1271.731133,14416.6
1275.437715,14286
1279.138915,14797.8
1282.834743,15139.2
1286.52521,14559.6
1290.210328,14325.2
1293.890106,14609.6
1297.564555,15042.8
1301.233688,14394.6
1304.897514,14845.8
1308.556044,14912
1312.209289,15038.6
1315.857261,14425.6
1319.499969,14625.8
1323.137425,15425.4
1326.769641,14965.6
1330.396626,15691
1334.018391,14941
1337.634948,15124.2
1341.246307,14849.8
1344.85248,14688
1348.453477,14648.4
1352.049309,14643.4
1355.639987,14745.2
1359.225522,15225.8
1362.805925,14698.2
1366.381207,14906.6
1369.951379,14831
1373.516452,14876
1377.076436,15191.6
1380.631343,14993.8
1384.181184,14844.4
1387.725969,14955.8
1391.26571,14856.8
1394.800417,14604.6
1398.330102,14782
1401.854776,14944.6
1405.374448,14776
1408.889132,14356.8
1412.398837,13959.4
1415.903574,14313.6
1419.403355,14821.2
1422.89819,14518.2
1426.388091,14436.6
1429.873069,15021.6
1433.353134,14348.8
1436.828298,14430.8
1440.298571,14493.4
1443.763965,14118
1447.224491,14017.4
1450.68016,13974.4
1454.130983,14588
1457.576971,14271.6
1461.018135,14470.8
1464.454486,14556.4
1467.886036,14102.2
1471.312794,14145.2
1474.734774,13771.4
1478.151985,14606.8
1481.564439,14300.6
1484.972146,14187.2
1488.375119,13709.4
1491.773368,14069
1495.166904,14751
1498.555739,13976
1501.939883,14078.4
1505.319349,13579.6
1508.694146,14038.2
1512.064286,13967.8
1515.429781,14010.2
1518.790642,13883.4
1522.146879,14249.6
1525.498505,13715.6
1528.845529,13527
1532.187965,14237.8
1535.525822,13854.2
1538.859112,13905.4
1542.187846,14535.2
1545.512036,13435.4
1548.831693,14961.8
1552.146829,14348
1555.457453,13558
1558.763579,13267.6
1562.065216,13665
1565.362377,14138
1568.655073,14323.8
1571.943315,14089.6
1575.227114,13992
1578.506482,14107.6
1581.781431,14647
1585.051971,13986.4
1588.318114,14051
1591.579872,14065.2
1594.837255,13931.8
1598.090275,13615.8
1601.338945,13573.4
1604.583274,14053.8
1607.823275,13752.4
1611.058959,13156.8
1614.290338,13914.8
1617.517422,13138.6
1620.740224,13572.4
1623.958755,13082.6
1627.173027,13205.4
1630.38305,12758.6
1633.588838,13270.2
1636.7904,13061
1639.987749,13299.4
1643.180896,13432.2
1646.369853,12815.8
1649.554632,13601.4
1652.735244,12931
1655.9117,12648.8
1659.084013,12987.8
1662.252193,13550.4
1665.416254,12699.8
1668.576205,12905
1671.732059,13212.6
1674.883828,13175.4
1678.031523,12804.2
1681.175157,12901.6
1684.314739,12792
1687.450284,12793
1690.581801,12714.2
1693.709304,12511.6
1696.832803,12612
1699.952311,12677.2
1703.067839,12741.4
1706.179399,12717.4
1709.287003,13074.2
1712.390663,12772.2
1715.49039,12766.6
1718.586197,13111.2
1721.678095,12912.2
1724.766096,12811
1727.850213,12288.8
1730.930456,12694.4
1734.006838,12415.8
1737.079372,12734.8
1740.148067,12377.2
1743.212938,13525.4
1746.273996,12590.6
1749.331252,12525.8
1752.384718,12625.8
1755.434408,12701.2
1758.480332,12659.6
1761.522503,12658
1764.560933,12493.6
1767.595634,12253.2
1770.626618,12900
1773.653896,12954
1776.677482,12439.8
1779.697388,12461.6
1782.713625,13132.8
1785.726205,12935
1788.735141,12863.2
1791.740445,12450.6
1794.742129,12413.8
1797.740206,12920.8
1800.734687,12900.8
1803.725585,12713.4
1806.712912,12606.2
1809.69668,12290.8
1812.676902,12442.6
1815.65359,12105.8
1818.626756,12207.6
1821.596413,12529.4
1824.562573,12057.8
1827.525247,12475.8
1830.48445,12260.4
1833.440192,12315
1836.392487,12214.2
1839.341347,12603.8
1842.286784,12520
1845.22881,12102.6
1848.167439,12685.6
1851.102682,12357.4
1854.034553,12396.8
1856.963063,12176.8
1859.888226,13060.4
1862.810053,12585.4
1865.728557,12427.2
1868.643751,12126.6
1871.555648,12265.8
1874.46426,11847.2
1877.369599,12608.8
1880.271679,12327.2
1883.170512,12233
1886.06611,12701.2
1888.958487,12331.4
1891.847655,12350.4
1894.733626,12436
1897.616414,12532.4
1900.496032,12029
1903.372491,12357.6
1906.245805,12674.6
1909.115987,12683.8
1911.983049,12600.4
1914.847004,12555.2
1917.707866,12658.2
1920.565646,12632
1923.420359,12176.6
1926.272016,12444
1929.120631,12150.6
1931.966216,12443.6
1934.808786,12329
1937.648351,12584.6
1940.484927,12503.2
1943.318525,12623.4
1946.149158,12789
1948.97684,13974.2
1951.801584,12813.2
1954.623403,12642.2
1957.44231,12679.4
1960.258318,12194.4
1963.071439,12282
1965.881688,12456.4
1968.689078,12562.2
1971.493621,12363.6
