Ramanshift[cm-1],Intensity
-93.47115107,14539.8
-87.69374369,13144.4
-81.9253076,12913.8
-76.16582701,13063.6
-70.41528615,13189.2
-64.67366933,12829.4
-58.94096086,12811
-53.21714512,13094.2
-47.50220652,13264
-41.79612954,13187.4
-36.09889866,13718.2
-30.41049843,13882.4
-24.73091343,13486.2
-19.0601283,13398.6
-13.39812769,13260
-7.744896327,12944.2
-2.100418946,12836
3.535319659,13465
9.162334658,12758.4
14.78064118,13131.6
20.39025432,12785
25.99118913,12937.4
31.58346061,13324.4
37.16708375,13140.2
42.74207347,12752
48.30844468,12775.8
53.86621222,12644.4
59.41539093,12398.2
64.95599558,12304.2
70.48804091,12786.4
76.01154164,12892.8
81.52651243,12210.4
87.03296792,12734.6
92.5309227,13108.8
98.02039134,12424.2
103.5013884,12732
108.9739282,12564.8
114.4380255,12469.4
119.8936944,12739.4
125.3409495,13617.2
130.779805,12480
136.2102753,12264.2
141.6323747,12197.8
147.0461174,12820.4
152.4515176,12409
157.8485895,12428.2
163.2373472,12316
168.6178049,12754.4
173.9899766,12899.2
179.3538764,12411.4
184.7095182,12485.8
190.0569161,12790.4
195.396084,12886
200.7270358,12335.6
206.0497854,12358
211.3643466,12069.4
216.6707333,12464.6
221.9689593,12016.6
227.2590382,12154
232.5409839,12211
237.8148101,12150.8
243.0805303,12244.4
248.3381582,12216.8
253.5877075,12109
258.8291917,12201.6
264.0626244,12349.6
269.288019,12561.4
274.5053891,12731.6
279.7147481,12318
284.9161094,12082.2
290.1094865,12199.2
295.2948927,12661.2
300.4723414,13691.2
305.6418459,13959
310.8034194,14516.6
315.9570752,15461.4
321.1028267,15577.4
326.2406869,15641.2
331.370669,15905.6
336.4927863,15828.2
341.6070517,15842
346.7134786,15583.8
351.8120798,15918.2
356.9028684,15609.8
361.9858576,15807.6
367.0610602,16103.8
372.1284892,15796.2
377.1881577,16223.4
382.2400784,16286.6
387.2842644,16553.8
392.3207284,17029.4
397.3494833,16309.2
402.370542,16576.8
407.3839172,16061.6
412.3896217,15556.4
417.3876683,15206
422.3780697,15318
427.3608386,15349.4
432.3359876,15689
437.3035295,15864.2
442.2634769,15922.2
447.2158423,15268.8
452.1606383,15281
457.0978776,15511
462.0275727,14979.4
466.9497361,15520.6
471.8643802,14801.2
476.7715176,15377.2
481.6711608,15238.2
486.5633221,15479.8
491.448014,15305.2
496.3252488,15239.8
501.195039,15225.4
506.0573969,15682
510.9123349,15337
515.7598651,14864.2
520.6,15359.4
525.4327518,15257.4
530.2581327,15291.8
535.076155,14745.4
539.8868309,15238
544.6901726,15378.6
549.4861922,15005.8
554.2749019,15955.6
559.0563139,14950
563.8304402,14672.6
568.597293,15810.4
573.3568844,15487.2
578.1092263,15072.2
582.8543308,15422.2
587.5922101,15360.4
592.322876,14995
597.0463405,15175.4
601.7626157,15398
606.4717135,14926.6
611.1736458,14975.4
615.8684246,15034.8
620.5560617,15251.6
625.2365691,15088.8
629.9099585,15475.8
634.5762419,15752.2
639.2354312,15206.6
643.887538,15319.6
648.5325743,15076.2
653.1705518,14967
657.8014823,15227.4
662.4253775,14463.2
667.0422493,14979.4
671.6521092,14915
676.2549691,15185
680.8508407,15154.2
685.4397355,14815
690.0216654,15149.6
694.5966419,14865.6
699.1646767,15357.4
703.7257814,15064.6
708.2799676,15292
712.827247,15375.2
717.367631,15034
721.9011314,14941.6
726.4277595,14436.2
730.9475271,15140.2
735.4604456,15071.4
739.9665264,15579.4
744.4657813,14977.8
748.9582215,14959.4
753.4438587,14472
757.9227042,14305.2
762.3947696,15054.4
766.8600662,14493.8
771.3186056,15967
775.770399,14832.6
780.215458,15393.8
784.6537939,14530.6
789.0854181,14651.6
793.510342,14611.6
797.9285769,15245.8
802.3401342,14671.6
806.7450253,14883
811.1432614,14723
815.5348538,14541.2
819.9198139,14289.4
824.2981531,14597.4
828.6698824,14648.8
833.0350133,14493.6
837.393557,14316.8
841.7455248,14668
846.0909278,14534.8
850.4297774,14503.8
854.7620848,14401.2
859.0878611,14877.6
863.4071176,13991.2
867.7198655,14484
872.026116,14825.8
876.3258802,15354.4
880.6191693,14813.8
884.9059946,14864
889.186367,15195
893.4602979,14242.6
897.7277982,14058
901.9888793,14513.2
906.2435521,14862.2
910.4918277,14274.4
914.7337174,14263.4
918.9692321,14250.6
923.1983831,14787.8
927.4211813,14488
931.6376378,15232.4
935.8477637,14485.4
940.0515701,14795.2
944.249068,14804
948.4402684,13957.2
952.6251825,14930.6
956.8038212,14460.2
960.9761955,15123.6
965.1423166,14649.2
969.3021953,14606.2
973.4558427,14643.2
977.6032699,14464.6
981.7444877,14575.8
985.8795072,14471.6
990.0083394,14626.4
994.1309953,14177
998.2474857,14639.6
1002.357822,13812.2
1006.462014,14465.6
1010.560075,14192
1014.652013,14703.4
1018.737841,14820.6
1022.81757,14361.8
1026.891209,14248.2
1030.958771,14253.4
1035.020266,14547
1039.075705,14286.4
1043.1251,14017
1047.16846,14399.8
1051.205797,14256.6
1055.237121,13897.2
1059.262444,13956.2
1063.281777,13809.4
1067.295131,13957.4
1071.302515,15321
1075.303942,14897.6
1079.299422,15922.4
1083.288966,15232.2
1087.272585,14725.6
1091.250289,14557.4
1095.222091,14515.4
1099.187999,14138
1103.148026,14230.2
1107.102183,14047.2
1111.050479,14317.6
1114.992927,14219
1118.929536,14083.4
1122.860318,14391
1126.785283,14006.8
1130.704443,13811.8
1134.617808,14744
1138.52539,14715.4
1142.427198,14643.6
1146.323244,14672.4
1150.213538,14107.4
1154.098093,14623.2
1157.976917,14027.2
1161.850023,13850
1165.717421,14520.2
1169.579121,14201
1173.435135,14556
1177.285474,13686.2
1181.130148,13882.6
1184.969169,14384.4
1188.802547,14392
1192.630292,14003.8
1196.452416,13660.4
1200.26893,13780.2
1204.079844,13497.4
1207.88517,13056.8
1211.684917,13782.6
1215.479098,13375
1219.267722,14896.2
1223.050801,13483.4
1226.828346,13465.4
1230.600366,13841.8
1234.366874,13648.8
1238.12788,13559
1241.883395,13563
1245.633429,13917.6
1249.377994,13925.8
1253.1171,13207
1256.850759,13639.8
1260.578981,13540
1264.301776,13714.6
1268.019157,13681.2
1271.731133,13528.4
1275.437715,13347.8
1279.138915,13852.8
1282.834743,14110.8
1286.52521,13628.8
1290.210328,13420.4
1293.890106,13603.2
1297.564555,14091
1301.233688,13364.4
1304.897514,13726.8
1308.556044,13758.8
1312.209289,13798.2
1315.857261,13215.6
1319.499969,13414.2
1323.137425,14121.2
1326.769641,13579
1330.396626,14238.6
1334.018391,13617.6
1337.634948,13707.2
1341.246307,13445.8
1344.85248,13348.8
1348.453477,13275
1352.049309,13346.6
1355.639987,13319.6
1359.225522,13872.2
1362.805925,13521.2
1366.381207,13587.6
1369.951379,13637
1373.516452,13593
1377.076436,13839.8
1380.631343,13593.8
1384.181184,13453.2
1387.725969,13566.8
1391.26571,13361.2
1394.800417,13324.4
1398.330102,13351.8
1401.854776,13628.6
1405.374448,13544
1408.889132,13076
1412.398837,12830
1415.903574,13164
1419.403355,13732.6
1422.89819,13316.8
1426.388091,13391.4
1429.873069,13872.6
1433.353134,13237.8
1436.828298,13226.8
1440.298571,13454
1443.763965,13022.8
1447.224491,12916.2
1450.68016,12874.4
1454.130983,13471.4
1457.576971,13318.6
1461.018135,13431.4
1464.454486,13626.4
1467.886036,13120.4
1471.312794,13182.6
1474.734774,12816.2
1478.151985,13598
1481.564439,13401.4
1484.972146,13223
1488.375119,12974
1491.773368,13246.8
1495.166904,13831.4
1498.555739,13126.2
1501.939883,13249.6
1505.319349,12789.6
1508.694146,12979.8
1512.064286,13250.8
1515.429781,13154.4
1518.790642,12978.4
1522.146879,13306.4
1525.498505,12736.8
1528.845529,12752
1532.187965,13617.8
1535.525822,13214.4
1538.859112,13189.4
1542.187846,13794.2
1545.512036,12864.6
1548.831693,14127.4
1552.146829,13606.8
1555.457453,12867.6
1558.763579,12499.2
1562.065216,12882.4
1565.362377,13177.8
1568.655073,13473.2
1571.943315,13345.6
1575.227114,13296.8
1578.506482,13269.4
1581.781431,13772.8
1585.051971,13507.2
1588.318114,13437
1591.579872,13404.2
1594.837255,13165.4
1598.090275,12957
1601.338945,12984.4
1604.583274,13384.6
1607.823275,13049
1611.058959,12507.8
1614.290338,13357
1617.517422,12470.8
1620.740224,12940.2
1623.958755,12516.4
1627.173027,12530
1630.38305,12255.4
1633.588838,12780.6
1636.7904,12454.6
1639.987749,12755.8
1643.180896,12911.2
1646.369853,12194.4
1649.554632,13207.4
1652.735244,12517.8
1655.9117,12051
1659.084013,12505.2
1662.252193,13070.8
1665.416254,12155
1668.576205,12549
1671.732059,12825
1674.883828,12923.6
1678.031523,12362
1681.175157,12386.8
1684.314739,12393.8
1687.450284,12407.2
1690.581801,12329.4
1693.709304,12055.4
1696.832803,12160.8
1699.952311,12465.2
1703.067839,12385
1706.179399,12338.6
1709.287003,12776.2
1712.390663,12386.2
1715.49039,12444.4
1718.586197,12798.6
1721.678095,12629
1724.766096,12633.2
1727.850213,12011.8
1730.930456,12414.6
1734.006838,12170.4
1737.079372,12431.8
1740.148067,12087.8
1743.212938,13140
1746.273996,12431.2
1749.331252,12315.2
1752.384718,12370.4
1755.434408,12386
1758.480332,12429.6
1761.522503,12415.8
1764.560933,12200.2
1767.595634,11955.4
1770.626618,12631
1773.653896,12642.4
1776.677482,12228
1779.697388,12207.4
1782.713625,12757.2
1785.726205,12738.4
1788.735141,12683.2
1791.740445,12255.4
1794.742129,12246
1797.740206,12713.6
1800.734687,12676.8
1803.725585,12489.6
1806.712912,12452.6
1809.69668,12117.8
1812.676902,12235.8
1815.65359,11839.8
1818.626756,12026
1821.596413,12202.2
1824.562573,11861.2
1827.525247,12184.4
1830.48445,11992.2
1833.440192,12218.2
1836.392487,12056.8
1839.341347,12240
1842.286784,12363.4
1845.22881,11789.4
1848.167439,12450.6
1851.102682,12190
1854.034553,12268.4
1856.963063,11949
1859.888226,12836.4
1862.810053,12327.8
1865.728557,12156
1868.643751,11878.8
1871.555648,12074.6
1874.46426,11694.2
1877.369599,12328.2
1880.271679,12125.2
1883.170512,12076.4
1886.06611,12531
1888.958487,12195
1891.847655,12184.4
1894.733626,12236
1897.616414,12341
1900.496032,11857.6
1903.372491,12162.8
1906.245805,12401.6
1909.115987,12563
1911.983049,12507.4
1914.847004,12407.4
1917.707866,12471.6
1920.565646,12519.8
1923.420359,12040.8
1926.272016,12268
1929.120631,11963.2
1931.966216,12226.4
1934.808786,12143.4
1937.648351,12457.6
1940.484927,12350.6
1943.318525,12520.2
1946.149158,12594.8
1948.97684,13738.6
1951.801584,12708.2
1954.623403,12344.8
1957.44231,12501.2
1960.258318,11981.2
1963.071439,12022.4
1965.881688,12307.6
1968.689078,12442.4
1971.493621,12140.6
