Ramanshift[cm-1],Intensity
-93.47115107,14459.6
-87.69374369,13148.2
-81.9253076,12957.8
-76.16582701,13116.2
-70.41528615,13042.2
-64.67366933,12867.6
-58.94096086,12822.6
-53.21714512,13111
-47.50220652,13163.6
-41.79612954,13201.2
-36.09889866,13630.4
-30.41049843,13728.8
-24.73091343,13356.2
-19.0601283,13436.4
-13.39812769,13185.2
-7.744896327,12901
-2.100418946,12804.8
3.535319659,13461.6
9.162334658,12734.2
14.78064118,13129.8
20.39025432,12814.4
25.99118913,12915.2
31.58346061,13322
37.16708375,13092.2
42.74207347,12754.6
48.30844468,12856.8
53.86621222,12678.2
59.41539093,12307.6
64.95599558,12332.4
70.48804091,12685.8
76.01154164,12836.6
81.52651243,12268.4
87.03296792,12676
92.5309227,13037.2
98.02039134,12355
103.5013884,12667.6
108.9739282,12510.8
114.4380255,12567.2
119.8936944,12722
125.3409495,13651
130.779805,12384.4
136.2102753,12174.2
141.6323747,12296.4
147.0461174,12851.4
152.4515176,12312.2
157.8485895,12375.4
163.2373472,12246.4
168.6178049,12577.4
173.9899766,12870.8
179.3538764,12494
184.7095182,12455.6
190.0569161,12733.6
195.396084,12810.6
200.7270358,12222.2
206.0497854,12314.2
211.3643466,12074.8
216.6707333,12504.8
221.9689593,12065.6
227.2590382,12200.4
232.5409839,12324.2
237.8148101,12099.6
243.0805303,12238.2
248.3381582,12248.4
253.5877075,12048.4
258.8291917,12359
264.0626244,12212.4
269.288019,12514
274.5053891,12564.8
279.7147481,12313
284.9161094,12052
290.1094865,12377.8
295.2948927,12971.6
300.4723414,14501.4
305.6418459,15766.6
310.8034194,16922.2
315.9570752,18321
321.1028267,18607.4
326.2406869,18748.2
331.370669,18870.8
336.4927863,18981.4
341.6070517,18983
346.7134786,18879.4
351.8120798,19466
356.9028684,19040.4
361.9858576,19035.8
367.0610602,19391.4
372.1284892,19216.8
377.1881577,19461.4
382.2400784,19523.4
387.2842644,19781.8
392.3207284,20313.2
397.3494833,19743.2
402.370542,19971.2
407.3839172,19450.4
412.3896217,18972.2
417.3876683,18552.6
422.3780697,18634.4
427.3608386,18626.8
432.3359876,18980.4
437.3035295,18997
442.2634769,19223
447.2158423,18280.4
452.1606383,18404.8
457.0978776,18676.6
462.0275727,17951.8
466.9497361,18619
471.8643802,17906.6
476.7715176,18542.2
481.6711608,18454.6
486.5633221,18685.4
491.448014,18361
496.3252488,18320.2
501.195039,18407.6
506.0573969,18770.6
510.9123349,18306.6
515.7598651,17799.6
520.6,18524.4
525.4327518,18484.4
530.2581327,18362.2
535.076155,17683.6
539.8868309,18031.8
544.6901726,18228
549.4861922,17911
554.2749019,18984.6
559.0563139,17954.8
563.8304402,17564.4
568.597293,18613.8
573.3568844,18283.2
578.1092263,17783.4
582.8543308,18245.2
587.5922101,17923
592.322876,17659.4
597.0463405,17834.8
601.7626157,18181.4
606.4717135,17691.4
611.1736458,17715.4
615.8684246,17784.8
620.5560617,18056.8
625.2365691,17793
629.9099585,18283.6
634.5762419,18478.4
639.2354312,17751.8
643.887538,17997.2
648.5325743,17759
653.1705518,17584.8
657.8014823,17804.2
662.4253775,17231.2
667.0422493,17634.8
671.6521092,17608.4
676.2549691,17801
680.8508407,17715.8
685.4397355,17412.8
690.0216654,17698.4
694.5966419,17425.2
699.1646767,17955
703.7257814,17548.6
708.2799676,17818.6
712.827247,17823
717.367631,17576.2
721.9011314,17490.4
726.4277595,16897.8
730.9475271,17649.2
735.4604456,17381.8
739.9665264,17968.2
744.4657813,17435
748.9582215,17513.8
753.4438587,16910.8
757.9227042,16705
762.3947696,17317.4
766.8600662,16774.4
771.3186056,18220.4
775.770399,17280
780.215458,17473.6
784.6537939,16809
789.0854181,16691.8
793.510342,16770.8
797.9285769,17301.2
802.3401342,16752.2
806.7450253,16927.4
811.1432614,16773
815.5348538,16595.2
819.9198139,16367.4
824.2981531,16649.4
828.6698824,16747.4
833.0350133,16586
837.393557,16223.8
841.7455248,16539.8
846.0909278,16272
850.4297774,16279.4
854.7620848,16455.6
859.0878611,16570.8
863.4071176,15963.2
867.7198655,16620.4
872.026116,16838
876.3258802,17208
880.6191693,16674.4
884.9059946,16658.6
889.186367,17146
893.4602979,15949
897.7277982,15992.2
901.9888793,16431.2
906.2435521,16842.2
910.4918277,16149
914.7337174,16196.2
918.9692321,15920.8
923.1983831,16722.6
927.4211813,16360
931.6376378,17105.6
935.8477637,16488
940.0515701,16663.6
944.249068,16706.6
948.4402684,15880
952.6251825,16824.8
956.8038212,16272.8
960.9761955,17028.4
965.1423166,16459.6
969.3021953,16548.4
973.4558427,16595.8
977.6032699,16342.2
981.7444877,16497.6
985.8795072,16390.4
990.0083394,16442
994.1309953,16149.8
998.2474857,16509.4
1002.357822,15709.8
1006.462014,16390.6
1010.560075,16070
1014.652013,16479.8
1018.737841,16857.4
1022.81757,16310.6
1026.891209,16221.8
1030.958771,16057.6
1035.020266,16400.4
1039.075705,16199.8
1043.1251,16004.4
1047.16846,16210.8
1051.205797,16109.6
1055.237121,15938.4
1059.262444,15944.8
1063.281777,15851.6
1067.295131,16078
1071.302515,17603.4
1075.303942,17111.4
1079.299422,18012.6
1083.288966,17339.4
1087.272585,16797.6
1091.250289,16585.2
1095.222091,16438.4
1099.187999,16131
1103.148026,16233
1107.102183,16086.6
1111.050479,16268.8
1114.992927,16087.4
1118.929536,16015
1122.860318,16430.2
1126.785283,15976.4
1130.704443,15845.2
1134.617808,16908.6
1138.52539,16952.8
1142.427198,16795.6
1146.323244,16840.2
1150.213538,16294
1154.098093,16886.6
1157.976917,16176
1161.850023,16009.4
1165.717421,16664.6
1169.579121,16255
1173.435135,16644.8
1177.285474,15798
1181.130148,16161.2
1184.969169,16490.4
1188.802547,16368.4
1192.630292,16033.2
1196.452416,15767.8
1200.26893,15858.4
1204.079844,15679.2
1207.88517,15297
1211.684917,16005
1215.479098,15516.6
1219.267722,17101.2
1223.050801,15524.8
1226.828346,15516.2
1230.600366,15816.2
1234.366874,15684.2
1238.12788,15584.8
1241.883395,15711.8
1245.633429,16013.2
1249.377994,16012.2
1253.1171,15295.4
1256.850759,15734.4
1260.578981,15626
1264.301776,15741
1268.019157,15661.6
1271.731133,15387.8
1275.437715,15454.6
1279.138915,15864.4
1282.834743,16244.4
1286.52521,15569.4
1290.210328,15417.2
1293.890106,15510.2
1297.564555,16034.4
1301.233688,15384
1304.897514,15856.4
1308.556044,15978.2
1312.209289,16041.6
1315.857261,15304
1319.499969,15652.4
1323.137425,16478
1326.769641,15997
1330.396626,16673.4
1334.018391,16135.6
1337.634948,16254.2
1341.246307,15866.2
1344.85248,15755.2
1348.453477,15643.6
1352.049309,15598.4
1355.639987,15600.8
1359.225522,16237.4
1362.805925,15744
1366.381207,15648
1369.951379,15766.8
1373.516452,15840.2
1377.076436,16100.6
1380.631343,15954
1384.181184,15663.6
1387.725969,15876.6
1391.26571,15562.6
1394.800417,15546.4
1398.330102,15553.2
1401.854776,15820.4
1405.374448,15650.2
1408.889132,15023.8
1412.398837,14690.6
1415.903574,15044.6
1419.403355,15627.8
1422.89819,15243.4
1426.388091,15302.2
1429.873069,15896
1433.353134,15260.8
1436.828298,15276.4
1440.298571,15428.2
1443.763965,15017.4
1447.224491,14817
1450.68016,14875.8
1454.130983,15320.8
1457.576971,15155.2
1461.018135,15338.2
1464.454486,15393.2
1467.886036,14888.4
1471.312794,15001.8
1474.734774,14638.8
1478.151985,15321
1481.564439,15215.4
1484.972146,15063.4
1488.375119,14665.6
1491.773368,15012.4
1495.166904,15585.6
1498.555739,14777.4
1501.939883,14701
1505.319349,14338.2
1508.694146,14820.8
1512.064286,14801.8
1515.429781,14769.8
1518.790642,14475.6
1522.146879,14956.4
1525.498505,14417.8
1528.845529,14293
1532.187965,15003.8
1535.525822,14731
1538.859112,14741.6
1542.187846,15297
1545.512036,14416.2
1548.831693,15690
1552.146829,15162
1555.457453,14480.2
1558.763579,14029.4
1562.065216,14549
1565.362377,14909.2
1568.655073,15117.6
1571.943315,15015.4
1575.227114,14876.4
1578.506482,14834.6
1581.781431,15363.4
1585.051971,14971.8
1588.318114,15000.4
1591.579872,14940.6
1594.837255,14605.4
1598.090275,14285.6
1601.338945,14316.4
1604.583274,14643.6
1607.823275,14315.8
1611.058959,13755
1614.290338,14597
1617.517422,13581.8
1620.740224,14002
1623.958755,13633.6
1627.173027,13653
1630.38305,13223
1633.588838,13842.6
1636.7904,13504.2
1639.987749,13668.6
1643.180896,13827.2
1646.369853,13215.6
1649.554632,14065.4
1652.735244,13383.8
1655.9117,13042.2
1659.084013,13394.4
1662.252193,14031.2
1665.416254,13089.2
1668.576205,13281.2
1671.732059,13636
1674.883828,13590
1678.031523,13019.2
1681.175157,13172
1684.314739,13134.4
1687.450284,13127.6
1690.581801,13020.2
1693.709304,12786.6
1696.832803,12850.4
1699.952311,13056.4
1703.067839,13117.4
1706.179399,12961.6
1709.287003,13405.4
1712.390663,13002.4
1715.49039,13052.6
1718.586197,13281.2
1721.678095,13164.4
1724.766096,13240.6
1727.850213,12581
1730.930456,12987.4
1734.006838,12752.2
1737.079372,13001.6
1740.148067,12690.2
1743.212938,13765.6
1746.273996,12843.2
1749.331252,12827.2
1752.384718,12876.8
1755.434408,12880.4
1758.480332,12918.4
1761.522503,12904.6
1764.560933,12660.4
1767.595634,12391.2
1770.626618,13152.4
1773.653896,13111.6
1776.677482,12792.6
1779.697388,12708.2
1782.713625,13245.6
1785.726205,13206.2
1788.735141,13067
1791.740445,12662.4
1794.742129,12714.4
1797.740206,13103.4
1800.734687,13096
1803.725585,12943.8
1806.712912,12880
1809.69668,12546.4
1812.676902,12711
1815.65359,12431.2
1818.626756,12482.2
1821.596413,12659.2
1824.562573,12308.2
1827.525247,12683.4
1830.48445,12499.4
1833.440192,12689.2
1836.392487,12538.6
1839.341347,12787.2
1842.286784,12675.8
1845.22881,12313
1848.167439,12856.8
1851.102682,12584.6
1854.034553,12555.8
1856.963063,12342.4
1859.888226,13274
1862.810053,12727.2
1865.728557,12590.4
1868.643751,12314.8
1871.555648,12427.6
1874.46426,12056.2
1877.369599,12684.6
1880.271679,12451.2
1883.170512,12389
1886.06611,12906.6
1888.958487,12552.8
1891.847655,12440.6
1894.733626,12655.8
1897.616414,12827.4
1900.496032,12268.8
1903.372491,12619.2
1906.245805,12849.4
1909.115987,12895.2
1911.983049,12876
1914.847004,12686.8
1917.707866,12894
1920.565646,12848.6
1923.420359,12310.6
1926.272016,12582.4
1929.120631,12378
1931.966216,12610.8
1934.808786,12381.4
1937.648351,12754.2
1940.484927,12613.6
1943.318525,12766.4
1946.149158,13058.6
1948.97684,14098
1951.801584,13055.2
1954.623403,12790
1957.44231,12910.4
1960.258318,12374
1963.071439,12253.2
1965.881688,12651.2
1968.689078,12792.6
1971.493621,12466.4
