Ramanshift[cm-1],Intensity
-93.47115107,14486.6
-87.69374369,13134.2
-81.9253076,12923.8
-76.16582701,13022.2
-70.41528615,13186.2
-64.67366933,12765.2
-58.94096086,12841
-53.21714512,13076.6
-47.50220652,13171.2
-41.79612954,13155
-36.09889866,13651.4
-30.41049843,13691.4
-24.73091343,13356
-19.0601283,13365.2
-13.39812769,13212.8
-7.744896327,12960.2
-2.100418946,12809.2
3.535319659,13348.8
9.162334658,12758
14.78064118,13102
20.39025432,12704
25.99118913,12852.4
31.58346061,13263.4
37.16708375,13087.4
42.74207347,12744.4
48.30844468,12794.8
53.86621222,12680.4
59.41539093,12309.2
64.95599558,12256
70.48804091,12673.4
76.01154164,12832.8
81.52651243,12257
87.03296792,12754.6
92.5309227,13036.8
98.02039134,12343.8
103.5013884,12669.2
108.9739282,12580.2
114.4380255,12511.6
119.8936944,12674
125.3409495,13628.4
130.779805,12408.6
136.2102753,12154.8
141.6323747,12228.4
147.0461174,12807.8
152.4515176,12447
157.8485895,12439.2
163.2373472,12228.2
168.6178049,12686.2
173.9899766,12795.2
179.3538764,12452
184.7095182,12500
190.0569161,12630.8
195.396084,12919.4
200.7270358,12236.2
206.0497854,12327.2
211.3643466,12042.8
216.6707333,12442.8
221.9689593,12012.8
227.2590382,12162.8
232.5409839,12154.4
237.8148101,12123.4
243.0805303,12251.8
248.3381582,12234.2
253.5877075,12139.8
258.8291917,12250.8
264.0626244,12333
269.288019,12420.2
274.5053891,12616.8
279.7147481,12289.4
284.9161094,12062.8
290.1094865,12117.6
295.2948927,12415.4
300.4723414,13587
305.6418459,13861.4
310.8034194,14302.4
315.9570752,15242.6
321.1028267,15333.8
326.2406869,15475.2
331.370669,15598.6
336.4927863,15334
341.6070517,15516
346.7134786,15396.2
351.8120798,15719.6
356.9028684,15318.4
361.9858576,15394.6
367.0610602,15700
372.1284892,15363.6
377.1881577,15926
382.2400784,15871
387.2842644,16017.8
392.3207284,16520.2
397.3494833,15962.2
402.370542,16107.6
407.3839172,15495.2
412.3896217,15355.6
417.3876683,14937.8
422.3780697,15012.8
427.3608386,15192.2
432.3359876,15469
437.3035295,15642.8
442.2634769,15750
447.2158423,14996.8
452.1606383,15057.4
457.0978776,15149.4
462.0275727,14649.4
466.9497361,15179.6
471.8643802,14626.6
476.7715176,15176.4
481.6711608,14999
486.5633221,15444.8
491.448014,15101
496.3252488,14914.4
501.195039,14931.8
506.0573969,15372.2
510.9123349,15044.4
515.7598651,14499.8
520.6,14971
525.4327518,15070.8
530.2581327,15038.6
535.076155,14573.4
539.8868309,14917
544.6901726,15098.4
549.4861922,14832.6
554.2749019,15655.4
559.0563139,14735.2
563.8304402,14647
568.597293,15601.4
573.3568844,15316
578.1092263,14658.4
582.8543308,15246.2
587.5922101,15186.4
592.322876,14749.6
597.0463405,14910.4
601.7626157,15217.4
606.4717135,14660.2
611.1736458,14716
615.8684246,14848.8
620.5560617,15210.8
625.2365691,14911.2
629.9099585,15291.6
634.5762419,15445.4
639.2354312,14931
643.887538,15104.6
648.5325743,14895.2
653.1705518,14706.4
657.8014823,14953.6
662.4253775,14373.6
667.0422493,14675.4
671.6521092,14766
676.2549691,14965.8
680.8508407,14854.8
685.4397355,14667.2
690.0216654,14806
694.5966419,14515.8
699.1646767,15101.4
703.7257814,14862.4
708.2799676,14931
712.827247,15096.4
717.367631,14910.2
721.9011314,14909
726.4277595,14200.4
730.9475271,14953
735.4604456,14769.8
739.9665264,15305.8
744.4657813,14776.6
748.9582215,14825
753.4438587,14374.6
757.9227042,14275.8
762.3947696,14815.6
766.8600662,14357.2
771.3186056,15864.6
775.770399,14760.6
780.215458,15085
784.6537939,14351.4
789.0854181,14200.2
793.510342,14243
797.9285769,15021.4
802.3401342,14410
806.7450253,14605
811.1432614,14548.8
815.5348538,14357.4
819.9198139,14140.6
824.2981531,14383.2
828.6698824,14583.6
833.0350133,14406.4
837.393557,14080.6
841.7455248,14474.4
846.0909278,14315.8
850.4297774,14253.4
854.7620848,14384.4
859.0878611,14529.4
863.4071176,13876
867.7198655,14327.4
872.026116,14713.6
876.3258802,15147.4
880.6191693,14591.6
884.9059946,14644.2
889.186367,15103.4
893.4602979,13958.8
897.7277982,14015.6
901.9888793,14405.4
906.2435521,14730.8
910.4918277,14143
914.7337174,14100.4
918.9692321,13969.2
923.1983831,14606.4
927.4211813,14167.4
931.6376378,14889.6
935.8477637,14383.6
940.0515701,14546
944.249068,14589.2
948.4402684,13757.6
952.6251825,14669
956.8038212,14177.6
960.9761955,14931.4
965.1423166,14310.8
969.3021953,14379.4
973.4558427,14380.4
977.6032699,14190.4
981.7444877,14292.8
985.8795072,14336.2
990.0083394,14477.2
994.1309953,13995.6
998.2474857,14400.4
1002.357822,13584.4
1006.462014,14215
1010.560075,13934.8
1014.652013,14428.2
1018.737841,14747.4
1022.81757,14174.6
1026.891209,14126.4
1030.958771,13997
1035.020266,14395.8
1039.075705,14084.6
1043.1251,13903.2
1047.16846,14182.6
1051.205797,14011
1055.237121,13804
1059.262444,13793
1063.281777,13488.4
1067.295131,13665.6
1071.302515,14853
1075.303942,14523.4
1079.299422,15386.6
1083.288966,14771.4
1087.272585,14470
1091.250289,14305.6
1095.222091,14298.2
1099.187999,13974.2
1103.148026,14010.2
1107.102183,13939.4
1111.050479,14204.2
1114.992927,13975.8
1118.929536,13842.4
1122.860318,14263.6
1126.785283,13724.2
1130.704443,13616.6
1134.617808,14353.2
1138.52539,14239
1142.427198,14185.8
1146.323244,14354
1150.213538,13881.8
1154.098093,14355.8
1157.976917,13792.4
1161.850023,13734.4
1165.717421,14271.4
1169.579121,13935.2
1173.435135,14357.2
1177.285474,13486.6
1181.130148,13739.6
1184.969169,14123
1188.802547,14170.4
1192.630292,13694.4
1196.452416,13339.8
1200.26893,13537
1204.079844,13332.6
1207.88517,12947.6
1211.684917,13678.4
1215.479098,13260.6
1219.267722,14758
1223.050801,13299.6
1226.828346,13271.4
1230.600366,13660
1234.366874,13666.4
1238.12788,13387.4
1241.883395,13456.4
1245.633429,13830.6
1249.377994,13700
1253.1171,12924.2
1256.850759,13446.2
1260.578981,13369.6
1264.301776,13378.4
1268.019157,13364.2
1271.731133,12994.2
1275.437715,12946.2
1279.138915,13541.6
1282.834743,13722.2
1286.52521,13278.4
1290.210328,13064.4
1293.890106,13203.4
1297.564555,13844.6
1301.233688,13078.4
1304.897514,13543.8
1308.556044,13618
1312.209289,13598.4
1315.857261,13015.4
1319.499969,13175
1323.137425,14025.8
1326.769641,13417.2
1330.396626,14099.8
1334.018391,13456.6
1337.634948,13490.8
1341.246307,13267.2
1344.85248,13182.8
1348.453477,12994.2
1352.049309,13072
1355.639987,13189
1359.225522,13787.8
1362.805925,13277.4
1366.381207,13438.8
1369.951379,13452.4
1373.516452,13523.8
1377.076436,13638.6
1380.631343,13403.4
1384.181184,13281.6
1387.725969,13444.8
1391.26571,13091
1394.800417,12999.8
1398.330102,13186.8
1401.854776,13329.2
1405.374448,13271.6
1408.889132,12871.2
1412.398837,12490.4
1415.903574,12919
1419.403355,13584
1422.89819,12999
1426.388091,13031.2
1429.873069,13595.4
1433.353134,12930.4
1436.828298,12972.6
1440.298571,13151.2
1443.763965,12841.8
1447.224491,12706.6
1450.68016,12805.6
1454.130983,13269.4
1457.576971,13143
1461.018135,13331
1464.454486,13495.6
1467.886036,13013.8
1471.312794,13143.4
1474.734774,12793.6
1478.151985,13567.6
1481.564439,13197
1484.972146,13144
1488.375119,12777.4
1491.773368,13068.8
1495.166904,13840.6
1498.555739,13015.4
1501.939883,13160.6
1505.319349,12648.4
1508.694146,13067.4
1512.064286,13109
1515.429781,13013.2
1518.790642,12853.2
1522.146879,13231
1525.498505,12618.6
1528.845529,12631
1532.187965,13421.8
1535.525822,12925.4
1538.859112,12981.2
1542.187846,13621.2
1545.512036,12571.4
1548.831693,13944
1552.146829,13405.4
1555.457453,12751.2
1558.763579,12254.2
1562.065216,12843.8
1565.362377,13099.4
1568.655073,13339
1571.943315,13142.6
1575.227114,13087.2
1578.506482,13118.2
1581.781431,13581.2
1585.051971,13229.8
1588.318114,13131.8
1591.579872,13159.8
1594.837255,13017.6
1598.090275,12912.2
1601.338945,12877.8
1604.583274,13166.4
1607.823275,12905.2
1611.058959,12380.2
1614.290338,13304.4
1617.517422,12345
1620.740224,12821.4
1623.958755,12450.8
1627.173027,12654.4
1630.38305,12178.8
1633.588838,12655.4
1636.7904,12345.4
1639.987749,12742.8
1643.180896,12908.4
1646.369853,12236.6
1649.554632,13018.4
1652.735244,12416.4
1655.9117,12065
1659.084013,12432.4
1662.252193,13139.4
1665.416254,12220.8
1668.576205,12481
1671.732059,12717
1674.883828,12798.4
1678.031523,12238.8
1681.175157,12398.2
1684.314739,12443.2
1687.450284,12444.6
1690.581801,12367.6
1693.709304,12101.4
1696.832803,12242.4
1699.952311,12289.4
1703.067839,12434.8
1706.179399,12322.8
1709.287003,12876.4
1712.390663,12374.4
1715.49039,12436.4
1718.586197,12774.2
1721.678095,12615.6
1724.766096,12564.8
1727.850213,11942.4
1730.930456,12366.8
1734.006838,12200.4
1737.079372,12473.2
1740.148067,12053
1743.212938,13207
1746.273996,12418.8
1749.331252,12320.4
1752.384718,12399
1755.434408,12413
1758.480332,12419.8
1761.522503,12516.6
1764.560933,12176
1767.595634,11931
1770.626618,12616
1773.653896,12621.2
1776.677482,12353.6
1779.697388,12297.6
1782.713625,12833.8
1785.726205,12703.6
1788.735141,12687.2
1791.740445,12252.4
1794.742129,12162.8
1797.740206,12705.6
1800.734687,12737.8
1803.725585,12420.2
1806.712912,12478.2
1809.69668,12157.8
1812.676902,12211.2
1815.65359,11950.4
1818.626756,12111.4
1821.596413,12289.4
1824.562573,11939.4
1827.525247,12264.4
1830.48445,11982.6
1833.440192,12198.8
1836.392487,12078.4
1839.341347,12248.6
1842.286784,12387.8
1845.22881,11809.6
1848.167439,12455.8
1851.102682,12173
1854.034553,12234.8
1856.963063,11891
1859.888226,12946.4
1862.810053,12301
1865.728557,12212.2
1868.643751,11880
1871.555648,11992.8
1874.46426,11639.2
1877.369599,12446.4
1880.271679,12129
1883.170512,12025.4
1886.06611,12431
1888.958487,12145.2
1891.847655,12164.4
1894.733626,12304.8
1897.616414,12463.6
1900.496032,11846.6
1903.372491,12212.2
1906.245805,12461.6
1909.115987,12530.6
1911.983049,12408
1914.847004,12401.6
1917.707866,12484.4
1920.565646,12478
1923.420359,12034.2
1926.272016,12262.4
1929.120631,12000
1931.966216,12132.6
1934.808786,12212.6
1937.648351,12382.4
1940.484927,12276
1943.318525,12463
1946.149158,12623.6
1948.97684,13785.2
1951.801584,12641.2
1954.623403,12414.6
1957.44231,12613.2
1960.258318,12065.2
1963.071439,12132.6
1965.881688,12267.8
1968.689078,12385
1971.493621,12251.2
