Ramanshift[cm-1],Intensity
-93.47115107,14492.6
-87.69374369,13138.8
-81.9253076,12990.4
-76.16582701,12998.6
-70.41528615,13108.4
-64.67366933,12723.4
-58.94096086,12810.2
-53.21714512,12968.8
-47.50220652,13176.8
-41.79612954,13195.2
-36.09889866,13567.2
-30.41049843,13704.8
-24.73091343,13297.8
-19.0601283,13345
-13.39812769,13151.6
-7.744896327,12933
-2.100418946,12624.6
3.535319659,13369.6
9.162334658,12795.8
14.78064118,13085.2
20.39025432,12697.2
25.99118913,12823.8
31.58346061,13284.2
37.16708375,12998.4
42.74207347,12764.8
48.30844468,12853.2
53.86621222,12627.6
59.41539093,12171.4
64.95599558,12319.6
70.48804091,12697.6
76.01154164,12736.4
81.52651243,12191
87.03296792,12728.8
92.5309227,13019.6
98.02039134,12280.2
103.5013884,12668.8
108.9739282,12487.6
114.4380255,12533.8
119.8936944,12647
125.3409495,13565.8
130.779805,12465
136.2102753,12146.8
141.6323747,12252.2
147.0461174,12833.4
152.4515176,12403
157.8485895,12405.6
163.2373472,12192.4
168.6178049,12520.4
173.9899766,12845.4
179.3538764,12338.2
184.7095182,12401.4
190.0569161,12588.4
195.396084,12917
200.7270358,12248.8
206.0497854,12266
211.3643466,12059.2
216.6707333,12398
221.9689593,11987.8
227.2590382,12192
232.5409839,12199.4
237.8148101,12006
243.0805303,12244.6
248.3381582,12147.4
253.5877075,11972
258.8291917,12198.4
264.0626244,12274.4
269.288019,12558.4
274.5053891,12544.4
279.7147481,12264.2
284.9161094,12039.8
290.1094865,12101.2
295.2948927,12767.8
300.4723414,14095
305.6418459,14827.8
310.8034194,15909.6
315.9570752,17125.2
321.1028267,17699.6
326.2406869,17758.4
331.370669,18008
336.4927863,18144
341.6070517,18143.4
346.7134786,18036
351.8120798,18466.6
356.9028684,18069.4
361.9858576,18235
367.0610602,18708.2
372.1284892,18603.8
377.1881577,19511.2
382.2400784,20492
387.2842644,22018
392.3207284,23022
397.3494833,21696.6
402.370542,21202.2
407.3839172,19957.4
412.3896217,19094
417.3876683,18462.4
422.3780697,18296.8
427.3608386,18082
432.3359876,18437.4
437.3035295,18475.2
442.2634769,18595.6
447.2158423,17745.6
452.1606383,17656.4
457.0978776,17847.8
462.0275727,17247
466.9497361,17725
471.8643802,16996.8
476.7715176,17410
481.6711608,17490.8
486.5633221,17964
491.448014,17588.4
496.3252488,17582
501.195039,17516.4
506.0573969,17942.2
510.9123349,17425.8
515.7598651,16904.2
520.6,17411
525.4327518,17315.2
530.2581327,17221.2
535.076155,16725.6
539.8868309,17156.6
544.6901726,17202.4
549.4861922,16859.4
554.2749019,17689.8
559.0563139,16745.2
563.8304402,16409.8
568.597293,17640
573.3568844,17143
578.1092263,16766
582.8543308,17227.4
587.5922101,16989.8
592.322876,16698.4
597.0463405,16806.8
601.7626157,17141.8
606.4717135,16680.6
611.1736458,16833.6
615.8684246,16815.4
620.5560617,17144.4
625.2365691,16916.2
629.9099585,17408.2
634.5762419,17901.6
639.2354312,17210.4
643.887538,17409.4
648.5325743,17037.2
653.1705518,16752
657.8014823,16932.8
662.4253775,16301.2
667.0422493,16798.4
671.6521092,16710.4
676.2549691,16841.2
680.8508407,16906.6
685.4397355,16688.4
690.0216654,16857.6
694.5966419,16592.8
699.1646767,17223.8
703.7257814,16919.8
708.2799676,17126.6
712.827247,17251
717.367631,16983.6
721.9011314,16963.4
726.4277595,16205.4
730.9475271,16678.2
735.4604456,16633.2
739.9665264,17123.2
744.4657813,16619
748.9582215,16598.4
753.4438587,16095.6
757.9227042,16004.2
762.3947696,16432.2
766.8600662,16001
771.3186056,17398.4
775.770399,16350.2
780.215458,16879.8
784.6537939,16071.8
789.0854181,15831.8
793.510342,16021.2
797.9285769,16735
802.3401342,16231.4
806.7450253,16458.6
811.1432614,16425.8
815.5348538,16256
819.9198139,15933.4
824.2981531,16186.8
828.6698824,16233.6
833.0350133,16008.2
837.393557,15641.8
841.7455248,16039.2
846.0909278,15836.4
850.4297774,15752.2
854.7620848,15853.6
859.0878611,16104.8
863.4071176,15417.6
867.7198655,15893.2
872.026116,16206.6
876.3258802,16524.8
880.6191693,16142.6
884.9059946,16169
889.186367,16614.4
893.4602979,15471
897.7277982,15386.6
901.9888793,15841
906.2435521,16270.8
910.4918277,15725.4
914.7337174,15669.8
918.9692321,15612.8
923.1983831,16279
927.4211813,15833.6
931.6376378,16645.8
935.8477637,16024.2
940.0515701,16358.6
944.249068,16450.4
948.4402684,15590
952.6251825,16448
956.8038212,16106.4
960.9761955,16783.6
965.1423166,16226
969.3021953,16244.6
973.4558427,16327.2
977.6032699,16068.4
981.7444877,16143
985.8795072,16128.4
990.0083394,16200.6
994.1309953,16006
998.2474857,16633.4
1002.357822,16144.8
1006.462014,17073.6
1010.560075,16653
1014.652013,16721.2
1018.737841,16624.6
1022.81757,15942.2
1026.891209,15817.2
1030.958771,15708.8
1035.020266,16086.2
1039.075705,15813
1043.1251,15671
1047.16846,16064
1051.205797,16009.2
1055.237121,16015
1059.262444,16271.8
1063.281777,16670
1067.295131,18146.2
1071.302515,21305
1075.303942,22952.8
1079.299422,24912.8
1083.288966,23297.8
1087.272585,20458.8
1091.250289,18310
1095.222091,17162.6
1099.187999,16218
1103.148026,16216
1107.102183,16083.2
1111.050479,16122.2
1114.992927,16006.2
1118.929536,16013.6
1122.860318,16599.6
1126.785283,16259.4
1130.704443,16805
1134.617808,18618.6
1138.52539,19694
1142.427198,20290.4
1146.323244,20045.2
1150.213538,18641.2
1154.098093,18184.8
1157.976917,17086.2
1161.850023,16895.4
1165.717421,17803.8
1169.579121,17722.4
1173.435135,18162.2
1177.285474,17305.8
1181.130148,17484
1184.969169,17771.6
1188.802547,17397.6
1192.630292,16753
1196.452416,16156.8
1200.26893,16069.2
1204.079844,15574.2
1207.88517,15082
1211.684917,15768.4
1215.479098,15409.2
1219.267722,16888.8
1223.050801,15405
1226.828346,15455.8
1230.600366,15721
1234.366874,15746.6
1238.12788,15400.2
1241.883395,15495.6
1245.633429,15667.6
1249.377994,15776.8
1253.1171,14932.8
1256.850759,15480.8
1260.578981,15312.8
1264.301776,15375.2
1268.019157,15290.2
1271.731133,15068.8
1275.437715,14835.8
1279.138915,15505.4
1282.834743,15859.4
1286.52521,15217.2
1290.210328,15109
1293.890106,15261.8
1297.564555,15963.4
1301.233688,15334.8
1304.897514,15747.2
1308.556044,15797.4
1312.209289,15762
1315.857261,15181.4
1319.499969,15302.4
1323.137425,16186.6
1326.769641,15562.4
1330.396626,16021.4
1334.018391,15367.6
1337.634948,15603.6
1341.246307,15368.4
1344.85248,15325.2
1348.453477,15143.4
1352.049309,15224.8
1355.639987,15224.2
1359.225522,15954.4
1362.805925,15527.4
1366.381207,15569.8
1369.951379,15646.8
1373.516452,15830.2
1377.076436,15988.8
1380.631343,16120.8
1384.181184,16106.2
1387.725969,16797.4
1391.26571,16809.4
1394.800417,16534.2
1398.330102,16293.6
1401.854776,15932.6
1405.374448,15475.2
1408.889132,14800.2
1412.398837,14511.6
1415.903574,14948.2
1419.403355,15583.8
1422.89819,15615.8
1426.388091,16160.8
1429.873069,17223.2
1433.353134,17133
1436.828298,17226.2
1440.298571,17385.4
1443.763965,16672
1447.224491,16002.2
1450.68016,15596.2
1454.130983,15736
1457.576971,15333.8
1461.018135,15444.2
1464.454486,15543
1467.886036,15035.6
1471.312794,15123.4
1474.734774,14841.6
1478.151985,15671.6
1481.564439,15284.8
1484.972146,15223.4
1488.375119,14869.6
1491.773368,15271.8
1495.166904,15752
1498.555739,14960.4
1501.939883,14997.4
1505.319349,14504
1508.694146,14901
1512.064286,14907
1515.429781,14911.8
1518.790642,14731
1522.146879,15139
1525.498505,14490.8
1528.845529,14597
1532.187965,15446
1535.525822,15115.6
1538.859112,15268.4
1542.187846,16015.6
1545.512036,15160.2
1548.831693,16805
1552.146829,16293.2
1555.457453,15909.8
1558.763579,15409.2
1562.065216,16049
1565.362377,16493
1568.655073,16786.4
1571.943315,16594
1575.227114,16654.8
1578.506482,16791.2
1581.781431,17308.4
1585.051971,17037
1588.318114,17379
1591.579872,17224.2
1594.837255,16822.8
1598.090275,16085.8
1601.338945,15417
1604.583274,15430.4
1607.823275,14752
1611.058959,14099.8
1614.290338,14696.4
1617.517422,13877.8
1620.740224,14252.8
1623.958755,13740
1627.173027,13753.6
1630.38305,13339.6
1633.588838,13710
1636.7904,13429.4
1639.987749,13756.6
1643.180896,13721.6
1646.369853,13078
1649.554632,13887.4
1652.735244,13249.2
1655.9117,12860.8
1659.084013,13281.8
1662.252193,13815.4
1665.416254,12984.2
1668.576205,13144.6
1671.732059,13414.4
1674.883828,13478.2
1678.031523,12918.6
1681.175157,12994.8
1684.314739,13045.4
1687.450284,12992.2
1690.581801,12943.8
1693.709304,12642.2
1696.832803,12687.4
1699.952311,12932.2
1703.067839,12962
1706.179399,12875.6
1709.287003,13331.6
1712.390663,12853.4
1715.49039,12968.6
1718.586197,13336.4
1721.678095,13107.8
1724.766096,13162.2
1727.850213,12524.8
1730.930456,12901.8
1734.006838,12636.4
1737.079372,12993.2
1740.148067,12545.8
1743.212938,13658.6
1746.273996,12749.6
1749.331252,12795.6
1752.384718,12879.2
1755.434408,12865
1758.480332,12847
1761.522503,12873
1764.560933,12658.2
1767.595634,12258.2
1770.626618,13107.4
1773.653896,13075.4
1776.677482,12613.4
1779.697388,12682.2
1782.713625,13224.6
1785.726205,13125.6
1788.735141,13029.2
1791.740445,12606.8
1794.742129,12542
1797.740206,13105.2
1800.734687,13056.8
1803.725585,12874.8
1806.712912,12799.8
1809.69668,12453.8
1812.676902,12616.6
1815.65359,12317
1818.626756,12385.2
1821.596413,12528.8
1824.562573,12259.6
1827.525247,12594
1830.48445,12305.2
1833.440192,12522.4
1836.392487,12418.4
1839.341347,12718.2
1842.286784,12660.2
1845.22881,12177.6
1848.167439,12763
1851.102682,12566.2
1854.034553,12512.8
1856.963063,12370.2
1859.888226,13304.6
1862.810053,12704.6
1865.728557,12458.2
1868.643751,12222.2
1871.555648,12359.4
1874.46426,11989.8
1877.369599,12719.8
1880.271679,12473.6
1883.170512,12312.2
1886.06611,12929
1888.958487,12528.8
1891.847655,12479.4
1894.733626,12603.6
1897.616414,12644
1900.496032,12236.4
1903.372491,12518.4
1906.245805,12757.6
1909.115987,12737.4
1911.983049,12817.4
1914.847004,12671.2
1917.707866,12746.6
1920.565646,12796
1923.420359,12347
1926.272016,12598.4
1929.120631,12275
1931.966216,12476
1934.808786,12450
1937.648351,12741.4
1940.484927,12529.8
1943.318525,12727.2
1946.149158,12946.2
1948.97684,14070.2
1951.801584,12965.4
1954.623403,12770.8
1957.44231,12790.8
1960.258318,12285.2
1963.071439,12396.8
1965.881688,12575.2
1968.689078,12682.6
1971.493621,12451.6
