Ramanshift[cm-1],Intensity
-93.47115107,14516
-87.69374369,13133
-81.9253076,12972.2
-76.16582701,13078.8
-70.41528615,13170.2
-64.67366933,12874
-58.94096086,12829.2
-53.21714512,13057.8
-47.50220652,13186.8
-41.79612954,13206
-36.09889866,13768
-30.41049843,13708.4
-24.73091343,13278.4
-19.0601283,13381
-13.39812769,13094.2
-7.744896327,13020.4
-2.100418946,12713
3.535319659,13364
9.162334658,12710.2
14.78064118,13092.2
20.39025432,12777.8
25.99118913,12872.6
31.58346061,13472.6
37.16708375,13090.8
42.74207347,12813.2
48.30844468,12846.2
53.86621222,12655.6
59.41539093,12261.4
64.95599558,12399.8
70.48804091,12726.4
76.01154164,12787.8
81.52651243,12217.8
87.03296792,12727.8
92.5309227,13085.4
98.02039134,12432
103.5013884,12641
108.9739282,12563.8
114.4380255,12582.8
119.8936944,12636.4
125.3409495,13685.8
130.779805,12337.8
136.2102753,12101
141.6323747,12200.6
147.0461174,12893
152.4515176,12397.2
157.8485895,12290.6
163.2373472,12159.8
168.6178049,12508
173.9899766,12918.8
179.3538764,12428.4
184.7095182,12542.4
190.0569161,12768.6
195.396084,12875.8
200.7270358,12277
206.0497854,12290.2
211.3643466,11983.4
216.6707333,12429.8
221.9689593,12083.4
227.2590382,12268.2
232.5409839,12234.8
237.8148101,12129.6
243.0805303,12250.4
248.3381582,12193.4
253.5877075,12134.4
258.8291917,12266.4
264.0626244,12338.4
269.288019,12407.4
274.5053891,12687.4
279.7147481,12322.8
284.9161094,12138.6
290.1094865,12528
295.2948927,13755.4
300.4723414,16376.6
305.6418459,19169
310.8034194,21888.6
315.9570752,23807.6
321.1028267,24273
326.2406869,24451
331.370669,24860.4
336.4927863,25092
341.6070517,25444.4
346.7134786,25551.8
351.8120798,25799.8
356.9028684,25547.4
361.9858576,25417.4
367.0610602,25860.8
372.1284892,25412
377.1881577,25882.6
382.2400784,25853.8
387.2842644,26367.4
392.3207284,26437.6
397.3494833,25898.4
402.370542,26144.6
407.3839172,25533.6
412.3896217,25188.8
417.3876683,24783
422.3780697,24845.4
427.3608386,24893
432.3359876,25287.8
437.3035295,25243
442.2634769,25158.4
447.2158423,24370.4
452.1606383,24394.8
457.0978776,24701.2
462.0275727,23970
466.9497361,24471.4
471.8643802,23869.2
476.7715176,24549.8
481.6711608,24452.8
486.5633221,24832.6
491.448014,24389
496.3252488,24301.2
501.195039,24408.6
506.0573969,24660.6
510.9123349,24249.6
515.7598651,23728
520.6,24320
525.4327518,24063
530.2581327,24087
535.076155,23559.4
539.8868309,23950.2
544.6901726,24011.2
549.4861922,23685.4
554.2749019,24652.8
559.0563139,23750.6
563.8304402,23435
568.597293,24549
573.3568844,24139
578.1092263,23598.8
582.8543308,24116
587.5922101,23978
592.322876,23492
597.0463405,23594.6
601.7626157,23951.8
606.4717135,23376.6
611.1736458,23374.6
615.8684246,23432.4
620.5560617,23695.6
625.2365691,23329.6
629.9099585,23697.4
634.5762419,23839.4
639.2354312,23155.6
643.887538,23304
648.5325743,22920
653.1705518,22864.4
657.8014823,23129
662.4253775,22373
667.0422493,22877.8
671.6521092,22649
676.2549691,23047.4
680.8508407,22746.8
685.4397355,22688.6
690.0216654,22841.6
694.5966419,22610.6
699.1646767,23071.4
703.7257814,22907.4
708.2799676,22881.6
712.827247,22966.4
717.367631,22685
721.9011314,22672.6
726.4277595,21950.8
730.9475271,22648.4
735.4604456,22432.6
739.9665264,22976.6
744.4657813,22477.4
748.9582215,22331
753.4438587,21745.8
757.9227042,21606
762.3947696,22143.4
766.8600662,21435.6
771.3186056,23085
775.770399,21870.4
780.215458,22174.6
784.6537939,21437
789.0854181,21206.8
793.510342,21237.6
797.9285769,21940.8
802.3401342,21215.8
806.7450253,21373.2
811.1432614,21261.6
815.5348538,21012.6
819.9198139,20657.6
824.2981531,20917.2
828.6698824,21015.2
833.0350133,20831
837.393557,20406.6
841.7455248,20864.4
846.0909278,20463.4
850.4297774,20547
854.7620848,20642.4
859.0878611,20969.8
863.4071176,20265.8
867.7198655,20802.4
872.026116,21141.8
876.3258802,21444.2
880.6191693,20919.2
884.9059946,20967
889.186367,21361.8
893.4602979,20052.6
897.7277982,19988.6
901.9888793,20376.8
906.2435521,20897.4
910.4918277,20331.8
914.7337174,20326.8
918.9692321,20128.6
923.1983831,20786.8
927.4211813,20369.8
931.6376378,21231.8
935.8477637,20513
940.0515701,20926.4
944.249068,20886
948.4402684,19842.2
952.6251825,20827
956.8038212,20297.4
960.9761955,21139.6
965.1423166,20497.8
969.3021953,20524
973.4558427,20602.6
977.6032699,20222.4
981.7444877,20368.6
985.8795072,20161.8
990.0083394,20477
994.1309953,20087.2
998.2474857,20407.4
1002.357822,19470.4
1006.462014,20217.8
1010.560075,19931.2
1014.652013,20234.2
1018.737841,20556.4
1022.81757,19922
1026.891209,19896.2
1030.958771,19661.2
1035.020266,19971.6
1039.075705,19640
1043.1251,19369.4
1047.16846,19756.4
1051.205797,19487
1055.237121,19380
1059.262444,19248.2
1063.281777,19137.4
1067.295131,19375.4
1071.302515,20845.2
1075.303942,20299.8
1079.299422,21187.6
1083.288966,20467.6
1087.272585,19771.8
1091.250289,19675.8
1095.222091,19588.2
1099.187999,19201.2
1103.148026,19253
1107.102183,19280.8
1111.050479,19349.2
1114.992927,19254.4
1118.929536,19126.2
1122.860318,19496.2
1126.785283,18953.4
1130.704443,18969.2
1134.617808,19891.8
1138.52539,19995.4
1142.427198,19751.6
1146.323244,19707
1150.213538,19153
1154.098093,19578.8
1157.976917,18846.6
1161.850023,18759.6
1165.717421,19200
1169.579121,18966.2
1173.435135,19361
1177.285474,18417.4
1181.130148,18589.6
1184.969169,18969.8
1188.802547,18949.2
1192.630292,18424.4
1196.452416,18126
1200.26893,18214.4
1204.079844,17950.8
1207.88517,17497.2
1211.684917,18179.8
1215.479098,17748.6
1219.267722,19398.2
1223.050801,17630.8
1226.828346,17773
1230.600366,18028.2
1234.366874,17994.8
1238.12788,17678
1241.883395,17795.2
1245.633429,18074.2
1249.377994,18122.8
1253.1171,17164.8
1256.850759,17738.4
1260.578981,17569
1264.301776,17808.2
1268.019157,17348
1271.731133,17259.2
1275.437715,17208.2
1279.138915,17656.2
1282.834743,17887.4
1286.52521,17359.4
1290.210328,17157.6
1293.890106,17350.6
1297.564555,17836.8
1301.233688,17116.2
1304.897514,17465.2
1308.556044,17580
1312.209289,17605.6
1315.857261,17074.4
1319.499969,17032.2
1323.137425,17825.2
1326.769641,17326
1330.396626,17946.2
1334.018391,17243.8
1337.634948,17308.4
1341.246307,17107.8
1344.85248,17030.2
1348.453477,16923.4
1352.049309,16888.6
1355.639987,16909.4
1359.225522,17612
1362.805925,17200.8
1366.381207,17243.2
1369.951379,17348.2
1373.516452,17434.6
1377.076436,17561.4
1380.631343,17503.4
1384.181184,17346.8
1387.725969,17375
1391.26571,17071.8
1394.800417,16890.2
1398.330102,16970.2
1401.854776,17015
1405.374448,16863.4
1408.889132,16504.8
1412.398837,16099
1415.903574,16472.6
1419.403355,17138
1422.89819,16731
1426.388091,16765.6
1429.873069,17238.6
1433.353134,16651.4
1436.828298,16724.2
1440.298571,16792.4
1443.763965,16440.2
1447.224491,16174
1450.68016,16170.4
1454.130983,16553.4
1457.576971,16525.2
1461.018135,16714.8
1464.454486,16910
1467.886036,16277
1471.312794,16326.8
1474.734774,16094.4
1478.151985,16764.8
1481.564439,16366.8
1484.972146,16329.8
1488.375119,15911.8
1491.773368,16247
1495.166904,16793
1498.555739,16062
1501.939883,16192.4
1505.319349,15735
1508.694146,16054.4
1512.064286,16110.8
1515.429781,16078.4
1518.790642,15812.4
1522.146879,16102.6
1525.498505,15541
1528.845529,15518.6
1532.187965,16175.6
1535.525822,15898.6
1538.859112,15920.6
1542.187846,16444.8
1545.512036,15428
1548.831693,16891.8
1552.146829,16260.6
1555.457453,15600
1558.763579,15107
1562.065216,15585.2
1565.362377,15884.4
1568.655073,16280.4
1571.943315,16028.2
1575.227114,15879.2
1578.506482,15915.6
1581.781431,16457.2
1585.051971,15905.2
1588.318114,16023.8
1591.579872,15911.4
1594.837255,15735.2
1598.090275,15439
1601.338945,15417.4
1604.583274,15722
1607.823275,15448.2
1611.058959,15017.8
1614.290338,15756.2
1617.517422,14748.8
1620.740224,15257.6
1623.958755,14856.2
1627.173027,14962.4
1630.38305,14529.2
1633.588838,15012
1636.7904,14871
1639.987749,15059
1643.180896,15136.2
1646.369853,14496.8
1649.554632,15400.4
1652.735244,14727.4
1655.9117,14348.4
1659.084013,14678.6
1662.252193,15403.8
1665.416254,14310.8
1668.576205,14656.2
1671.732059,14975
1674.883828,14957.2
1678.031523,14457
1681.175157,14562.4
1684.314739,14637.8
1687.450284,14556
1690.581801,14366.4
1693.709304,14271.2
1696.832803,14264.2
1699.952311,14529.8
1703.067839,14390.8
1706.179399,14474.4
1709.287003,14917.6
1712.390663,14511
1715.49039,14518
1718.586197,14851.2
1721.678095,14672.2
1724.766096,14685.4
1727.850213,14004
1730.930456,14353.6
1734.006838,14212.2
1737.079372,14430.6
1740.148067,14056.2
1743.212938,15193
1746.273996,14271.4
1749.331252,14229.6
1752.384718,14261
1755.434408,14265.6
1758.480332,14206.8
1761.522503,14306.6
1764.560933,14076.8
1767.595634,13652.2
1770.626618,14432.6
1773.653896,14368.4
1776.677482,13958.6
1779.697388,13941.2
1782.713625,14432.2
1785.726205,14515
1788.735141,14538.4
1791.740445,13944.8
1794.742129,13958
1797.740206,14455.4
1800.734687,14540.4
1803.725585,14228
1806.712912,14075
1809.69668,13772.8
1812.676902,13925.2
1815.65359,13578.2
1818.626756,13669.8
1821.596413,13830.4
1824.562573,13476.2
1827.525247,13867.8
1830.48445,13667.6
1833.440192,13813.2
1836.392487,13681.6
1839.341347,13829.8
1842.286784,14006.4
1845.22881,13467.2
1848.167439,13956.8
1851.102682,13783.6
1854.034553,13671.8
1856.963063,13533
1859.888226,14455.8
1862.810053,13892.8
1865.728557,13748.4
1868.643751,13460.8
1871.555648,13570.6
1874.46426,13194.4
1877.369599,13863.6
1880.271679,13664.6
1883.170512,13394.4
1886.06611,14013
1888.958487,13560.2
1891.847655,13528.2
1894.733626,13702.6
1897.616414,13760.8
1900.496032,13309.8
1903.372491,13595.6
1906.245805,13981.8
1909.115987,13949.8
1911.983049,13955
1914.847004,13797.4
1917.707866,13907
1920.565646,13865
1923.420359,13408
1926.272016,13689.4
1929.120631,13444.8
1931.966216,13620.4
1934.808786,13491.4
1937.648351,13684.2
1940.484927,13716.2
1943.318525,13756.2
1946.149158,13886.8
1948.97684,15065
1951.801584,14018.6
1954.623403,13669.6
1957.44231,13883.6
1960.258318,13358.2
1963.071439,13369.8
1965.881688,13444
1968.689078,13692.2
1971.493621,13395.2
