Ramanshift[cm-1],Intensity
-93.47115107,14545.2
-87.69374369,13131
-81.9253076,12897.4
-76.16582701,13068.8
-70.41528615,13133.2
-64.67366933,12869.4
-58.94096086,12845.6
-53.21714512,13091
-47.50220652,13190.6
-41.79612954,13203.4
-36.09889866,13706.8
-30.41049843,13728.6
-24.73091343,13391
-19.0601283,13433.2
-13.39812769,13148.2
-7.744896327,13016.4
-2.100418946,12733.8
3.535319659,13477.8
9.162334658,12817.6
14.78064118,13142.8
20.39025432,12800.2
25.99118913,12951.6
31.58346061,13258.2
37.16708375,13128.6
42.74207347,12712.6
48.30844468,12933.4
53.86621222,12625.4
59.41539093,12425
64.95599558,12254.2
70.48804091,12794.4
76.01154164,12889
81.52651243,12185
87.03296792,12675.2
92.5309227,13075.4
98.02039134,12416.2
103.5013884,12663.2
108.9739282,12537.6
114.4380255,12553.2
119.8936944,12701.4
125.3409495,13661
130.779805,12453.6
136.2102753,12094.4
141.6323747,12186.4
147.0461174,12913.4
152.4515176,12440.2
157.8485895,12351.4
163.2373472,12270.2
168.6178049,12625.2
173.9899766,12947.4
179.3538764,12401.4
184.7095182,12520.4
190.0569161,12726
195.396084,12853
200.7270358,12188
206.0497854,12434.2
211.3643466,12050
216.6707333,12490.4
221.9689593,12085.6
227.2590382,12245.8
232.5409839,12182.2
237.8148101,12132.2
243.0805303,12185.8
248.3381582,12271.6
253.5877075,12086.6
258.8291917,12278
264.0626244,12377
269.288019,12498.4
274.5053891,12724.8
279.7147481,12333.2
284.9161094,12090.4
290.1094865,12207.6
295.2948927,12807
300.4723414,14335.6
305.6418459,15177.8
310.8034194,16173
315.9570752,17375.6
321.1028267,17635.4
326.2406869,17600.2
331.370669,17771.4
336.4927863,17857.6
341.6070517,17974
346.7134786,17765.6
351.8120798,18073.4
356.9028684,17694
361.9858576,17810.2
367.0610602,18177
372.1284892,17832.2
377.1881577,18303.6
382.2400784,18158.8
387.2842644,18291.2
392.3207284,18739.6
397.3494833,18179.8
402.370542,18417.6
407.3839172,17976.2
412.3896217,17778.8
417.3876683,17306.6
422.3780697,17380.8
427.3608386,17469.4
432.3359876,17851.2
437.3035295,17966
442.2634769,17977
447.2158423,17168.6
452.1606383,17325
457.0978776,17386
462.0275727,16786
466.9497361,17387
471.8643802,16770.2
476.7715176,17290.2
481.6711608,17152
486.5633221,17746.4
491.448014,17359.4
496.3252488,17346.6
501.195039,17294.8
506.0573969,17736.6
510.9123349,17308.8
515.7598651,16552.2
520.6,17155.2
525.4327518,16960.2
530.2581327,17002
535.076155,16366.4
539.8868309,16820.2
544.6901726,16975.6
549.4861922,16622.2
554.2749019,17492.2
559.0563139,16516.8
563.8304402,16320.2
568.597293,17309.6
573.3568844,17069.6
578.1092263,16521.4
582.8543308,16963.8
587.5922101,16934.2
592.322876,16632.4
597.0463405,16583
601.7626157,16900.6
606.4717135,16539.6
611.1736458,16560.6
615.8684246,16595.6
620.5560617,16949.6
625.2365691,16788.8
629.9099585,17109.2
634.5762419,17372
639.2354312,16661
643.887538,16922.8
648.5325743,16734.6
653.1705518,16581
657.8014823,16811.6
662.4253775,16171.8
667.0422493,16511
671.6521092,16602.2
676.2549691,16719.2
680.8508407,16732.2
685.4397355,16438.8
690.0216654,16610.2
694.5966419,16235.6
699.1646767,16891.4
703.7257814,16508.4
708.2799676,16806
712.827247,16752.2
717.367631,16580.2
721.9011314,16387.2
726.4277595,15774
730.9475271,16389.4
735.4604456,16331.2
739.9665264,16784.4
744.4657813,16309
748.9582215,16330
753.4438587,15934.4
757.9227042,15682.4
762.3947696,16309.2
766.8600662,15715.2
771.3186056,17172.6
775.770399,16096.2
780.215458,16504.4
784.6537939,15680.4
789.0854181,15541.4
793.510342,15730.8
797.9285769,16233
802.3401342,15735.8
806.7450253,15788.8
811.1432614,15783.2
815.5348538,15646.2
819.9198139,15235.4
824.2981531,15614.6
828.6698824,15680.6
833.0350133,15575.8
837.393557,15229.6
841.7455248,15554.8
846.0909278,15429.8
850.4297774,15362.4
854.7620848,15376.2
859.0878611,15724.8
863.4071176,14972
867.7198655,15628.2
872.026116,15891.6
876.3258802,16278.2
880.6191693,15709
884.9059946,15804.6
889.186367,16208.2
893.4602979,15110.8
897.7277982,15029.8
901.9888793,15373
906.2435521,15872.6
910.4918277,15287.8
914.7337174,15148
918.9692321,15112.4
923.1983831,15822.2
927.4211813,15433.2
931.6376378,16093
935.8477637,15475.2
940.0515701,15800.6
944.249068,15697.4
948.4402684,14838.4
952.6251825,15782
956.8038212,15356.6
960.9761955,15985.4
965.1423166,15387
969.3021953,15394.8
973.4558427,15472.2
977.6032699,15306.8
981.7444877,15423
985.8795072,15411
990.0083394,15600.4
994.1309953,15082.6
998.2474857,15538.8
1002.357822,14680.2
1006.462014,15314.4
1010.560075,15099.6
1014.652013,15543.4
1018.737841,15780.4
1022.81757,15309.4
1026.891209,15322
1030.958771,15145.2
1035.020266,15609.8
1039.075705,15301.6
1043.1251,15013.6
1047.16846,15230.4
1051.205797,15254.8
1055.237121,14756
1059.262444,14911.4
1063.281777,14696.4
1067.295131,14987.8
1071.302515,16360.2
1075.303942,15774.4
1079.299422,16773.4
1083.288966,16156.4
1087.272585,15705.6
1091.250289,15535.8
1095.222091,15448.4
1099.187999,15042.4
1103.148026,15150.8
1107.102183,15104.4
1111.050479,15355.4
1114.992927,15172.6
1118.929536,15133.4
1122.860318,15420.6
1126.785283,14841.4
1130.704443,14888.8
1134.617808,15870.2
1138.52539,15932
1142.427198,15895.8
1146.323244,15962
1150.213538,15390.8
1154.098093,15713
1157.976917,15085.4
1161.850023,14925
1165.717421,15429.4
1169.579121,15202.2
1173.435135,15648.8
1177.285474,14817.8
1181.130148,14971.8
1184.969169,15370.4
1188.802547,15320.6
1192.630292,14901.8
1196.452416,14548.6
1200.26893,14777.8
1204.079844,14566.2
1207.88517,14141.8
1211.684917,14835.6
1215.479098,14443
1219.267722,15931
1223.050801,14481.4
1226.828346,14587
1230.600366,14732.4
1234.366874,14775.2
1238.12788,14528.6
1241.883395,14619.2
1245.633429,14979.8
1249.377994,15022.2
1253.1171,14140.4
1256.850759,14553.8
1260.578981,14613.8
1264.301776,14649.8
1268.019157,14625.2
1271.731133,14417.8
1275.437715,14271.6
1279.138915,14771.4
1282.834743,15073.6
1286.52521,14511
1290.210328,14394
1293.890106,14545
1297.564555,14980.4
1301.233688,14399.6
1304.897514,14785.6
1308.556044,14816.6
1312.209289,14939.4
1315.857261,14326.8
1319.499969,14618.8
1323.137425,15504.4
1326.769641,15023.2
1330.396626,15604.8
1334.018391,15008.6
1337.634948,15135
1341.246307,14804.4
1344.85248,14628.6
1348.453477,14528.4
1352.049309,14636.4
1355.639987,14650.4
1359.225522,15237.8
1362.805925,14717.4
1366.381207,14826.2
1369.951379,14839.2
1373.516452,14922.8
1377.076436,15098.4
1380.631343,14960.4
1384.181184,14851
1387.725969,15013.6
1391.26571,14783.8
1394.800417,14582.8
1398.330102,14872.4
1401.854776,14917
1405.374448,14730.2
1408.889132,14372.6
1412.398837,13907.4
1415.903574,14384
1419.403355,14815.6
1422.89819,14393.4
1426.388091,14433
1429.873069,14921.6
1433.353134,14428.6
1436.828298,14402.8
1440.298571,14509.4
1443.763965,14172.4
1447.224491,13985.4
1450.68016,13942.2
1454.130983,14505.8
1457.576971,14257.2
1461.018135,14492.6
1464.454486,14541
1467.886036,13970.2
1471.312794,14067.2
1474.734774,13809.4
1478.151985,14550.2
1481.564439,14210.8
1484.972146,14042.4
1488.375119,13698.4
1491.773368,14072.4
1495.166904,14627.2
1498.555739,13944.8
1501.939883,14062.2
1505.319349,13544
1508.694146,13961.6
1512.064286,14035.2
1515.429781,13914.4
1518.790642,13797.6
1522.146879,14114.6
1525.498505,13623.6
1528.845529,13539.8
1532.187965,14252.2
1535.525822,14003.6
1538.859112,13871.6
1542.187846,14514
1545.512036,13516.2
1548.831693,14895.6
1552.146829,14320.6
1555.457453,13563.2
1558.763579,13224.2
1562.065216,13748.6
1565.362377,13903.6
1568.655073,14384
1571.943315,14075.6
1575.227114,14059.4
1578.506482,14003.8
1581.781431,14574.8
1585.051971,14035.8
1588.318114,14087.4
1591.579872,13945.6
1594.837255,13819
1598.090275,13605.6
1601.338945,13543
1604.583274,13946.4
1607.823275,13601.8
1611.058959,13116.8
1614.290338,13859.8
1617.517422,13040
1620.740224,13432.2
1623.958755,13104.2
1627.173027,13153.8
1630.38305,12729.8
1633.588838,13327
1636.7904,12997.4
1639.987749,13223.4
1643.180896,13389
1646.369853,12664
1649.554632,13572.8
1652.735244,12860.8
1655.9117,12592.2
1659.084013,12957.4
1662.252193,13508.8
1665.416254,12549.4
1668.576205,12982.2
1671.732059,13247.6
1674.883828,13241.8
1678.031523,12707.6
1681.175157,12794.8
1684.314739,12712.4
1687.450284,12718.6
1690.581801,12591.4
1693.709304,12483.8
1696.832803,12522.6
1699.952311,12681.4
1703.067839,12682.2
1706.179399,12672
1709.287003,13118.8
1712.390663,12608.4
1715.49039,12671.6
1718.586197,13025.2
1721.678095,12814.4
1724.766096,12856.4
1727.850213,12246
1730.930456,12662
1734.006838,12403.2
1737.079372,12757.4
1740.148067,12373
1743.212938,13400.8
1746.273996,12657.4
1749.331252,12512
1752.384718,12610
1755.434408,12609.2
1758.480332,12714.2
1761.522503,12712.8
1764.560933,12445.8
1767.595634,12046
1770.626618,12830.2
1773.653896,12839.2
1776.677482,12357.8
1779.697388,12360.4
1782.713625,13060.8
1785.726205,12968
1788.735141,12826
1791.740445,12348
1794.742129,12320.4
1797.740206,12893.6
1800.734687,12926
1803.725585,12698.8
1806.712912,12566.6
1809.69668,12356
1812.676902,12450
1815.65359,12041.8
1818.626756,12227.8
1821.596413,12387
1824.562573,12113.4
1827.525247,12493
1830.48445,12065
1833.440192,12382
1836.392487,12229.8
1839.341347,12420.8
1842.286784,12460
1845.22881,11872.2
1848.167439,12532
1851.102682,12362.2
1854.034553,12348
1856.963063,12088
1859.888226,13043.4
1862.810053,12486.2
1865.728557,12395.8
1868.643751,11994.8
1871.555648,12127
1874.46426,11794.6
1877.369599,12608.6
1880.271679,12244.8
1883.170512,12148
1886.06611,12624.6
1888.958487,12224.8
1891.847655,12351
1894.733626,12430.6
1897.616414,12473.2
1900.496032,11984.2
1903.372491,12198.4
1906.245805,12737.4
1909.115987,12697.6
1911.983049,12628.2
1914.847004,12511.6
1917.707866,12624.6
1920.565646,12627.8
1923.420359,12192.6
1926.272016,12453.2
1929.120631,12138
1931.966216,12392.4
1934.808786,12276
1937.648351,12550.2
1940.484927,12452.2
1943.318525,12623.4
1946.149158,12839.2
1948.97684,13915.2
1951.801584,12848
1954.623403,12584.2
1957.44231,12703.8
1960.258318,12070.8
1963.071439,12181.8
1965.881688,12352
1968.689078,12543.2
1971.493621,12242.2
