Ramanshift[cm-1],Intensity
-93.47115107,14596.2
-87.69374369,13096.4
-81.9253076,12913.8
-76.16582701,13143.2
-70.41528615,13184.2
-64.67366933,12827
-58.94096086,12856.6
-53.21714512,12991
-47.50220652,13225.4
-41.79612954,13148.6
-36.09889866,13679.6
-30.41049843,13793.2
-24.73091343,13367
-19.0601283,13477.8
-13.39812769,13125.6
-7.744896327,12935
-2.100418946,12717.6
3.535319659,13393.8
9.162334658,12750.8
14.78064118,13059
20.39025432,12729
25.99118913,12830.4
31.58346061,13279.4
37.16708375,13089.8
42.74207347,12718.8
48.30844468,12748
53.86621222,12697.2
59.41539093,12236.8
64.95599558,12349.4
70.48804091,12612.6
76.01154164,12913.4
81.52651243,12158.6
87.03296792,12766.8
92.5309227,13067.6
98.02039134,12367.4
103.5013884,12711.4
108.9739282,12434.8
114.4380255,12453.6
119.8936944,12638
125.3409495,13542.8
130.779805,12404.6
136.2102753,12109
141.6323747,12168.8
147.0461174,12848.2
152.4515176,12450
157.8485895,12420.6
163.2373472,12209
168.6178049,12596.6
173.9899766,12865
179.3538764,12385.8
184.7095182,12471
190.0569161,12826.8
195.396084,12872.4
200.7270358,12280.8
206.0497854,12337.8
211.3643466,12060.2
216.6707333,12418.4
221.9689593,11999
227.2590382,12245
232.5409839,12162.4
237.8148101,12063.4
243.0805303,12196.4
248.3381582,12174.4
253.5877075,12069.2
258.8291917,12262.8
264.0626244,12292.6
269.288019,12450
274.5053891,12597
279.7147481,12269
284.9161094,12056.8
290.1094865,12269.2
295.2948927,13164.2
300.4723414,14888.8
305.6418459,16578
310.8034194,17931.8
315.9570752,19501.6
321.1028267,19773.6
326.2406869,19998.4
331.370669,20114.4
336.4927863,20312.2
341.6070517,20617
346.7134786,20627.8
351.8120798,20967.4
356.9028684,20769.6
361.9858576,20638
367.0610602,20867
372.1284892,20619.4
377.1881577,20847.6
382.2400784,20831.8
387.2842644,20962.6
392.3207284,21396.4
397.3494833,21033.6
402.370542,21383.4
407.3839172,20999
412.3896217,20700.6
417.3876683,20385
422.3780697,20433.2
427.3608386,20275.8
432.3359876,20564.8
437.3035295,20611.6
442.2634769,20608.4
447.2158423,19704.4
452.1606383,19765.2
457.0978776,20149.8
462.0275727,19317.2
466.9497361,20005.4
471.8643802,19305.8
476.7715176,19836.2
481.6711608,19919.8
486.5633221,20313.4
491.448014,20111.4
496.3252488,19918.2
501.195039,19962.8
506.0573969,20179
510.9123349,19774.6
515.7598651,19086.2
520.6,19744.8
525.4327518,19594.8
530.2581327,19460.8
535.076155,18872.8
539.8868309,19293.2
544.6901726,19402
549.4861922,19016.4
554.2749019,20005.2
559.0563139,18962.8
563.8304402,18765
568.597293,19824.4
573.3568844,19604
578.1092263,18934
582.8543308,19376.8
587.5922101,19203.6
592.322876,18818.6
597.0463405,19006.6
601.7626157,19231.6
606.4717135,18872.8
611.1736458,18905.6
615.8684246,19044.4
620.5560617,19265.2
625.2365691,19040.2
629.9099585,19541.4
634.5762419,19625.8
639.2354312,18991.2
643.887538,19192.2
648.5325743,18892.6
653.1705518,18979.6
657.8014823,19246.8
662.4253775,18658
667.0422493,19126.8
671.6521092,19242.4
676.2549691,19257.2
680.8508407,19095
685.4397355,18767.6
690.0216654,18945.2
694.5966419,18707
699.1646767,19220.6
703.7257814,18706.8
708.2799676,19010
712.827247,18925.6
717.367631,18759.8
721.9011314,18750.4
726.4277595,17982.8
730.9475271,18721.2
735.4604456,18673.4
739.9665264,19102.8
744.4657813,18584.8
748.9582215,18518
753.4438587,17985.4
757.9227042,18039.8
762.3947696,18438
766.8600662,17898
771.3186056,19417.2
775.770399,18197.4
780.215458,18460.6
784.6537939,17717.6
789.0854181,17527.6
793.510342,17604
797.9285769,18323.4
802.3401342,17658.8
806.7450253,17819
811.1432614,17714.4
815.5348538,17511.4
819.9198139,17077.4
824.2981531,17499.2
828.6698824,17622.8
833.0350133,17438.4
837.393557,17158.8
841.7455248,17450
846.0909278,17276
850.4297774,17220.2
854.7620848,17321.6
859.0878611,17520.8
863.4071176,16901.2
867.7198655,17395
872.026116,17687
876.3258802,18044.8
880.6191693,17504.8
884.9059946,17540.2
889.186367,18005.4
893.4602979,16863.8
897.7277982,16817.8
901.9888793,17190.8
906.2435521,17734.4
910.4918277,17084.8
914.7337174,17031
918.9692321,16900.6
923.1983831,17590
927.4211813,17213.8
931.6376378,17790.4
935.8477637,17324
940.0515701,17599.4
944.249068,17712.4
948.4402684,16964.2
952.6251825,17751.2
956.8038212,17314.2
960.9761955,18197.6
965.1423166,17583.8
969.3021953,17525.2
973.4558427,17500.2
977.6032699,17283.4
981.7444877,17422.2
985.8795072,17337.4
990.0083394,17424.2
994.1309953,17282
998.2474857,17507
1002.357822,16573.6
1006.462014,17396
1010.560075,17058.8
1014.652013,17527
1018.737841,17807.8
1022.81757,17388.4
1026.891209,17343.2
1030.958771,17141.4
1035.020266,17573.2
1039.075705,17388.8
1043.1251,17205.8
1047.16846,17470.8
1051.205797,17436
1055.237121,17203.4
1059.262444,17274.4
1063.281777,17083.8
1067.295131,17641.2
1071.302515,19089
1075.303942,18828.2
1079.299422,19728.4
1083.288966,19073.2
1087.272585,18420.4
1091.250289,18100
1095.222091,17787.8
1099.187999,17438.8
1103.148026,17490.4
1107.102183,17325.2
1111.050479,17529
1114.992927,17530.6
1118.929536,17454.6
1122.860318,17779
1126.785283,17361.4
1130.704443,17375.8
1134.617808,18654
1138.52539,18576.2
1142.427198,18528.4
1146.323244,18514
1150.213538,18074.8
1154.098093,18478.6
1157.976917,17857.2
1161.850023,17707.8
1165.717421,18247.8
1169.579121,17755
1173.435135,18175.6
1177.285474,17309.2
1181.130148,17488.6
1184.969169,17892.8
1188.802547,17974.8
1192.630292,17525.2
1196.452416,17251.2
1200.26893,17391.2
1204.079844,17026.6
1207.88517,16743
1211.684917,17408
1215.479098,17104.4
1219.267722,18812
1223.050801,17197.2
1226.828346,17255.6
1230.600366,17451.4
1234.366874,17372.8
1238.12788,17166.4
1241.883395,17097.8
1245.633429,17563.4
1249.377994,17477.2
1253.1171,16833.4
1256.850759,17189.4
1260.578981,17202.4
1264.301776,17403.8
1268.019157,17307.6
1271.731133,17065.6
1275.437715,16815.4
1279.138915,17481.2
1282.834743,17836
1286.52521,17336.4
1290.210328,17106.2
1293.890106,17292.8
1297.564555,17963.2
1301.233688,17322
1304.897514,17670.8
1308.556044,17903.8
1312.209289,17860
1315.857261,17207.4
1319.499969,17393.8
1323.137425,18499.8
1326.769641,17938.6
1330.396626,18639.8
1334.018391,17901.2
1337.634948,18039.8
1341.246307,17675.6
1344.85248,17526.8
1348.453477,17447.6
1352.049309,17402.4
1355.639987,17545.4
1359.225522,18091.4
1362.805925,17547.2
1366.381207,17535.6
1369.951379,17481.6
1373.516452,17760.2
1377.076436,17842
1380.631343,17704.6
1384.181184,17554.6
1387.725969,17803.8
1391.26571,17575.6
1394.800417,17520.6
1398.330102,17585.2
1401.854776,17681.6
1405.374448,17462.6
1408.889132,16926.2
1412.398837,16584.2
1415.903574,16949.4
1419.403355,17558
1422.89819,16964.8
1426.388091,17043.6
1429.873069,17574
1433.353134,17072
1436.828298,17009.2
1440.298571,17181.4
1443.763965,16682.4
1447.224491,16580.4
1450.68016,16525.2
1454.130983,16960
1457.576971,16699.8
1461.018135,16888.2
1464.454486,16905
1467.886036,16416.8
1471.312794,16432.2
1474.734774,16097.8
1478.151985,16810.4
1481.564439,16522.8
1484.972146,16481.6
1488.375119,15874.6
1491.773368,16330
1495.166904,16913.2
1498.555739,16108.4
1501.939883,16307
1505.319349,15848.6
1508.694146,16460.8
1512.064286,16480.4
1515.429781,16467.6
1518.790642,16243.8
1522.146879,16619.4
1525.498505,15967
1528.845529,15834.2
1532.187965,16619
1535.525822,16148.8
1538.859112,16248.2
1542.187846,16986.4
1545.512036,16126.8
1548.831693,17270
1552.146829,16679
1555.457453,15995.6
1558.763579,15456.4
1562.065216,16048.6
1565.362377,16231.8
1568.655073,16681.8
1571.943315,16310.8
1575.227114,16274.6
1578.506482,16308.2
1581.781431,16855
1585.051971,16224.6
1588.318114,16419.6
1591.579872,16316.2
1594.837255,15991.2
1598.090275,15707.2
1601.338945,15592.8
1604.583274,15975.8
1607.823275,15504.4
1611.058959,15054.4
1614.290338,15850.4
1617.517422,14941.4
1620.740224,15352
1623.958755,14893.4
1627.173027,15038
1630.38305,14906.4
1633.588838,15262.2
1636.7904,14847.4
1639.987749,14983.2
1643.180896,14983.4
1646.369853,14400.2
1649.554632,15096.4
1652.735244,14362.8
1655.9117,13887
1659.084013,14286.6
1662.252193,14820
1665.416254,13833.6
1668.576205,14169.6
1671.732059,14402.6
1674.883828,14419.4
1678.031523,13784.2
1681.175157,13897.6
1684.314739,13914.2
1687.450284,13798.4
1690.581801,13693.2
1693.709304,13523.8
1696.832803,13461.8
1699.952311,13643
1703.067839,13571.4
1706.179399,13516.8
1709.287003,13992.6
1712.390663,13584.6
1715.49039,13589.4
1718.586197,13970.2
1721.678095,13638
1724.766096,13634
1727.850213,13142.6
1730.930456,13414.2
1734.006838,13249.8
1737.079372,13496.2
1740.148067,13014.8
1743.212938,14180.2
1746.273996,13301.2
1749.331252,13241.2
1752.384718,13319
1755.434408,13285.4
1758.480332,13298.8
1761.522503,13301.2
1764.560933,13113.4
1767.595634,12791.2
1770.626618,13522.8
1773.653896,13467.6
1776.677482,13106.2
1779.697388,13053.6
1782.713625,13700.2
1785.726205,13499.6
1788.735141,13533.2
1791.740445,13135.4
1794.742129,13039.6
1797.740206,13530
1800.734687,13460.8
1803.725585,13282.8
1806.712912,13302.6
1809.69668,12931.8
1812.676902,12994.6
1815.65359,12719.4
1818.626756,12791.6
1821.596413,13027.6
1824.562573,12631.4
1827.525247,13068.2
1830.48445,12843
1833.440192,12977.6
1836.392487,12880.8
1839.341347,13070.8
1842.286784,13102.6
1845.22881,12655.6
1848.167439,13170.4
1851.102682,12924
1854.034553,12964
1856.963063,12659.2
1859.888226,13703.6
1862.810053,13198.4
1865.728557,12838.6
1868.643751,12685.8
1871.555648,12605.8
1874.46426,12375.4
1877.369599,13055.8
1880.271679,12802.8
1883.170512,12693.2
1886.06611,13220
1888.958487,12933.8
1891.847655,12789.4
1894.733626,12954
1897.616414,13002.8
1900.496032,12480.2
1903.372491,12945.2
1906.245805,13218.2
1909.115987,13209.2
1911.983049,13167.2
1914.847004,13127.6
1917.707866,13178.8
1920.565646,13152.2
1923.420359,12737.6
1926.272016,12925.6
1929.120631,12758
1931.966216,12857.4
1934.808786,12780.4
1937.648351,13084.4
1940.484927,12976.4
1943.318525,13002
1946.149158,13282.4
1948.97684,14396.4
1951.801584,13339.6
1954.623403,13037.8
1957.44231,13196.8
1960.258318,12607.6
1963.071439,12708.2
1965.881688,12940.2
1968.689078,13071.4
1971.493621,12775.2
