Ramanshift[cm-1],Intensity
-93.47115107,14557.6
-87.69374369,13085.2
-81.9253076,13055.6
-76.16582701,13196.8
-70.41528615,13175.4
-64.67366933,12844.4
-58.94096086,12857.8
-53.21714512,13082.6
-47.50220652,13229
-41.79612954,13302.2
-36.09889866,13700.8
-30.41049843,13837.8
-24.73091343,13429.4
-19.0601283,13489.2
-13.39812769,13265.2
-7.744896327,13057.4
-2.100418946,12775
3.535319659,13505.4
9.162334658,12837.8
14.78064118,13227.4
20.39025432,12827
25.99118913,12907.4
31.58346061,13387.2
37.16708375,13097
42.74207347,12805.8
48.30844468,12813.6
53.86621222,12781.2
59.41539093,12398
64.95599558,12416.4
70.48804091,12776.4
76.01154164,12925.6
81.52651243,12253.6
87.03296792,12721
92.5309227,13225.4
98.02039134,12452
103.5013884,12696.2
108.9739282,12656.2
114.4380255,12610.4
119.8936944,12789.6
125.3409495,13718.8
130.779805,12609.4
136.2102753,12262
141.6323747,12263
147.0461174,12943.4
152.4515176,12538.6
157.8485895,12485.4
163.2373472,12258.8
168.6178049,12666.2
173.9899766,12977.2
179.3538764,12451.2
184.7095182,12502.4
190.0569161,12778.6
195.396084,12841.8
200.7270358,12305
206.0497854,12289.6
211.3643466,12118.6
216.6707333,12494.4
221.9689593,12028.8
227.2590382,12294
232.5409839,12219.6
237.8148101,12151.2
243.0805303,12311
248.3381582,12227.6
253.5877075,12058.4
258.8291917,12298.2
264.0626244,12334.6
269.288019,12515.8
274.5053891,12712.4
279.7147481,12439.4
284.9161094,12119.2
290.1094865,12391
295.2948927,13147.4
300.4723414,14989.4
305.6418459,16310.4
310.8034194,17545
315.9570752,19087
321.1028267,19339.8
326.2406869,19512.8
331.370669,19505.6
336.4927863,19616.4
341.6070517,19793.2
346.7134786,19712.8
351.8120798,20151.6
356.9028684,19667.8
361.9858576,19789.8
367.0610602,20099
372.1284892,19777
377.1881577,20043.6
382.2400784,19904.6
387.2842644,20091
392.3207284,20435.4
397.3494833,20025.2
402.370542,20114.8
407.3839172,20000.4
412.3896217,19649.6
417.3876683,19318
422.3780697,19499.2
427.3608386,19532.2
432.3359876,19785.2
437.3035295,19924.6
442.2634769,20046.2
447.2158423,19125.6
452.1606383,19277.4
457.0978776,19313.8
462.0275727,18745.4
466.9497361,19305.2
471.8643802,18761.4
476.7715176,19312.8
481.6711608,19195
486.5633221,19527.2
491.448014,19245.4
496.3252488,19217
501.195039,19208
506.0573969,19585
510.9123349,19082
515.7598651,18546.6
520.6,19056.4
525.4327518,18878
530.2581327,18863.2
535.076155,18366.8
539.8868309,18797
544.6901726,19051.4
549.4861922,18528
554.2749019,19428.8
559.0563139,18420.8
563.8304402,18212.8
568.597293,19226.8
573.3568844,18970.6
578.1092263,18338.6
582.8543308,18906.8
587.5922101,18782.4
592.322876,18450.6
597.0463405,18486.6
601.7626157,18863.4
606.4717135,18425.6
611.1736458,18375.8
615.8684246,18584.6
620.5560617,18885.4
625.2365691,18479.4
629.9099585,18854.8
634.5762419,19092.2
639.2354312,18508.8
643.887538,18712.6
648.5325743,18456.6
653.1705518,18326.6
657.8014823,18499.8
662.4253775,17782.2
667.0422493,18206.4
671.6521092,18266
676.2549691,18375.6
680.8508407,18341.2
685.4397355,18062.8
690.0216654,18326.4
694.5966419,18019.8
699.1646767,18410.8
703.7257814,18145
708.2799676,18385
712.827247,18453.6
717.367631,18243.2
721.9011314,18118.2
726.4277595,17552.8
730.9475271,18167.4
735.4604456,18235.4
739.9665264,18507
744.4657813,17985.4
748.9582215,18120
753.4438587,17577.6
757.9227042,17289.6
762.3947696,17936.8
766.8600662,17394.8
771.3186056,18833.2
775.770399,17639
780.215458,18215.4
784.6537939,17411.6
789.0854181,17190.4
793.510342,17320.8
797.9285769,17766.2
802.3401342,17256.2
806.7450253,17396.8
811.1432614,17247.4
815.5348538,17188.4
819.9198139,16798.8
824.2981531,17112.4
828.6698824,17239
833.0350133,17058.6
837.393557,16795
841.7455248,17117.6
846.0909278,16898.2
850.4297774,17007.4
854.7620848,16871
859.0878611,17149.2
863.4071176,16454.8
867.7198655,17129.4
872.026116,17226.8
876.3258802,17687.8
880.6191693,17130.4
884.9059946,17287.6
889.186367,17685.4
893.4602979,16479.8
897.7277982,16446.2
901.9888793,16847.4
906.2435521,17328.8
910.4918277,16572.8
914.7337174,16642.6
918.9692321,16420
923.1983831,17206.6
927.4211813,16760
931.6376378,17416.6
935.8477637,16815.6
940.0515701,17101.4
944.249068,17153
948.4402684,16201.6
952.6251825,17105
956.8038212,16630.4
960.9761955,17445.4
965.1423166,16828.8
969.3021953,16796.6
973.4558427,16866
977.6032699,16663
981.7444877,16829.2
985.8795072,16733.8
990.0083394,16867
994.1309953,16386.8
998.2474857,16821.8
1002.357822,16008.4
1006.462014,16600.4
1010.560075,16416.8
1014.652013,16942.4
1018.737841,17251.4
1022.81757,16630.6
1026.891209,16570.4
1030.958771,16513.8
1035.020266,16878.2
1039.075705,16537.2
1043.1251,16222
1047.16846,16570.6
1051.205797,16422.6
1055.237121,16202.2
1059.262444,16218.4
1063.281777,16123
1067.295131,16394.6
1071.302515,17555
1075.303942,17094.6
1079.299422,17868
1083.288966,17323.4
1087.272585,16913
1091.250289,16676
1095.222091,16730.4
1099.187999,16397.8
1103.148026,16572.8
1107.102183,16387.8
1111.050479,16592
1114.992927,16512.8
1118.929536,16391.6
1122.860318,16622
1126.785283,16250
1130.704443,16214.2
1134.617808,17317.2
1138.52539,17306.2
1142.427198,17220.2
1146.323244,17138.6
1150.213538,16659.8
1154.098093,17096.2
1157.976917,16348.8
1161.850023,16247
1165.717421,16770.8
1169.579121,16459.4
1173.435135,16801
1177.285474,15921.6
1181.130148,16112.4
1184.969169,16610.6
1188.802547,16493.2
1192.630292,16128.4
1196.452416,15775.8
1200.26893,16004.2
1204.079844,15702
1207.88517,15312.8
1211.684917,15889.8
1215.479098,15548.4
1219.267722,17145.6
1223.050801,15525.4
1226.828346,15702.8
1230.600366,16123.2
1234.366874,15995
1238.12788,15773.4
1241.883395,15756.8
1245.633429,16033.2
1249.377994,16137.6
1253.1171,15251.8
1256.850759,15757
1260.578981,15673.6
1264.301776,15784.4
1268.019157,15734.2
1271.731133,15488.6
1275.437715,15454.6
1279.138915,15940.2
1282.834743,16274.6
1286.52521,15736.2
1290.210328,15485.8
1293.890106,15616.8
1297.564555,16109.4
1301.233688,15473.2
1304.897514,15924.4
1308.556044,16048.6
1312.209289,16035.6
1315.857261,15404.8
1319.499969,15480.2
1323.137425,16288.2
1326.769641,15824.8
1330.396626,16395
1334.018391,15788.2
1337.634948,15887
1341.246307,15638.4
1344.85248,15514
1348.453477,15420
1352.049309,15455.4
1355.639987,15498.2
1359.225522,16151.6
1362.805925,15651
1366.381207,15654
1369.951379,15644.2
1373.516452,15797.8
1377.076436,15976
1380.631343,15855
1384.181184,15562.4
1387.725969,15800
1391.26571,15550.6
1394.800417,15387.8
1398.330102,15515.4
1401.854776,15681.2
1405.374448,15464
1408.889132,14962
1412.398837,14630.8
1415.903574,14995.4
1419.403355,15606.2
1422.89819,15249.6
1426.388091,15209.2
1429.873069,15879
1433.353134,15264.6
1436.828298,15285
1440.298571,15355.4
1443.763965,14989.4
1447.224491,14781.2
1450.68016,14836.2
1454.130983,15274.8
1457.576971,15243.8
1461.018135,15394.2
1464.454486,15373.8
1467.886036,14832.4
1471.312794,14987.2
1474.734774,14664.6
1478.151985,15368
1481.564439,15061.4
1484.972146,14996.6
1488.375119,14536.8
1491.773368,15006
1495.166904,15621.2
1498.555739,14773.4
1501.939883,14962
1505.319349,14376.6
1508.694146,14787.4
1512.064286,14861.8
1515.429781,14879.6
1518.790642,14612
1522.146879,14950.4
1525.498505,14374.4
1528.845529,14325
1532.187965,15102.4
1535.525822,14719.4
1538.859112,14718.6
1542.187846,15306.2
1545.512036,14257
1548.831693,15769
1552.146829,15141.4
1555.457453,14456.4
1558.763579,14016.6
1562.065216,14381.8
1565.362377,14800.2
1568.655073,15109.4
1571.943315,14874.4
1575.227114,14772.8
1578.506482,14604
1581.781431,15408.2
1585.051971,14698
1588.318114,14715.6
1591.579872,14698.8
1594.837255,14513.8
1598.090275,14317.2
1601.338945,14276.2
1604.583274,14686.4
1607.823275,14263.4
1611.058959,13767.8
1614.290338,14562
1617.517422,13650.6
1620.740224,14163.4
1623.958755,13699.4
1627.173027,13736
1630.38305,13390.8
1633.588838,13832.4
1636.7904,13528.6
1639.987749,13835.8
1643.180896,13934.6
1646.369853,13193.8
1649.554632,14145.2
1652.735244,13506.4
1655.9117,13096.8
1659.084013,13505.6
1662.252193,14142.2
1665.416254,13210
1668.576205,13502
1671.732059,13864.6
1674.883828,13774.2
1678.031523,13225.4
1681.175157,13356.8
1684.314739,13354.8
1687.450284,13289.2
1690.581801,13115.4
1693.709304,12992.4
1696.832803,13087
1699.952311,13219.2
1703.067839,13330.6
1706.179399,13230.6
1709.287003,13637.8
1712.390663,13202.6
1715.49039,13240.6
1718.586197,13585.8
1721.678095,13468.2
1724.766096,13353.4
1727.850213,12684.4
1730.930456,13097.6
1734.006838,12965.4
1737.079372,13158.2
1740.148067,12918.2
1743.212938,13990
1746.273996,13095
1749.331252,13090.6
1752.384718,13075.2
1755.434408,13169
1758.480332,13112.8
1761.522503,13159.6
1764.560933,12855
1767.595634,12647.8
1770.626618,13299
1773.653896,13297.8
1776.677482,12906.4
1779.697388,12861
1782.713625,13429.6
1785.726205,13313.6
1788.735141,13361.6
1791.740445,12853.2
1794.742129,12849.2
1797.740206,13231
1800.734687,13372.2
1803.725585,13192.6
1806.712912,12993
1809.69668,12842.2
1812.676902,12877.2
1815.65359,12551.2
1818.626756,12655
1821.596413,12786
1824.562573,12432.8
1827.525247,12779.2
1830.48445,12664.4
1833.440192,12811.6
1836.392487,12641.4
1839.341347,12853.2
1842.286784,12893.6
1845.22881,12397.2
1848.167439,13097.6
1851.102682,12791
1854.034553,12733.6
1856.963063,12387.4
1859.888226,13510.8
1862.810053,12917.4
1865.728557,12690.8
1868.643751,12588.2
1871.555648,12479.4
1874.46426,12204.6
1877.369599,12960
1880.271679,12676.4
1883.170512,12623
1886.06611,13062.6
1888.958487,12698.6
1891.847655,12652.6
1894.733626,12757.4
1897.616414,12936.8
1900.496032,12428
1903.372491,12735.6
1906.245805,12956
1909.115987,13051.4
1911.983049,13016.2
1914.847004,12846.2
1917.707866,13022.8
1920.565646,12962.2
1923.420359,12507.4
1926.272016,12835
1929.120631,12497.6
1931.966216,12709.8
1934.808786,12598.8
1937.648351,12951.6
1940.484927,12787.8
1943.318525,12912.8
1946.149158,13115.6
1948.97684,14145.8
1951.801584,13143.4
1954.623403,12967.4
1957.44231,13012.4
1960.258318,12623
1963.071439,12607.4
1965.881688,12795.6
1968.689078,12830
1971.493621,12590.2
