Ramanshift[cm-1],Intensity
-93.47115107,14571.4
-87.69374369,13203.4
-81.9253076,12870.6
-76.16582701,13144.8
-70.41528615,13191.2
-64.67366933,12829.6
-58.94096086,12884.8
-53.21714512,13082.4
-47.50220652,13285.6
-41.79612954,13281.4
-36.09889866,13836.2
-30.41049843,13775
-24.73091343,13403.4
-19.0601283,13430
-13.39812769,13282.8
-7.744896327,12973.6
-2.100418946,12761.6
3.535319659,13480
9.162334658,12779
14.78064118,13115.4
20.39025432,12874.8
25.99118913,12879
31.58346061,13263.2
37.16708375,13116.4
42.74207347,12778
48.30844468,12843.4
53.86621222,12682.4
59.41539093,12393.8
64.95599558,12348.8
70.48804091,12724.6
76.01154164,12946
81.52651243,12278.6
87.03296792,12766
92.5309227,13056.6
98.02039134,12441.2
103.5013884,12750.4
108.9739282,12503
114.4380255,12559.4
119.8936944,12755.8
125.3409495,13664.8
130.779805,12446.8
136.2102753,12177.8
141.6323747,12261
147.0461174,12916.2
152.4515176,12442.2
157.8485895,12393.8
163.2373472,12259.6
168.6178049,12599.4
173.9899766,12934.6
179.3538764,12397.6
184.7095182,12598.2
190.0569161,12715
195.396084,12874.2
200.7270358,12252.4
206.0497854,12290.2
211.3643466,12071.6
216.6707333,12475.2
221.9689593,12090.4
227.2590382,12243.2
232.5409839,12235.8
237.8148101,12212.8
243.0805303,12301.6
248.3381582,12299.8
253.5877075,12057.8
258.8291917,12240.2
264.0626244,12165.4
269.288019,12519.6
274.5053891,12650
279.7147481,12295.2
284.9161094,11989.4
290.1094865,12309.6
295.2948927,12607.4
300.4723414,13618
305.6418459,14001.8
310.8034194,14493.8
315.9570752,15509.2
321.1028267,15645.6
326.2406869,15690.8
331.370669,15750
336.4927863,15917.8
341.6070517,15902.8
346.7134786,15671.4
351.8120798,16043.2
356.9028684,15472.2
361.9858576,15557
367.0610602,16056.2
372.1284892,15670.8
377.1881577,16051.8
382.2400784,15999.4
387.2842644,16117.6
392.3207284,16582.4
397.3494833,15919.8
402.370542,16143.6
407.3839172,15695.6
412.3896217,15525.4
417.3876683,15205.8
422.3780697,15377.8
427.3608386,15521.6
432.3359876,15876
437.3035295,15930
442.2634769,16083.4
447.2158423,15257
452.1606383,15268
457.0978776,15688.2
462.0275727,14867.8
466.9497361,15422.6
471.8643802,14741.4
476.7715176,15315.2
481.6711608,15182.2
486.5633221,15567
491.448014,15377.4
496.3252488,15151.4
501.195039,15305.8
506.0573969,15623
510.9123349,15276.6
515.7598651,14732.4
520.6,15291.2
525.4327518,15312.2
530.2581327,15359.2
535.076155,14735
539.8868309,15161.4
544.6901726,15349.4
549.4861922,15170.2
554.2749019,16040.6
559.0563139,15064.6
563.8304402,14843
568.597293,15947
573.3568844,15571.8
578.1092263,14932.6
582.8543308,15476.2
587.5922101,15300.6
592.322876,14963.8
597.0463405,15107.4
601.7626157,15353.6
606.4717135,14986
611.1736458,15000.2
615.8684246,15002.6
620.5560617,15277.2
625.2365691,15092.8
629.9099585,15387
634.5762419,15682.8
639.2354312,15006.8
643.887538,15286.2
648.5325743,15053.8
653.1705518,14941.6
657.8014823,15192.6
662.4253775,14473
667.0422493,14957
671.6521092,14918.2
676.2549691,15008.2
680.8508407,15043.6
685.4397355,14878.8
690.0216654,15073.8
694.5966419,14722.4
699.1646767,15284.2
703.7257814,14952
708.2799676,15210.6
712.827247,15248.4
717.367631,15023
721.9011314,15078.8
726.4277595,14356.8
730.9475271,15066.8
735.4604456,14960.2
739.9665264,15463.4
744.4657813,14959.2
748.9582215,14991.8
753.4438587,14459
757.9227042,14369.2
762.3947696,14869.4
766.8600662,14486.2
771.3186056,15862.8
775.770399,14900.2
780.215458,15217.4
784.6537939,14454.4
789.0854181,14432
793.510342,14496.2
797.9285769,15112.4
802.3401342,14539.4
806.7450253,14693.4
811.1432614,14688.4
815.5348538,14418.8
819.9198139,14282.2
824.2981531,14466.4
828.6698824,14649.6
833.0350133,14445
837.393557,14332.8
841.7455248,14585.2
846.0909278,14403.4
850.4297774,14334.6
854.7620848,14360.4
859.0878611,14579.6
863.4071176,13962.4
867.7198655,14447
872.026116,14871.2
876.3258802,15235.8
880.6191693,14769.2
884.9059946,14824.8
889.186367,15120.8
893.4602979,14098.4
897.7277982,14056.2
901.9888793,14311.2
906.2435521,14823
910.4918277,14179.4
914.7337174,14037.6
918.9692321,14012.2
923.1983831,14643.2
927.4211813,14402.6
931.6376378,14995
935.8477637,14346.4
940.0515701,14621
944.249068,14626.6
948.4402684,13940.4
952.6251825,14674.8
956.8038212,14191
960.9761955,14890
965.1423166,14456.6
969.3021953,14410.8
973.4558427,14420.4
977.6032699,14223.6
981.7444877,14245.4
985.8795072,14318
990.0083394,14392.4
994.1309953,14054.4
998.2474857,14544.6
1002.357822,13588
1006.462014,14255
1010.560075,14044.8
1014.652013,14353
1018.737841,14770
1022.81757,14207.6
1026.891209,14142.8
1030.958771,13968.6
1035.020266,14460.6
1039.075705,14161
1043.1251,13828.2
1047.16846,14143
1051.205797,14104.2
1055.237121,13791.6
1059.262444,13667.2
1063.281777,13544
1067.295131,13778.6
1071.302515,14932
1075.303942,14475.2
1079.299422,15391.4
1083.288966,14828.6
1087.272585,14459.8
1091.250289,14272
1095.222091,14268.2
1099.187999,13956.2
1103.148026,14047.4
1107.102183,13909.2
1111.050479,14131.2
1114.992927,14036.2
1118.929536,13968.8
1122.860318,14245.8
1126.785283,13836
1130.704443,13826.8
1134.617808,14789.8
1138.52539,14775.2
1142.427198,14661
1146.323244,14633.8
1150.213538,14220.2
1154.098093,14549.8
1157.976917,13835.8
1161.850023,13636.4
1165.717421,14220
1169.579121,13924
1173.435135,14264
1177.285474,13299.4
1181.130148,13684.4
1184.969169,14109.8
1188.802547,14052
1192.630292,13759
1196.452416,13448.4
1200.26893,13549.6
1204.079844,13346.2
1207.88517,12970.4
1211.684917,13581.8
1215.479098,13199.8
1219.267722,14756
1223.050801,13115.6
1226.828346,13215.8
1230.600366,13600.2
1234.366874,13447.8
1238.12788,13331
1241.883395,13332.8
1245.633429,13657.6
1249.377994,13654.8
1253.1171,12881.4
1256.850759,13319
1260.578981,13216.4
1264.301776,13294.6
1268.019157,13264.4
1271.731133,13016.2
1275.437715,12901
1279.138915,13391.8
1282.834743,13589.2
1286.52521,13155.2
1290.210328,13008.4
1293.890106,13192.4
1297.564555,13729.4
1301.233688,13017.8
1304.897514,13423.4
1308.556044,13343.4
1312.209289,13482
1315.857261,12954
1319.499969,12963.2
1323.137425,13810.8
1326.769641,13353.4
1330.396626,13925.6
1334.018391,13261.8
1337.634948,13355.6
1341.246307,13086.4
1344.85248,13126
1348.453477,13042.8
1352.049309,12945.8
1355.639987,12989.4
1359.225522,13687.6
1362.805925,13316
1366.381207,13262.4
1369.951379,13371
1373.516452,13427.6
1377.076436,13729.8
1380.631343,13585.4
1384.181184,13422.4
1387.725969,13515.2
1391.26571,13303.6
1394.800417,13123.6
1398.330102,13310
1401.854776,13451
1405.374448,13188.2
1408.889132,12787.6
1412.398837,12462.6
1415.903574,12816.8
1419.403355,13532.2
1422.89819,13111.4
1426.388091,13087.8
1429.873069,13619.6
1433.353134,13047.2
1436.828298,12954.4
1440.298571,13300.4
1443.763965,12869
1447.224491,12684
1450.68016,12711.2
1454.130983,13253.8
1457.576971,13122.2
1461.018135,13284.2
1464.454486,13434.6
1467.886036,13001
1471.312794,13025.6
1474.734774,12658
1478.151985,13408.6
1481.564439,13064.2
1484.972146,13002.2
1488.375119,12724.8
1491.773368,13000
1495.166904,13699.8
1498.555739,13006.2
1501.939883,13067.6
1505.319349,12600.2
1508.694146,12938.6
1512.064286,12986.2
1515.429781,12972.2
1518.790642,12810.4
1522.146879,13037.2
1525.498505,12529
1528.845529,12507.8
1532.187965,13251.6
1535.525822,12835.4
1538.859112,12932.4
1542.187846,13500.6
1545.512036,12486.2
1548.831693,13863
1552.146829,13293.2
1555.457453,12682.4
1558.763579,12185.6
1562.065216,12606
1565.362377,12920.8
1568.655073,13272.4
1571.943315,12960.8
1575.227114,12948.8
1578.506482,12897.6
1581.781431,13391.2
1585.051971,12992
1588.318114,12982.6
1591.579872,12978
1594.837255,12895.8
1598.090275,12673.8
1601.338945,12653.4
1604.583274,13119.8
1607.823275,12753.4
1611.058959,12330.2
1614.290338,13093
1617.517422,12293.4
1620.740224,12670.6
1623.958755,12310
1627.173027,12455
1630.38305,11962.6
1633.588838,12599.2
1636.7904,12340.2
1639.987749,12574.6
1643.180896,12690.4
1646.369853,12185.8
1649.554632,12958.2
1652.735244,12399
1655.9117,11915.8
1659.084013,12437.8
1662.252193,12990
1665.416254,12050.8
1668.576205,12431.8
1671.732059,12739.2
1674.883828,12670.8
1678.031523,12220
1681.175157,12366.6
1684.314739,12314.4
1687.450284,12309
1690.581801,12214.2
1693.709304,12086.2
1696.832803,12142.6
1699.952311,12294.6
1703.067839,12385.8
1706.179399,12226.6
1709.287003,12751.8
1712.390663,12361
1715.49039,12297.8
1718.586197,12702.4
1721.678095,12512.6
1724.766096,12634.6
1727.850213,12017.6
1730.930456,12272.8
1734.006838,12139.6
1737.079372,12390.6
1740.148067,12044.2
1743.212938,13181.2
1746.273996,12341.4
1749.331252,12313.8
1752.384718,12377.6
1755.434408,12422.8
1758.480332,12313
1761.522503,12357
1764.560933,12072.6
1767.595634,11845.2
1770.626618,12584.4
1773.653896,12590.4
1776.677482,12261.8
1779.697388,12174.2
1782.713625,12747
1785.726205,12660
1788.735141,12586.4
1791.740445,12121.4
1794.742129,12140.4
1797.740206,12637.8
1800.734687,12667
1803.725585,12414.6
1806.712912,12332.2
1809.69668,12149.6
1812.676902,12097
1815.65359,11817.4
1818.626756,11933
1821.596413,12184
1824.562573,11832.2
1827.525247,12181.4
1830.48445,12034.4
1833.440192,12256.2
1836.392487,12148
1839.341347,12279
1842.286784,12299
1845.22881,11821.8
1848.167439,12458
1851.102682,12136.8
1854.034553,12175.8
1856.963063,11911.2
1859.888226,12804.6
1862.810053,12347.6
1865.728557,12170.4
1868.643751,11865.2
1871.555648,11870.8
1874.46426,11608
1877.369599,12283
1880.271679,12074
1883.170512,11982.2
1886.06611,12485.6
1888.958487,12049.2
1891.847655,12074.6
1894.733626,12168.6
1897.616414,12289.6
1900.496032,11853.6
1903.372491,12047.6
1906.245805,12508.8
1909.115987,12470.8
1911.983049,12482.6
1914.847004,12227.2
1917.707866,12415.8
1920.565646,12423
1923.420359,11940
1926.272016,12282
1929.120631,11879
1931.966216,12180.6
1934.808786,12087.8
1937.648351,12364
1940.484927,12379.8
1943.318525,12385.4
1946.149158,12548
1948.97684,13794
1951.801584,12596.2
1954.623403,12338.6
1957.44231,12551.2
1960.258318,11986.8
1963.071439,12008
1965.881688,12196
1968.689078,12386
1971.493621,12131.6
