Ramanshift[cm-1],Intensity
-93.47115107,14461.6
-87.69374369,13225.6
-81.9253076,12913.6
-76.16582701,13089
-70.41528615,13153.6
-64.67366933,12783.8
-58.94096086,12812.8
-53.21714512,13039.2
-47.50220652,13239.4
-41.79612954,13142.2
-36.09889866,13655.4
-30.41049843,13714.8
-24.73091343,13365.2
-19.0601283,13462.6
-13.39812769,13278.4
-7.744896327,12906.2
-2.100418946,12752
3.535319659,13575.6
9.162334658,12754.2
14.78064118,13099.8
20.39025432,12660.4
25.99118913,12894.8
31.58346061,13297.2
37.16708375,13087.8
42.74207347,12724
48.30844468,12792.2
53.86621222,12700.6
59.41539093,12330.4
64.95599558,12265.2
70.48804091,12730
76.01154164,12796
81.52651243,12193.4
87.03296792,12743.6
92.5309227,13200
98.02039134,12348.8
103.5013884,12689
108.9739282,12508.2
114.4380255,12470.8
119.8936944,12734.2
125.3409495,13668.6
130.779805,12498
136.2102753,12093.8
141.6323747,12289.2
147.0461174,12863.2
152.4515176,12436.6
157.8485895,12395.4
163.2373472,12259.2
168.6178049,12590.6
173.9899766,12890.4
179.3538764,12407
184.7095182,12410
190.0569161,12680.8
195.396084,12856.4
200.7270358,12252.8
206.0497854,12530.6
211.3643466,11951.8
216.6707333,12428
221.9689593,12134.6
227.2590382,12256
232.5409839,12243
237.8148101,12022.6
243.0805303,12221.8
248.3381582,12307
253.5877075,11991.8
258.8291917,12233.2
264.0626244,12356.2
269.288019,12537.4
274.5053891,12530.4
279.7147481,12265.6
284.9161094,12050.2
290.1094865,12253
295.2948927,12639.8
300.4723414,13777.2
305.6418459,14418.6
310.8034194,15071.2
315.9570752,16098
321.1028267,16460.6
326.2406869,16425
331.370669,16553.2
336.4927863,16510.4
341.6070517,16778.4
346.7134786,16565.8
351.8120798,16879
356.9028684,16530.2
361.9858576,16564.2
367.0610602,16993.2
372.1284892,16625
377.1881577,17146
382.2400784,17056.4
387.2842644,17343.8
392.3207284,17863.2
397.3494833,17308.6
402.370542,17530.8
407.3839172,16925.4
412.3896217,16619.4
417.3876683,16357.8
422.3780697,16336.8
427.3608386,16437.2
432.3359876,16715.4
437.3035295,16887
442.2634769,16934.4
447.2158423,16182.6
452.1606383,16357.8
457.0978776,16461
462.0275727,15892.4
466.9497361,16267
471.8643802,15733.8
476.7715176,16233.4
481.6711608,16229.6
486.5633221,16474.2
491.448014,16301.2
496.3252488,16213.8
501.195039,16107.4
506.0573969,16514.6
510.9123349,16299.4
515.7598651,15763.6
520.6,16286.2
525.4327518,16206.8
530.2581327,16221.2
535.076155,15755.2
539.8868309,16016.4
544.6901726,16204.8
549.4861922,15817.4
554.2749019,16756.6
559.0563139,15816.4
563.8304402,15569
568.597293,16726.2
573.3568844,16361.8
578.1092263,15813.6
582.8543308,16348.8
587.5922101,16224.4
592.322876,15893.2
597.0463405,15980.6
601.7626157,16168.6
606.4717135,15816.4
611.1736458,15795.4
615.8684246,15853.2
620.5560617,16235.4
625.2365691,15887
629.9099585,16297
634.5762419,16642.6
639.2354312,15977.6
643.887538,16274
648.5325743,15899.6
653.1705518,15869.4
657.8014823,16121.4
662.4253775,15411.4
667.0422493,15786.6
671.6521092,15799.2
676.2549691,16059
680.8508407,15887.2
685.4397355,15822.8
690.0216654,15926
694.5966419,15630.8
699.1646767,16159
703.7257814,15867.8
708.2799676,16048
712.827247,16011.2
717.367631,15917.2
721.9011314,15906.2
726.4277595,15206.6
730.9475271,15946.4
735.4604456,15862.2
739.9665264,16388.2
744.4657813,15827
748.9582215,15707.4
753.4438587,15321.4
757.9227042,15236.6
762.3947696,15793.2
766.8600662,15214.4
771.3186056,16671
775.770399,15663.6
780.215458,16086.4
784.6537939,15328.8
789.0854181,15170.2
793.510342,15246.4
797.9285769,15919.8
802.3401342,15270.8
806.7450253,15401.8
811.1432614,15339.2
815.5348538,15349.4
819.9198139,15002.8
824.2981531,15289.8
828.6698824,15420.6
833.0350133,15298.8
837.393557,14897.2
841.7455248,15303.6
846.0909278,15153.2
850.4297774,15061
854.7620848,15102
859.0878611,15306.8
863.4071176,14671.8
867.7198655,15187.4
872.026116,15570.2
876.3258802,16004
880.6191693,15428
884.9059946,15471
889.186367,15920.4
893.4602979,14870.8
897.7277982,14843.8
901.9888793,15116
906.2435521,15529.4
910.4918277,15052.4
914.7337174,14865.2
918.9692321,14810
923.1983831,15406
927.4211813,14956.6
931.6376378,15682.6
935.8477637,15220.2
940.0515701,15380.4
944.249068,15472.8
948.4402684,14630.4
952.6251825,15481.2
956.8038212,15027.2
960.9761955,15835.4
965.1423166,15133.8
969.3021953,15268.6
973.4558427,15301.6
977.6032699,15054.4
981.7444877,15195
985.8795072,15153.6
990.0083394,15311.6
994.1309953,14971.8
998.2474857,15303.6
1002.357822,14543.8
1006.462014,15050.2
1010.560075,14841.2
1014.652013,15269
1018.737841,15591
1022.81757,14973.6
1026.891209,14996.2
1030.958771,14847.6
1035.020266,15232.2
1039.075705,14922.6
1043.1251,14799.8
1047.16846,15128.2
1051.205797,15040.6
1055.237121,14527.4
1059.262444,14589.6
1063.281777,14386.8
1067.295131,14521.6
1071.302515,15835.4
1075.303942,15459
1079.299422,16365.8
1083.288966,15895.2
1087.272585,15515.4
1091.250289,15279.4
1095.222091,15123.2
1099.187999,14867.8
1103.148026,15014.6
1107.102183,14848.6
1111.050479,15018
1114.992927,14877
1118.929536,14677.6
1122.860318,15057.4
1126.785283,14586.6
1130.704443,14539.4
1134.617808,15416.8
1138.52539,15223.2
1142.427198,15104.2
1146.323244,15149
1150.213538,14766.8
1154.098093,15178.8
1157.976917,14686.4
1161.850023,14523.8
1165.717421,15213.2
1169.579121,14857.8
1173.435135,15318.8
1177.285474,14351.6
1181.130148,14577.6
1184.969169,14974.8
1188.802547,14929.6
1192.630292,14551
1196.452416,14232.4
1200.26893,14476.6
1204.079844,14202.6
1207.88517,13767.8
1211.684917,14510.2
1215.479098,14098.8
1219.267722,15675.8
1223.050801,14202.2
1226.828346,14176
1230.600366,14470
1234.366874,14429
1238.12788,14190.4
1241.883395,14284.4
1245.633429,14619
1249.377994,14641.2
1253.1171,13801.2
1256.850759,14236.8
1260.578981,14248.6
1264.301776,14304.4
1268.019157,14233.2
1271.731133,13996.4
1275.437715,13709.4
1279.138915,14495.2
1282.834743,14650.6
1286.52521,14088.2
1290.210328,13907.6
1293.890106,14131.6
1297.564555,14710.4
1301.233688,13896.8
1304.897514,14315.8
1308.556044,14353
1312.209289,14517.2
1315.857261,13923.4
1319.499969,13919.2
1323.137425,14851.6
1326.769641,14227.8
1330.396626,14956
1334.018391,14264.8
1337.634948,14369.8
1341.246307,14080.6
1344.85248,14063.2
1348.453477,13960.2
1352.049309,13914.4
1355.639987,13959.2
1359.225522,14562.6
1362.805925,14130.6
1366.381207,14133.2
1369.951379,14255.2
1373.516452,14200.2
1377.076436,14457.8
1380.631343,14256.8
1384.181184,14115.6
1387.725969,14324.8
1391.26571,13878.4
1394.800417,13894.2
1398.330102,13969.6
1401.854776,14270
1405.374448,14079.2
1408.889132,13641
1412.398837,13261.6
1415.903574,13728.6
1419.403355,14217.8
1422.89819,13872.4
1426.388091,13767.4
1429.873069,14308.2
1433.353134,13793.4
1436.828298,13701.6
1440.298571,13921.4
1443.763965,13641.8
1447.224491,13477.8
1450.68016,13588.6
1454.130983,14059.8
1457.576971,13901.4
1461.018135,14095.6
1464.454486,14123.2
1467.886036,13746.8
1471.312794,13805.4
1474.734774,13445.2
1478.151985,14238.6
1481.564439,13919.2
1484.972146,13835.4
1488.375119,13468.6
1491.773368,13839
1495.166904,14452
1498.555739,13554.4
1501.939883,13858.8
1505.319349,13389.6
1508.694146,13776.8
1512.064286,13791.8
1515.429781,13720.4
1518.790642,13538.2
1522.146879,13915.2
1525.498505,13329.2
1528.845529,13319.6
1532.187965,14048.8
1535.525822,13715.2
1538.859112,13628.8
1542.187846,14252.4
1545.512036,13402
1548.831693,14681.4
1552.146829,14098.8
1555.457453,13392.8
1558.763579,12879.2
1562.065216,13545.4
1565.362377,13802.2
1568.655073,14042.4
1571.943315,13818
1575.227114,13722.4
1578.506482,13717.2
1581.781431,14301.8
1585.051971,13841
1588.318114,13879
1591.579872,13904.2
1594.837255,13719.8
1598.090275,13522.2
1601.338945,13412.8
1604.583274,13820.4
1607.823275,13467
1611.058959,12972.2
1614.290338,13756.4
1617.517422,12846.4
1620.740224,13282.4
1623.958755,12848.2
1627.173027,13027.2
1630.38305,12678.8
1633.588838,13131.8
1636.7904,12893
1639.987749,13115.8
1643.180896,13294.4
1646.369853,12734.8
1649.554632,13446.8
1652.735244,12843
1655.9117,12473.6
1659.084013,12856.2
1662.252193,13536.4
1665.416254,12653.8
1668.576205,12902.4
1671.732059,13094.4
1674.883828,13134.8
1678.031523,12569.4
1681.175157,12870.2
1684.314739,12790.2
1687.450284,12685.4
1690.581801,12610.2
1693.709304,12464.8
1696.832803,12463.6
1699.952311,12653.4
1703.067839,12638.2
1706.179399,12682.4
1709.287003,13116.6
1712.390663,12748.6
1715.49039,12717
1718.586197,13042.4
1721.678095,12877.8
1724.766096,12949.2
1727.850213,12240.4
1730.930456,12699.6
1734.006838,12440
1737.079372,12745.8
1740.148067,12402.4
1743.212938,13454
1746.273996,12642.8
1749.331252,12660
1752.384718,12678.4
1755.434408,12738.4
1758.480332,12635.6
1761.522503,12737.6
1764.560933,12401.6
1767.595634,12134
1770.626618,12988.8
1773.653896,12961.6
1776.677482,12474.6
1779.697388,12529.2
1782.713625,13055
1785.726205,12970.6
1788.735141,12999.8
1791.740445,12545.4
1794.742129,12396.2
1797.740206,12865.4
1800.734687,12951.2
1803.725585,12734.8
1806.712912,12593.2
1809.69668,12334.8
1812.676902,12446.6
1815.65359,12224.8
1818.626756,12301.4
1821.596413,12448.8
1824.562573,12067.2
1827.525247,12439.2
1830.48445,12250.6
1833.440192,12366.8
1836.392487,12274
1839.341347,12529.8
1842.286784,12639.2
1845.22881,12043.4
1848.167439,12730.4
1851.102682,12426.2
1854.034553,12418.8
1856.963063,12221.2
1859.888226,13171.6
1862.810053,12570.2
1865.728557,12427.2
1868.643751,12146.4
1871.555648,12188.6
1874.46426,11873.6
1877.369599,12565
1880.271679,12365.6
1883.170512,12154.4
1886.06611,12714.6
1888.958487,12393.2
1891.847655,12365.6
1894.733626,12502.2
1897.616414,12572.6
1900.496032,12102.6
1903.372491,12463.8
1906.245805,12702.2
1909.115987,12745.2
1911.983049,12722.6
1914.847004,12546.2
1917.707866,12730.6
1920.565646,12650.2
1923.420359,12268.8
1926.272016,12482.2
1929.120631,12127.8
1931.966216,12421
1934.808786,12257.8
1937.648351,12660.8
1940.484927,12612.4
1943.318525,12686.8
1946.149158,12790.8
1948.97684,13950
1951.801584,12906.8
1954.623403,12623.8
1957.44231,12697.2
1960.258318,12131.6
1963.071439,12220.4
1965.881688,12446.2
1968.689078,12649.6
1971.493621,12360.6
