Ramanshift[cm-1],Intensity
-93.47115107,14500.2
-87.69374369,13043.4
-81.9253076,12960.2
-76.16582701,13079.6
-70.41528615,13125.8
-64.67366933,12823.8
-58.94096086,12838.4
-53.21714512,13031.2
-47.50220652,13190.8
-41.79612954,13189.2
-36.09889866,13714
-30.41049843,13729.2
-24.73091343,13298.6
-19.0601283,13454.6
-13.39812769,13136.6
-7.744896327,12907.6
-2.100418946,12676.2
3.535319659,13369.8
9.162334658,12759.8
14.78064118,13061.2
20.39025432,12763.8
25.99118913,12773.8
31.58346061,13325
37.16708375,13065.4
42.74207347,12756.8
48.30844468,12757.8
53.86621222,12659.2
59.41539093,12333.2
64.95599558,12299.6
70.48804091,12696.4
76.01154164,12837
81.52651243,12258.2
87.03296792,12716.4
92.5309227,12999.6
98.02039134,12294.2
103.5013884,12688.8
108.9739282,12531.4
114.4380255,12491
119.8936944,12754.8
125.3409495,13562.4
130.779805,12431.8
136.2102753,12126
141.6323747,12197.4
147.0461174,12834.2
152.4515176,12416.2
157.8485895,12390
163.2373472,12215.6
168.6178049,12629
173.9899766,12886.2
179.3538764,12365
184.7095182,12448.4
190.0569161,12721.8
195.396084,12876.2
200.7270358,12238.4
206.0497854,12309.2
211.3643466,12017
216.6707333,12422.4
221.9689593,11991.4
227.2590382,12296
232.5409839,12121.4
237.8148101,12087.6
243.0805303,12180.2
248.3381582,12240.2
253.5877075,11976.2
258.8291917,12195.6
264.0626244,12322
269.288019,12481.8
274.5053891,12589.6
279.7147481,12427
284.9161094,12176.2
290.1094865,12734.6
295.2948927,14339
300.4723414,18174
305.6418459,22307.8
310.8034194,26143
315.9570752,28921.4
321.1028267,29674
326.2406869,30137.4
331.370669,30924.2
336.4927863,31659
341.6070517,31940.8
346.7134786,32048.6
351.8120798,32412
356.9028684,32496.8
361.9858576,32534.6
367.0610602,33195.6
372.1284892,33690
377.1881577,36257.6
382.2400784,40657.6
387.2842644,45847.6
392.3207284,47917.8
397.3494833,45097
402.370542,41584.6
407.3839172,38653.2
412.3896217,36062.6
417.3876683,34073
422.3780697,32928.8
427.3608386,31811.4
432.3359876,31921.2
437.3035295,31698.2
442.2634769,31669.8
447.2158423,30439.8
452.1606383,30231.6
457.0978776,30136.4
462.0275727,29389.6
466.9497361,29889
471.8643802,29164.2
476.7715176,29878.6
481.6711608,30657.4
486.5633221,31575.2
491.448014,30992.4
496.3252488,30459.2
501.195039,29926
506.0573969,29949.2
510.9123349,29361.2
515.7598651,28409.6
520.6,28682.2
525.4327518,28235.4
530.2581327,28208.6
535.076155,27713.8
539.8868309,28452.4
544.6901726,28462.8
549.4861922,27675.8
554.2749019,28078
559.0563139,26968.2
563.8304402,26778.6
568.597293,27794.6
573.3568844,27439
578.1092263,27020.4
582.8543308,27413.8
587.5922101,27284.6
592.322876,26800
597.0463405,27012
601.7626157,27377.6
606.4717135,26834
611.1736458,26765
615.8684246,26706.4
620.5560617,27259
625.2365691,27201.2
629.9099585,28287
634.5762419,28706.4
639.2354312,28405.4
643.887538,28188.4
648.5325743,27410
653.1705518,26908
657.8014823,27021
662.4253775,26114.4
667.0422493,26526.2
671.6521092,26571.2
676.2549691,26570
680.8508407,26440.8
685.4397355,26347.8
690.0216654,26624.4
694.5966419,26621.6
699.1646767,27705.6
703.7257814,27544.6
708.2799676,27740.8
712.827247,28182.6
717.367631,28030.8
721.9011314,27337.2
726.4277595,25886.4
730.9475271,26087.2
735.4604456,25679.8
739.9665264,26134.4
744.4657813,25661
748.9582215,25478.4
753.4438587,24847.2
757.9227042,24669
762.3947696,25184
766.8600662,24576.8
771.3186056,26045.6
775.770399,25001.2
780.215458,25317.8
784.6537939,24511.2
789.0854181,24694.2
793.510342,24955.8
797.9285769,25984
802.3401342,25780.4
806.7450253,26381.8
811.1432614,26249.2
815.5348538,26140
819.9198139,25513.6
824.2981531,25302
828.6698824,25094
833.0350133,24394.2
837.393557,23903.4
841.7455248,24254.4
846.0909278,23705.8
850.4297774,23713.2
854.7620848,23758.4
859.0878611,23841.8
863.4071176,23203
867.7198655,23702.8
872.026116,24051
876.3258802,24373.2
880.6191693,23862.4
884.9059946,23947.2
889.186367,24477.2
893.4602979,23405.2
897.7277982,23401
901.9888793,23971.4
906.2435521,24730
910.4918277,24440.4
914.7337174,24557.6
918.9692321,24848.8
923.1983831,25772.6
927.4211813,25256.8
931.6376378,26064.6
935.8477637,25557
940.0515701,25962
944.249068,26333.8
948.4402684,25512.6
952.6251825,26499.4
956.8038212,26070.4
960.9761955,26878.6
965.1423166,26451.2
969.3021953,26451.4
973.4558427,26383.4
977.6032699,26410
981.7444877,26231.4
985.8795072,26192.8
990.0083394,26268.8
994.1309953,26255.2
998.2474857,27624.8
1002.357822,28212.6
1006.462014,30604.4
1010.560075,29723.2
1014.652013,27671.6
1018.737841,26526.8
1022.81757,25375.2
1026.891209,25097
1030.958771,25018.4
1035.020266,25314
1039.075705,25014.6
1043.1251,25113.8
1047.16846,25599.4
1051.205797,26362.6
1055.237121,27563
1059.262444,30528
1063.281777,35937.4
1067.295131,44606.6
1071.302515,56047.8
1075.303942,62085.2
1079.299422,62182
1083.288966,53316.6
1087.272585,41671.4
1091.250289,33467.4
1095.222091,29367
1099.187999,26885.4
1103.148026,26624.2
1107.102183,26256.4
1111.050479,26595.8
1114.992927,26861.2
1118.929536,27994
1122.860318,30270.6
1126.785283,33361.4
1130.704443,39599.2
1134.617808,49688.4
1138.52539,59287.2
1142.427198,64331.6
1146.323244,60623.4
1150.213538,49940.2
1154.098093,41079
1157.976917,35773.6
1161.850023,34488.6
1165.717421,35387.4
1169.579121,35751.2
1173.435135,35992.8
1177.285474,34456.4
1181.130148,34385.6
1184.969169,34576.2
1188.802547,34035.2
1192.630292,32748.6
1196.452416,30070.6
1200.26893,27753.2
1204.079844,26242.4
1207.88517,25334.8
1211.684917,25943.8
1215.479098,25527.8
1219.267722,27169.2
1223.050801,25271.6
1226.828346,25526.6
1230.600366,25600.2
1234.366874,25261.6
1238.12788,24990.8
1241.883395,24880.4
1245.633429,25082.6
1249.377994,25002.2
1253.1171,24146.4
1256.850759,24415
1260.578981,24266.6
1264.301776,24348.4
1268.019157,24121
1271.731133,23917.6
1275.437715,23681.8
1279.138915,24215.6
1282.834743,24608.8
1286.52521,24216.2
1290.210328,24223
1293.890106,25078
1297.564555,26514.2
1301.233688,26415.4
1304.897514,26794
1308.556044,26561.8
1312.209289,26104
1315.857261,25137.6
1319.499969,25050.4
1323.137425,25848
1326.769641,25063.8
1330.396626,26074.2
1334.018391,25285.2
1337.634948,25452.6
1341.246307,25424.4
1344.85248,25519.8
1348.453477,25633.8
1352.049309,25811.2
1355.639987,25989.6
1359.225522,26689.2
1362.805925,26251.4
1366.381207,26469.4
1369.951379,26835
1373.516452,27309.8
1377.076436,28307.4
1380.631343,29703.6
1384.181184,32098
1387.725969,36240.6
1391.26571,38563.8
1394.800417,37336.8
1398.330102,32687.6
1401.854776,28738.2
1405.374448,25963.2
1408.889132,24774.6
1412.398837,24167.2
1415.903574,25170.4
1419.403355,27292.6
1422.89819,29713.8
1426.388091,33994
1429.873069,39853.6
1433.353134,44557.6
1436.828298,47779.8
1440.298571,48200.6
1443.763965,44520.2
1447.224491,39647
1450.68016,34316.6
1454.130983,30702.6
1457.576971,27986.2
1461.018135,26765.8
1464.454486,26455
1467.886036,26148.2
1471.312794,27244
1474.734774,27715.8
1478.151985,27666.2
1481.564439,25917.6
1484.972146,25107.4
1488.375119,24423.6
1491.773368,24779.6
1495.166904,24858
1498.555739,23809.2
1501.939883,23785.6
1505.319349,23271.2
1508.694146,23594.8
1512.064286,23714.2
1515.429781,23646.6
1518.790642,23605.4
1522.146879,23997
1525.498505,23653.8
1528.845529,23738.6
1532.187965,25035.8
1535.525822,25102
1538.859112,26096.2
1542.187846,27483
1545.512036,27530.4
1548.831693,29858.8
1552.146829,30330.2
1555.457453,30436.6
1558.763579,30588.6
1562.065216,31909.8
1565.362377,32705.2
1568.655073,33544.6
1571.943315,34073.2
1575.227114,34792.6
1578.506482,35372.4
1581.781431,35547.2
1585.051971,34243.8
1588.318114,33392.6
1591.579872,32034.8
1594.837255,29872.6
1598.090275,27450.6
1601.338945,25452.6
1604.583274,24095.2
1607.823275,22841.4
1611.058959,21489.4
1614.290338,21986.4
1617.517422,20531.6
1620.740224,20612.2
1623.958755,19804.4
1627.173027,19351.4
1630.38305,18706.2
1633.588838,18988.4
1636.7904,18438.2
1639.987749,18399.6
1643.180896,18373.8
1646.369853,17519.4
1649.554632,18193.8
1652.735244,17398.2
1655.9117,16926.6
1659.084013,17147.4
1662.252193,17681
1665.416254,16671.2
1668.576205,16922.4
1671.732059,17121.6
1674.883828,17106.2
1678.031523,16381.4
1681.175157,16575.4
1684.314739,16518.8
1687.450284,16324
1690.581801,16202.8
1693.709304,16035.8
1696.832803,15933.2
1699.952311,16167.6
1703.067839,16193.8
1706.179399,16050.4
1709.287003,16393.6
1712.390663,16006.4
1715.49039,16095
1718.586197,16320.2
1721.678095,16159.4
1724.766096,16075.6
1727.850213,15431.6
1730.930456,15708.2
1734.006838,15519.2
1737.079372,15764.4
1740.148067,15409.4
1743.212938,16374.2
1746.273996,15554.6
1749.331252,15441.8
1752.384718,15504.8
1755.434408,15441.8
1758.480332,15448.8
1761.522503,15497.4
1764.560933,15184.8
1767.595634,14861.8
1770.626618,15577.6
1773.653896,15527.4
1776.677482,15056.8
1779.697388,15133
1782.713625,15659.6
1785.726205,15642
1788.735141,15545.4
1791.740445,15100
1794.742129,14945.4
1797.740206,15551.4
1800.734687,15494
1803.725585,15284
1806.712912,15296.4
1809.69668,14908.6
1812.676902,14966.8
1815.65359,14598
1818.626756,14684
1821.596413,14853
1824.562573,14575.4
1827.525247,14912
1830.48445,14674.4
1833.440192,14857.8
1836.392487,14698.6
1839.341347,14909.2
1842.286784,14877.8
1845.22881,14447.2
1848.167439,15001.4
1851.102682,14825.4
1854.034553,14733.6
1856.963063,14519.4
1859.888226,15378
1862.810053,14925.2
1865.728557,14758.8
1868.643751,14444.8
1871.555648,14407.6
1874.46426,14152.8
1877.369599,14827.2
1880.271679,14554.6
1883.170512,14445
1886.06611,14925.8
1888.958487,14501.4
1891.847655,14529.6
1894.733626,14571.2
1897.616414,14738
1900.496032,14199.2
1903.372491,14590.4
1906.245805,14827.2
1909.115987,14838
1911.983049,14725
1914.847004,14733.2
1917.707866,14886.4
1920.565646,14799
1923.420359,14214.2
1926.272016,14505.4
1929.120631,14288.4
1931.966216,14481.6
1934.808786,14381.2
1937.648351,14638.2
1940.484927,14477.6
1943.318525,14623.4
1946.149158,14877.4
1948.97684,15958.6
1951.801584,14753.8
1954.623403,14647.6
1957.44231,14625.6
1960.258318,14234.4
1963.071439,14250.4
1965.881688,14367
1968.689078,14558.2
1971.493621,14177.8
