Ramanshift[cm-1],Intensity
-93.47115107,14497.2
-87.69374369,13130
-81.9253076,12914.2
-76.16582701,13152.4
-70.41528615,13085.2
-64.67366933,12833.4
-58.94096086,12812
-53.21714512,12999.6
-47.50220652,13196.2
-41.79612954,13208.2
-36.09889866,13649.8
-30.41049843,13722.2
-24.73091343,13386.2
-19.0601283,13415.4
-13.39812769,13199.6
-7.744896327,13028.2
-2.100418946,12780
3.535319659,13480.2
9.162334658,12881.6
14.78064118,13063
20.39025432,12789.2
25.99118913,12811.8
31.58346061,13343.4
37.16708375,13190.2
42.74207347,12774.6
48.30844468,12757.6
53.86621222,12644
59.41539093,12359.6
64.95599558,12367.2
70.48804091,12707
76.01154164,12850.4
81.52651243,12176
87.03296792,12715.4
92.5309227,13036.4
98.02039134,12287
103.5013884,12552.4
108.9739282,12488
114.4380255,12480.4
119.8936944,12719
125.3409495,13675.4
130.779805,12412
136.2102753,12198.6
141.6323747,12195.2
147.0461174,12830.2
152.4515176,12399.4
157.8485895,12401.6
163.2373472,12258.6
168.6178049,12560.4
173.9899766,12803.2
179.3538764,12314.4
184.7095182,12468.8
190.0569161,12638.2
195.396084,12840.6
200.7270358,12235.2
206.0497854,12220.4
211.3643466,12084.6
216.6707333,12441.8
221.9689593,12038.6
227.2590382,12205.4
232.5409839,12214
237.8148101,12184.4
243.0805303,12299.6
248.3381582,12230.4
253.5877075,12040.4
258.8291917,12195.6
264.0626244,12348.4
269.288019,12510.4
274.5053891,12600.6
279.7147481,12228.6
284.9161094,12078.6
290.1094865,12415.4
295.2948927,13357
300.4723414,15635
305.6418459,17591.2
310.8034194,19647.6
315.9570752,21413.4
321.1028267,21934.8
326.2406869,21983.2
331.370669,22251.8
336.4927863,22494.4
341.6070517,22823
346.7134786,22729
351.8120798,23167.6
356.9028684,22802.2
361.9858576,22927.6
367.0610602,23357.4
372.1284892,22915.2
377.1881577,23700
382.2400784,24197.6
387.2842644,25156.2
392.3207284,25788.8
397.3494833,24943.2
402.370542,24814.2
407.3839172,23658.6
412.3896217,23177.4
417.3876683,22463.4
422.3780697,22370
427.3608386,22156.4
432.3359876,22412.6
437.3035295,22500
442.2634769,22577.2
447.2158423,21601.4
452.1606383,21672.8
457.0978776,21876.2
462.0275727,21214.8
466.9497361,21682.6
471.8643802,21241.4
476.7715176,21976
481.6711608,22205.8
486.5633221,22645.2
491.448014,22288
496.3252488,21914.2
501.195039,21870.2
506.0573969,22013
510.9123349,21579.4
515.7598651,21049.8
520.6,21469
525.4327518,21494.6
530.2581327,21329.2
535.076155,20892.2
539.8868309,21552.8
544.6901726,21458.2
549.4861922,20949
554.2749019,21890.8
559.0563139,20897.4
563.8304402,20484.2
568.597293,21579.4
573.3568844,21228.6
578.1092263,20799.8
582.8543308,21264.8
587.5922101,21191.4
592.322876,20869.6
597.0463405,20930.8
601.7626157,21341.2
606.4717135,20642.4
611.1736458,20672.2
615.8684246,20867.2
620.5560617,21181.8
625.2365691,20792
629.9099585,21204.8
634.5762419,21402.2
639.2354312,20640.4
643.887538,20820.8
648.5325743,20549.6
653.1705518,20501.4
657.8014823,20713
662.4253775,19884.6
667.0422493,20391
671.6521092,20246.4
676.2549691,20407.8
680.8508407,20511
685.4397355,20327.4
690.0216654,20368.2
694.5966419,20238.2
699.1646767,20942.2
703.7257814,20546.4
708.2799676,20786.2
712.827247,21072.6
717.367631,20915
721.9011314,20569.8
726.4277595,19751.6
730.9475271,20262.4
735.4604456,20167.6
739.9665264,20503
744.4657813,20181.4
748.9582215,20046.8
753.4438587,19440.4
757.9227042,19287.2
762.3947696,19771.6
766.8600662,19284.8
771.3186056,20792.8
775.770399,19786.8
780.215458,19955.4
784.6537939,19268.6
789.0854181,19179
793.510342,19263
797.9285769,19847
802.3401342,19188.6
806.7450253,19432.4
811.1432614,19340.4
815.5348538,19127.6
819.9198139,18711.8
824.2981531,18975.2
828.6698824,19041.2
833.0350133,18847.4
837.393557,18527
841.7455248,18789.6
846.0909278,18580.4
850.4297774,18503.8
854.7620848,18637
859.0878611,18888.4
863.4071176,18287.4
867.7198655,18821.6
872.026116,19108.4
876.3258802,19498.8
880.6191693,18919
884.9059946,18983.8
889.186367,19394.6
893.4602979,18304.2
897.7277982,18136.2
901.9888793,18669.2
906.2435521,19146.8
910.4918277,18506.6
914.7337174,18616.6
918.9692321,18455
923.1983831,19177.2
927.4211813,18734.6
931.6376378,19457
935.8477637,18866.6
940.0515701,19159.8
944.249068,19144.8
948.4402684,18284
952.6251825,19231.8
956.8038212,18868.2
960.9761955,19506.8
965.1423166,18957.4
969.3021953,18931.4
973.4558427,19019.2
977.6032699,18697.4
981.7444877,18931
985.8795072,18883.4
990.0083394,18973
994.1309953,18548.8
998.2474857,18965.6
1002.357822,18248.2
1006.462014,18911
1010.560075,18529.4
1014.652013,18747.2
1018.737841,18924.2
1022.81757,18471.8
1026.891209,18358.2
1030.958771,18203.2
1035.020266,18540
1039.075705,18330
1043.1251,18087
1047.16846,18433.8
1051.205797,18494.6
1055.237121,18381.6
1059.262444,18981
1063.281777,19952
1067.295131,21282.6
1071.302515,23594.6
1075.303942,23014.8
1079.299422,23055
1083.288966,21276.4
1087.272585,19765
1091.250289,19019.2
1095.222091,18790.2
1099.187999,18214.6
1103.148026,18382.2
1107.102183,18044.2
1111.050479,18299.4
1114.992927,18382.2
1118.929536,18433.2
1122.860318,19220.4
1126.785283,19519.8
1130.704443,20597.8
1134.617808,22904.4
1138.52539,23724
1142.427198,23347.8
1146.323244,21800
1150.213538,20073.6
1154.098093,19677.2
1157.976917,18452.6
1161.850023,18188.2
1165.717421,18621
1169.579121,18278.4
1173.435135,18686.4
1177.285474,17800.8
1181.130148,18279
1184.969169,18725
1188.802547,18722.6
1192.630292,18451.2
1196.452416,17884.6
1200.26893,17641.8
1204.079844,17194.8
1207.88517,16825
1211.684917,17411.4
1215.479098,16928.4
1219.267722,18632.6
1223.050801,17037.4
1226.828346,17008
1230.600366,17368
1234.366874,17285.8
1238.12788,17090.4
1241.883395,17150.6
1245.633429,17421.6
1249.377994,17366.2
1253.1171,16710
1256.850759,17024.6
1260.578981,16855.2
1264.301776,16982.4
1268.019157,16921
1271.731133,16457
1275.437715,16500
1279.138915,17073.2
1282.834743,17285
1286.52521,16754.2
1290.210328,16712.8
1293.890106,16966.6
1297.564555,17561.8
1301.233688,17005.8
1304.897514,17447.2
1308.556044,17305.4
1312.209289,17277.4
1315.857261,16708.4
1319.499969,16707.6
1323.137425,17457.4
1326.769641,16804.6
1330.396626,17478.8
1334.018391,16809.8
1337.634948,17062.4
1341.246307,16655.2
1344.85248,16647.8
1348.453477,16542.8
1352.049309,16667.4
1355.639987,16695.4
1359.225522,17476.4
1362.805925,17078.8
1366.381207,17019.4
1369.951379,17227.8
1373.516452,17381.2
1377.076436,17842.6
1380.631343,18060.8
1384.181184,18471.6
1387.725969,18875.4
1391.26571,18497.2
1394.800417,17909.4
1398.330102,17289.4
1401.854776,17161.4
1405.374448,16808.4
1408.889132,16126.4
1412.398837,15974.8
1415.903574,16686.2
1419.403355,17833
1422.89819,18156.4
1426.388091,18903.6
1429.873069,19837.4
1433.353134,18902.6
1436.828298,18366.8
1440.298571,17803
1443.763965,17061.8
1447.224491,16458.6
1450.68016,16147.4
1454.130983,16554
1457.576971,16246.8
1461.018135,16392.2
1464.454486,16469.6
1467.886036,15979.4
1471.312794,16083
1474.734774,15763.2
1478.151985,16308.2
1481.564439,15926.6
1484.972146,15836
1488.375119,15408.8
1491.773368,15789.8
1495.166904,16434.2
1498.555739,15656.6
1501.939883,15628.8
1505.319349,15158
1508.694146,15480.6
1512.064286,15535.8
1515.429781,15597.4
1518.790642,15349
1522.146879,15786
1525.498505,15114.2
1528.845529,15130.2
1532.187965,15751.6
1535.525822,15503.6
1538.859112,15493.6
1542.187846,16196
1545.512036,15245
1548.831693,16498.2
1552.146829,16024
1555.457453,15567
1558.763579,15189.6
1562.065216,15875
1565.362377,16350
1568.655073,16784.2
1571.943315,16692.6
1575.227114,16717.6
1578.506482,16677.4
1581.781431,17102.6
1585.051971,16589
1588.318114,16393.6
1591.579872,16127
1594.837255,15583.8
1598.090275,15251.8
1601.338945,15158.4
1604.583274,15402.4
1607.823275,15011
1611.058959,14474.8
1614.290338,15185.2
1617.517422,14382
1620.740224,14750
1623.958755,14289.2
1627.173027,14408.2
1630.38305,14024.6
1633.588838,14433.8
1636.7904,14289.4
1639.987749,14389.6
1643.180896,14503.2
1646.369853,13854.2
1649.554632,14756
1652.735244,14083.4
1655.9117,13657.8
1659.084013,13985
1662.252193,14721
1665.416254,13756.2
1668.576205,14065.6
1671.732059,14145
1674.883828,14222.8
1678.031523,13816.8
1681.175157,13853.4
1684.314739,13883
1687.450284,13842.6
1690.581801,13727.8
1693.709304,13493.8
1696.832803,13573.4
1699.952311,13742.2
1703.067839,13764.2
1706.179399,13623.4
1709.287003,14083.2
1712.390663,13694
1715.49039,13735.2
1718.586197,13965
1721.678095,13987.2
1724.766096,13808.8
1727.850213,13284.8
1730.930456,13586
1734.006838,13384
1737.079372,13767.6
1740.148067,13263
1743.212938,14433.4
1746.273996,13580
1749.331252,13503.8
1752.384718,13553
1755.434408,13597.4
1758.480332,13541
1761.522503,13561.8
1764.560933,13271
1767.595634,13023.6
1770.626618,13763.2
1773.653896,13758.8
1776.677482,13306.4
1779.697388,13273.6
1782.713625,13845.4
1785.726205,13785
1788.735141,13778
1791.740445,13281.6
1794.742129,13331.4
1797.740206,13712.8
1800.734687,13749.6
1803.725585,13488
1806.712912,13471.8
1809.69668,13231.6
1812.676902,13219.6
1815.65359,12946.6
1818.626756,13052
1821.596413,13225.2
1824.562573,12857.4
1827.525247,13174.8
1830.48445,13009.8
1833.440192,13288
1836.392487,12976.6
1839.341347,13265
1842.286784,13296.4
1845.22881,12766.8
1848.167439,13379
1851.102682,13182.2
1854.034553,13122
1856.963063,12839.8
1859.888226,13899.2
1862.810053,13340.6
1865.728557,13173
1868.643751,12881.4
1871.555648,12903.2
1874.46426,12550.6
1877.369599,13192.2
1880.271679,13058
1883.170512,12822
1886.06611,13334.2
1888.958487,13016.8
1891.847655,13077
1894.733626,13111.8
1897.616414,13240.6
1900.496032,12742.6
1903.372491,13042
1906.245805,13360.4
1909.115987,13439.8
1911.983049,13288.4
1914.847004,13280.8
1917.707866,13352.8
1920.565646,13258
1923.420359,12837.6
1926.272016,13174.8
1929.120631,12816.2
1931.966216,13020.8
1934.808786,13005.4
1937.648351,13251.2
1940.484927,13094.6
1943.318525,13198.6
1946.149158,13408.2
1948.97684,14530.8
1951.801584,13410.8
1954.623403,13207.2
1957.44231,13289.8
1960.258318,12764.2
1963.071439,12830.6
1965.881688,13001.6
1968.689078,13207
1971.493621,12864.6
