Ramanshift[cm-1],Intensity
-93.47115107,14494.2
-87.69374369,13132.6
-81.9253076,12972.8
-76.16582701,13064.4
-70.41528615,13086.2
-64.67366933,12737.4
-58.94096086,12934.4
-53.21714512,12988.8
-47.50220652,13191
-41.79612954,13227.6
-36.09889866,13793.2
-30.41049843,13732.8
-24.73091343,13298.8
-19.0601283,13421.4
-13.39812769,13160.6
-7.744896327,12844.8
-2.100418946,12812
3.535319659,13441.8
9.162334658,12797.8
14.78064118,13153.8
20.39025432,12700.2
25.99118913,12889.4
31.58346061,13271.4
37.16708375,13127.2
42.74207347,12803.8
48.30844468,12815.6
53.86621222,12692.4
59.41539093,12391.8
64.95599558,12329.4
70.48804091,12638.8
76.01154164,12790.2
81.52651243,12181.2
87.03296792,12772
92.5309227,13071.8
98.02039134,12310.8
103.5013884,12691.6
108.9739282,12497.6
114.4380255,12458.6
119.8936944,12768.4
125.3409495,13683.6
130.779805,12449.4
136.2102753,12213.4
141.6323747,12264.4
147.0461174,12850.4
152.4515176,12432.4
157.8485895,12387.2
163.2373472,12300.8
168.6178049,12661.4
173.9899766,12940.6
179.3538764,12370.8
184.7095182,12448.4
190.0569161,12729.4
195.396084,12885.2
200.7270358,12272.4
206.0497854,12344
211.3643466,12047.4
216.6707333,12463
221.9689593,12081.8
227.2590382,12237.6
232.5409839,12186
237.8148101,12163.6
243.0805303,12250
248.3381582,12245.6
253.5877075,12161
258.8291917,12225.6
264.0626244,12316.2
269.288019,12459.6
274.5053891,12545.2
279.7147481,12278
284.9161094,12270.6
290.1094865,12775.4
295.2948927,14639.6
300.4723414,18705.6
305.6418459,23814
310.8034194,28355.6
315.9570752,31498
321.1028267,32416
326.2406869,32665.6
331.370669,33313.2
336.4927863,33758.2
341.6070517,34152
346.7134786,34670.6
351.8120798,34991.4
356.9028684,34765.4
361.9858576,34706
367.0610602,35119
372.1284892,34704.8
377.1881577,35467.4
382.2400784,36230.6
387.2842644,37550
392.3207284,38578
397.3494833,38072.4
402.370542,37658.8
407.3839172,36721
412.3896217,35509.2
417.3876683,34620.4
422.3780697,34128.6
427.3608386,33512.6
432.3359876,33896.4
437.3035295,33683
442.2634769,33716.4
447.2158423,32574.4
452.1606383,32475.2
457.0978776,32805.8
462.0275727,31852
466.9497361,32349.2
471.8643802,31904
476.7715176,32836
481.6711608,33529.6
486.5633221,34337.8
491.448014,33748.4
496.3252488,33129.8
501.195039,32461.4
506.0573969,32516
510.9123349,32047.8
515.7598651,31038.8
520.6,31585
525.4327518,31297
530.2581327,31383.4
535.076155,30831.6
539.8868309,31331.4
544.6901726,31397.6
549.4861922,30725.6
554.2749019,31295.2
559.0563139,30152
563.8304402,29942.2
568.597293,31130.6
573.3568844,30687.4
578.1092263,30079.2
582.8543308,30653.4
587.5922101,30660.8
592.322876,30177.4
597.0463405,30352
601.7626157,30769.4
606.4717135,30040.8
611.1736458,30068
615.8684246,29997.4
620.5560617,30463.8
625.2365691,30137.4
629.9099585,30639.2
634.5762419,30753.8
639.2354312,29940.8
643.887538,30182
648.5325743,29816
653.1705518,29845.8
657.8014823,29954
662.4253775,28964.8
667.0422493,29471
671.6521092,29397.4
676.2549691,29584.8
680.8508407,29514.4
685.4397355,29191.6
690.0216654,29321
694.5966419,29239.8
699.1646767,29861
703.7257814,29804.2
708.2799676,30149.6
712.827247,30538.2
717.367631,30418
721.9011314,30093.4
726.4277595,28865.8
730.9475271,29221.2
735.4604456,28869.8
739.9665264,29315.2
744.4657813,28837.8
748.9582215,28657
753.4438587,28052.4
757.9227042,27620.6
762.3947696,28059.2
766.8600662,27456.2
771.3186056,28874.6
775.770399,27866.8
780.215458,27944.8
784.6537939,27142.6
789.0854181,27037.2
793.510342,26947.2
797.9285769,27636.2
802.3401342,26924
806.7450253,27162.6
811.1432614,27010.8
815.5348538,26729.2
819.9198139,26429
824.2981531,26615
828.6698824,26569.2
833.0350133,26074.4
837.393557,25575.6
841.7455248,26035.4
846.0909278,25733
850.4297774,25619
854.7620848,25773.4
859.0878611,25809
863.4071176,25351.2
867.7198655,25830.8
872.026116,26189.2
876.3258802,26524.8
880.6191693,26002.4
884.9059946,25965.6
889.186367,26326.8
893.4602979,25132.4
897.7277982,24997.2
901.9888793,25614
906.2435521,26324.4
910.4918277,25700.2
914.7337174,25843.2
918.9692321,25907.6
923.1983831,26596.8
927.4211813,25869
931.6376378,26873.6
935.8477637,26181.4
940.0515701,26572
944.249068,26561.8
948.4402684,25683
952.6251825,26579.6
956.8038212,26229.6
960.9761955,26941.6
965.1423166,26419
969.3021953,26550.4
973.4558427,26538.6
977.6032699,26440
981.7444877,26431.2
985.8795072,26280.2
990.0083394,26337
994.1309953,26238.2
998.2474857,26779.4
1002.357822,26288
1006.462014,27608.4
1010.560075,27098.4
1014.652013,26784.2
1018.737841,26597
1022.81757,26133.8
1026.891209,25914.6
1030.958771,25592.2
1035.020266,26058
1039.075705,25833.4
1043.1251,25729
1047.16846,26210
1051.205797,26383.6
1055.237121,26870
1059.262444,28469.8
1063.281777,30900.8
1067.295131,34643.6
1071.302515,38961.6
1075.303942,39573
1079.299422,39169.8
1083.288966,35359.8
1087.272585,31380.2
1091.250289,28736.8
1095.222091,27744.8
1099.187999,26628.4
1103.148026,26553.6
1107.102183,26581.8
1111.050479,26896.4
1114.992927,27256.8
1118.929536,27557
1122.860318,29047.6
1126.785283,30540.4
1130.704443,34104.4
1134.617808,39703.8
1138.52539,44108
1142.427198,45637.4
1146.323244,42764.4
1150.213538,36985.4
1154.098093,32942.8
1157.976917,29580.6
1161.850023,28229
1165.717421,28350.6
1169.579121,27599.4
1173.435135,27918
1177.285474,27157.4
1181.130148,27680.4
1184.969169,28676.6
1188.802547,29302.4
1192.630292,28755.6
1196.452416,27388.6
1200.26893,26663.4
1204.079844,25746.4
1207.88517,25082.2
1211.684917,25687
1215.479098,25146.4
1219.267722,26800
1223.050801,25077.2
1226.828346,25158.2
1230.600366,25422.6
1234.366874,25272
1238.12788,25173.8
1241.883395,25336.4
1245.633429,25678
1249.377994,25630.6
1253.1171,25029.8
1256.850759,25164
1260.578981,25130.8
1264.301776,25088.6
1268.019157,25089.2
1271.731133,24799
1275.437715,24643.6
1279.138915,25351
1282.834743,25680.4
1286.52521,25246.4
1290.210328,25065.4
1293.890106,25439.4
1297.564555,26305.6
1301.233688,26006.4
1304.897514,26374
1308.556044,26274.8
1312.209289,26080.4
1315.857261,25257.8
1319.499969,25159.4
1323.137425,26018.4
1326.769641,25273.2
1330.396626,26036.6
1334.018391,25382.8
1337.634948,25585
1341.246307,25353.4
1344.85248,25393.6
1348.453477,25371
1352.049309,25571.4
1355.639987,25705.6
1359.225522,26693.6
1362.805925,25978.2
1366.381207,26161.8
1369.951379,26205
1373.516452,26639
1377.076436,27142
1380.631343,28030.8
1384.181184,29140.8
1387.725969,31179
1391.26571,31855.8
1394.800417,30803
1398.330102,28486
1401.854776,26834.4
1405.374448,25364.4
1408.889132,24751
1412.398837,24262
1415.903574,25186.4
1419.403355,26589
1422.89819,27902.2
1426.388091,29993
1429.873069,32942.6
1433.353134,34232.6
1436.828298,34679
1440.298571,34249.4
1443.763965,32333
1447.224491,29973.6
1450.68016,27872.6
1454.130983,26501.8
1457.576971,25380.8
1461.018135,24978.2
1464.454486,24619.8
1467.886036,24175.6
1471.312794,24643.8
1474.734774,24354.4
1478.151985,24684.4
1481.564439,23790.8
1484.972146,23083.6
1488.375119,22602.6
1491.773368,22658.8
1495.166904,23172.2
1498.555739,22336.4
1501.939883,22622.4
1505.319349,21790.2
1508.694146,22207.8
1512.064286,22157.8
1515.429781,22236.4
1518.790642,21997.8
1522.146879,22320
1525.498505,21849.8
1528.845529,21750.2
1532.187965,22600.2
1535.525822,22200.6
1538.859112,22378.2
1542.187846,23021.2
1545.512036,22193.4
1548.831693,23591.6
1552.146829,23218
1555.457453,22736.6
1558.763579,22484.2
1562.065216,23429.2
1565.362377,24188
1568.655073,25078.8
1571.943315,25552
1575.227114,25866.6
1578.506482,25850.4
1581.781431,25857.6
1585.051971,24775.6
1588.318114,24393
1591.579872,23786.8
1594.837255,22566.2
1598.090275,21655.4
1601.338945,21021.8
1604.583274,21001.4
1607.823275,20261.8
1611.058959,19782.6
1614.290338,20276
1617.517422,19244
1620.740224,19485.8
1623.958755,18967.6
1627.173027,18941.2
1630.38305,18414.6
1633.588838,18704.8
1636.7904,18422
1639.987749,18451.4
1643.180896,18401.6
1646.369853,17767
1649.554632,18516.8
1652.735244,17896
1655.9117,17181.6
1659.084013,17480
1662.252193,18159.8
1665.416254,17159.8
1668.576205,17306.4
1671.732059,17538.8
1674.883828,17518.2
1678.031523,17017
1681.175157,17002.2
1684.314739,17125.6
1687.450284,16830.4
1690.581801,16745.6
1693.709304,16438.2
1696.832803,16456.4
1699.952311,16602.4
1703.067839,16624.6
1706.179399,16592.6
1709.287003,16970.8
1712.390663,16537
1715.49039,16456
1718.586197,16739.8
1721.678095,16655
1724.766096,16553.2
1727.850213,15866.8
1730.930456,16182.8
1734.006838,16063.6
1737.079372,16534.4
1740.148067,15918.2
1743.212938,16952
1746.273996,16074.6
1749.331252,16016.2
1752.384718,15977.4
1755.434408,15976.2
1758.480332,15916.8
1761.522503,15908.8
1764.560933,15676
1767.595634,15291.6
1770.626618,15974
1773.653896,16027.4
1776.677482,15523.6
1779.697388,15632.6
1782.713625,16103.2
1785.726205,16048
1788.735141,16094
1791.740445,15451
1794.742129,15470.6
1797.740206,15951
1800.734687,15915.2
1803.725585,15795.8
1806.712912,15647
1809.69668,15341.6
1812.676902,15435.4
1815.65359,14985.2
1818.626756,15150.6
1821.596413,15335.6
1824.562573,14957.4
1827.525247,15288.6
1830.48445,15020.2
1833.440192,15273.2
1836.392487,15083.4
1839.341347,15259
1842.286784,15341.8
1845.22881,14768.4
1848.167439,15426.8
1851.102682,15068
1854.034553,15164.2
1856.963063,14872.6
1859.888226,15823.8
1862.810053,15295.6
1865.728557,15093
1868.643751,14784.4
1871.555648,14937
1874.46426,14494.6
1877.369599,15158
1880.271679,14928.8
1883.170512,14800.6
1886.06611,15233.8
1888.958487,14987
1891.847655,14927.8
1894.733626,15055
1897.616414,15122.8
1900.496032,14656.8
1903.372491,14927.8
1906.245805,15162.6
1909.115987,15238.4
1911.983049,15154.6
1914.847004,15052.6
1917.707866,15143.4
1920.565646,15117.8
1923.420359,14567.2
1926.272016,14959.4
1929.120631,14667
1931.966216,14849.2
1934.808786,14740.2
1937.648351,14950.6
1940.484927,14825.8
1943.318525,15039.8
1946.149158,15158.2
1948.97684,16293.4
1951.801584,15219.8
1954.623403,14916
1957.44231,15014
1960.258318,14484.6
1963.071439,14573.4
1965.881688,14657.2
1968.689078,14787.4
1971.493621,14557.2
