Ramanshift[cm-1],Intensity
-93.47115107,14546.8
-87.69374369,13296.8
-81.9253076,12970.6
-76.16582701,13096.6
-70.41528615,13102
-64.67366933,12826
-58.94096086,12846
-53.21714512,13157
-47.50220652,13205.4
-41.79612954,13234
-36.09889866,13728.2
-30.41049843,13788.8
-24.73091343,13380.4
-19.0601283,13484.8
-13.39812769,13175.4
-7.744896327,12957.6
-2.100418946,12691
3.535319659,13360.4
9.162334658,12731.4
14.78064118,13163.8
20.39025432,12760.2
25.99118913,12951.4
31.58346061,13345.4
37.16708375,13157.2
42.74207347,12760.6
48.30844468,12711.4
53.86621222,12609
59.41539093,12318.2
64.95599558,12310.6
70.48804091,12668
76.01154164,12843.2
81.52651243,12251.4
87.03296792,12842.8
92.5309227,13089.4
98.02039134,12354.2
103.5013884,12657.4
108.9739282,12594
114.4380255,12449.4
119.8936944,12710.2
125.3409495,13629.6
130.779805,12407.6
136.2102753,12121.2
141.6323747,12306.2
147.0461174,12855.2
152.4515176,12349.6
157.8485895,12399.8
163.2373472,12351.4
168.6178049,12651.4
173.9899766,12877.2
179.3538764,12402.6
184.7095182,12487.6
190.0569161,12705
195.396084,12849
200.7270358,12252.2
206.0497854,12451.4
211.3643466,12072.8
216.6707333,12441.8
221.9689593,12048
227.2590382,12246.4
232.5409839,12203.8
237.8148101,12033.6
243.0805303,12309.2
248.3381582,12242.2
253.5877075,12127
258.8291917,12205.8
264.0626244,12217.8
269.288019,12552.8
274.5053891,12696.2
279.7147481,12176.4
284.9161094,12098.8
290.1094865,12243.8
295.2948927,13096.2
300.4723414,14753.8
305.6418459,15861.2
310.8034194,17123.8
315.9570752,18383.6
321.1028267,18760.6
326.2406869,18879
331.370669,18898
336.4927863,19075.2
341.6070517,19244
346.7134786,19231.8
351.8120798,19474.6
356.9028684,19146.6
361.9858576,19280.4
367.0610602,19627.2
372.1284892,19198.8
377.1881577,19798.4
382.2400784,19849
387.2842644,20076.6
392.3207284,20541
397.3494833,19934.4
402.370542,20110.4
407.3839172,19564.6
412.3896217,19128.4
417.3876683,18601.2
422.3780697,18758
427.3608386,18716.2
432.3359876,19073.2
437.3035295,19269.4
442.2634769,19339.4
447.2158423,18500.4
452.1606383,18543.4
457.0978776,18788.8
462.0275727,18136.4
466.9497361,18719.6
471.8643802,18078.6
476.7715176,18486.4
481.6711608,18560.8
486.5633221,18721.6
491.448014,18567.6
496.3252488,18398.2
501.195039,18474.4
506.0573969,18785
510.9123349,18444
515.7598651,17943.4
520.6,18671.6
525.4327518,18541.6
530.2581327,18453.4
535.076155,17829.6
539.8868309,18128.4
544.6901726,18204
549.4861922,17943.4
554.2749019,18896.4
559.0563139,17889.8
563.8304402,17568.2
568.597293,18740.2
573.3568844,18369.6
578.1092263,17874.6
582.8543308,18229
587.5922101,18202.4
592.322876,17863.4
597.0463405,17879.8
601.7626157,18208.8
606.4717135,17788.4
611.1736458,17824.2
615.8684246,17971.8
620.5560617,18280.4
625.2365691,17962.4
629.9099585,18264.4
634.5762419,18575.8
639.2354312,17803.8
643.887538,18017
648.5325743,17828
653.1705518,17658.4
657.8014823,17894.6
662.4253775,17241.4
667.0422493,17723.8
671.6521092,17578.6
676.2549691,17815
680.8508407,17876
685.4397355,17610.6
690.0216654,17719.2
694.5966419,17466.4
699.1646767,17950.8
703.7257814,17791.4
708.2799676,17810.8
712.827247,17986
717.367631,17633.2
721.9011314,17593.8
726.4277595,17000
730.9475271,17682
735.4604456,17567.2
739.9665264,18024.8
744.4657813,17536.4
748.9582215,17465.6
753.4438587,17032.8
757.9227042,16900
762.3947696,17362
766.8600662,16878.6
771.3186056,18280.8
775.770399,17442
780.215458,17703
784.6537939,16911.4
789.0854181,16733.8
793.510342,16846.6
797.9285769,17380.4
802.3401342,16796.6
806.7450253,16925.4
811.1432614,16859.4
815.5348538,16604
819.9198139,16340
824.2981531,16738.6
828.6698824,16757.6
833.0350133,16613
837.393557,16317.8
841.7455248,16619.8
846.0909278,16500.8
850.4297774,16404.4
854.7620848,16484
859.0878611,16674.4
863.4071176,16107.2
867.7198655,16625.2
872.026116,16835.2
876.3258802,17428.4
880.6191693,16863.4
884.9059946,16813.2
889.186367,17280.8
893.4602979,16144.4
897.7277982,15966.8
901.9888793,16464
906.2435521,16758
910.4918277,16274.2
914.7337174,16108.2
918.9692321,16133
923.1983831,16624.2
927.4211813,16385
931.6376378,17061.8
935.8477637,16524.2
940.0515701,16752
944.249068,16766.6
948.4402684,15954.8
952.6251825,16951.6
956.8038212,16467.8
960.9761955,17118
965.1423166,16629
969.3021953,16625.6
973.4558427,16552
977.6032699,16449
981.7444877,16475.8
985.8795072,16456.6
990.0083394,16560
994.1309953,16289.6
998.2474857,16621.2
1002.357822,15809.8
1006.462014,16435.2
1010.560075,16209.8
1014.652013,16614
1018.737841,16859.4
1022.81757,16248.4
1026.891209,16295.8
1030.958771,16160.8
1035.020266,16472
1039.075705,16283.4
1043.1251,16001.4
1047.16846,16318.4
1051.205797,16128.2
1055.237121,15965
1059.262444,15972.8
1063.281777,15991.6
1067.295131,16319.6
1071.302515,17689.8
1075.303942,17098.6
1079.299422,18123
1083.288966,17272.6
1087.272585,16716.2
1091.250289,16490.4
1095.222091,16419
1099.187999,16083.4
1103.148026,16412.4
1107.102183,16080.4
1111.050479,16305.2
1114.992927,16287.2
1118.929536,16011
1122.860318,16446.4
1126.785283,15896.2
1130.704443,16207.6
1134.617808,17033
1138.52539,16942.6
1142.427198,16827.6
1146.323244,16863
1150.213538,16266
1154.098093,16796.2
1157.976917,16130.6
1161.850023,16021.4
1165.717421,16648.6
1169.579121,16232
1173.435135,16660.2
1177.285474,15902.6
1181.130148,16191
1184.969169,16478.2
1188.802547,16477.6
1192.630292,16047.6
1196.452416,15982
1200.26893,15865
1204.079844,15768.4
1207.88517,15354.2
1211.684917,16078.4
1215.479098,15488.6
1219.267722,17092.4
1223.050801,15534.8
1226.828346,15586.4
1230.600366,15890
1234.366874,15802.2
1238.12788,15684
1241.883395,15668.2
1245.633429,16120.6
1249.377994,16116
1253.1171,15343.2
1256.850759,15876.2
1260.578981,15649
1264.301776,15845.2
1268.019157,15669.4
1271.731133,15454.6
1275.437715,15315.2
1279.138915,15835.8
1282.834743,16122.8
1286.52521,15582.6
1290.210328,15559
1293.890106,15637.4
1297.564555,16199
1301.233688,15505.2
1304.897514,15881.4
1308.556044,16004.4
1312.209289,16138.4
1315.857261,15556.6
1319.499969,15752.2
1323.137425,16590.8
1326.769641,16131
1330.396626,16842.6
1334.018391,16090.8
1337.634948,16229.4
1341.246307,15917.6
1344.85248,15879.2
1348.453477,15627.4
1352.049309,15644.6
1355.639987,15648
1359.225522,16301.4
1362.805925,15776.2
1366.381207,15852.4
1369.951379,15796.4
1373.516452,15868.6
1377.076436,16078.8
1380.631343,15802.4
1384.181184,15712.2
1387.725969,15938.2
1391.26571,15657.2
1394.800417,15551.4
1398.330102,15750.4
1401.854776,15883.6
1405.374448,15527.6
1408.889132,15136.6
1412.398837,14792.8
1415.903574,15109
1419.403355,15839.8
1422.89819,15388.8
1426.388091,15284.6
1429.873069,16062.2
1433.353134,15352.2
1436.828298,15203.8
1440.298571,15358.2
1443.763965,15000.6
1447.224491,14791.8
1450.68016,14711.6
1454.130983,15291.8
1457.576971,15155.8
1461.018135,15292.6
1464.454486,15490.8
1467.886036,14914.4
1471.312794,15037.8
1474.734774,14712.6
1478.151985,15509.2
1481.564439,15162.4
1484.972146,15099.4
1488.375119,14682.8
1491.773368,15102.6
1495.166904,15743.4
1498.555739,14812.8
1501.939883,14905
1505.319349,14412.8
1508.694146,14758
1512.064286,14773.4
1515.429781,14855.2
1518.790642,14615.8
1522.146879,15120.4
1525.498505,14417.8
1528.845529,14319.2
1532.187965,15178.6
1535.525822,14772.6
1538.859112,14842.8
1542.187846,15389.6
1545.512036,14311.8
1548.831693,15777.8
1552.146829,15172.2
1555.457453,14552.2
1558.763579,14138.2
1562.065216,14626.2
1565.362377,14912.6
1568.655073,15209
1571.943315,15024.2
1575.227114,14939.8
1578.506482,14876.2
1581.781431,15403
1585.051971,14883
1588.318114,14879
1591.579872,14834.8
1594.837255,14578.8
1598.090275,14354.4
1601.338945,14332.4
1604.583274,14631
1607.823275,14204
1611.058959,13835.4
1614.290338,14578.2
1617.517422,13671
1620.740224,14065.6
1623.958755,13650.4
1627.173027,13787.6
1630.38305,13340.8
1633.588838,13823.6
1636.7904,13484
1639.987749,13741.4
1643.180896,13868.2
1646.369853,13200.6
1649.554632,14169.4
1652.735244,13344.6
1655.9117,13004
1659.084013,13402.6
1662.252193,13937.6
1665.416254,13098.6
1668.576205,13424.4
1671.732059,13541.8
1674.883828,13639
1678.031523,13119.2
1681.175157,13170.8
1684.314739,13230
1687.450284,13146.8
1690.581801,13074
1693.709304,12824.4
1696.832803,12983.2
1699.952311,13129
1703.067839,13086.2
1706.179399,13091.4
1709.287003,13436.6
1712.390663,13149.8
1715.49039,13120
1718.586197,13405.4
1721.678095,13200.4
1724.766096,13221.6
1727.850213,12663
1730.930456,13128.4
1734.006838,12814.6
1737.079372,13223.8
1740.148067,12671.4
1743.212938,13808
1746.273996,12986
1749.331252,12873.4
1752.384718,12901.2
1755.434408,12960.4
1758.480332,12973.8
1761.522503,12946.8
1764.560933,12720.4
1767.595634,12420.2
1770.626618,13208.6
1773.653896,13232.2
1776.677482,12782.8
1779.697388,12667.4
1782.713625,13326.4
1785.726205,13183.8
1788.735141,13195.8
1791.740445,12689
1794.742129,12591.2
1797.740206,13294.8
1800.734687,13300.2
1803.725585,12996.6
1806.712912,13035.8
1809.69668,12641.4
1812.676902,12780.6
1815.65359,12361.8
1818.626756,12525.8
1821.596413,12652.2
1824.562573,12304
1827.525247,12682.2
1830.48445,12488.4
1833.440192,12683.8
1836.392487,12537.6
1839.341347,12787
1842.286784,12704.4
1845.22881,12215
1848.167439,12928
1851.102682,12746.6
1854.034553,12736.6
1856.963063,12465.8
1859.888226,13325.6
1862.810053,12762
1865.728557,12628.8
1868.643751,12363.6
1871.555648,12394.6
1874.46426,12119.8
1877.369599,12781
1880.271679,12605.6
1883.170512,12391.6
1886.06611,12948.6
1888.958487,12565
1891.847655,12603.4
1894.733626,12708.6
1897.616414,12873.6
1900.496032,12325.2
1903.372491,12553
1906.245805,12891.4
1909.115987,12928.2
1911.983049,12806.2
1914.847004,12811
1917.707866,13020.2
1920.565646,12910
1923.420359,12399.8
1926.272016,12602.6
1929.120631,12332.2
1931.966216,12627.4
1934.808786,12578
1937.648351,12848.4
1940.484927,12711.4
1943.318525,12873.6
1946.149158,13056.2
1948.97684,14143.2
1951.801584,12947
1954.623403,12743.2
1957.44231,12945.8
1960.258318,12389
1963.071439,12357.6
1965.881688,12649.6
1968.689078,12820.4
1971.493621,12413.6
