Ramanshift[cm-1],Intensity
-93.47115107,12661
-87.69374369,11608.2
-81.9253076,11483.4
-76.16582701,11454.4
-70.41528615,11490.4
-64.67366933,11304.8
-58.94096086,11175
-53.21714512,11506.6
-47.50220652,11636.6
-41.79612954,11609.4
-36.09889866,11978.4
-30.41049843,12155
-24.73091343,11800.6
-19.0601283,11698.2
-13.39812769,11582
-7.744896327,11357.4
-2.100418946,11250.8
3.535319659,11721.2
9.162334658,11206.2
14.78064118,11610.8
20.39025432,11259.6
25.99118913,11332.2
31.58346061,11771.8
37.16708375,11535.8
42.74207347,11280.2
48.30844468,11329.8
53.86621222,11215.2
59.41539093,10900
64.95599558,10831.2
70.48804091,11195
76.01154164,11296
81.52651243,10710.6
87.03296792,11270
92.5309227,11447.6
98.02039134,10857.6
103.5013884,11144
108.9739282,11027.8
114.4380255,11047.4
119.8936944,11227.8
125.3409495,11994.6
130.779805,11033.4
136.2102753,10759.8
141.6323747,10863
147.0461174,11363.8
152.4515176,10989
157.8485895,10980.2
163.2373472,10859.4
168.6178049,11166.6
173.9899766,11436.8
179.3538764,10956.4
184.7095182,11043.2
190.0569161,11185.6
195.396084,11384.6
200.7270358,10828.8
206.0497854,10927.4
211.3643466,10726
216.6707333,11019.8
221.9689593,10691.6
227.2590382,10979.2
232.5409839,10867
237.8148101,10818.2
243.0805303,10885
248.3381582,10870
253.5877075,10840
258.8291917,10986
264.0626244,11057.8
269.288019,11315.4
274.5053891,11520.2
279.7147481,11554.8
284.9161094,12602
290.1094865,17099
295.2948927,30775.8
300.4723414,60486.6
305.6418459,64157.2
310.8034194,64157.6
315.9570752,64157.8
321.1028267,64157.6
326.2406869,64158.4
331.370669,64157.8
336.4927863,64158.2
341.6070517,64158.8
346.7134786,64158.2
351.8120798,64158.6
356.9028684,64159
361.9858576,64159
367.0610602,64158.6
372.1284892,64159
377.1881577,64158.8
382.2400784,64158.8
387.2842644,64159.2
392.3207284,64159
397.3494833,64159.4
402.370542,64159
407.3839172,64158.6
412.3896217,64159.2
417.3876683,64159.4
422.3780697,64158.6
427.3608386,64159.2
432.3359876,64159.4
437.3035295,64159
442.2634769,64159.6
447.2158423,64159.4
452.1606383,64158.6
457.0978776,64158.2
462.0275727,64158.8
466.9497361,64159.2
471.8643802,64159.2
476.7715176,64159.2
481.6711608,64159
486.5633221,64158.8
491.448014,64159.2
496.3252488,64159.2
501.195039,64158.8
506.0573969,64158.6
510.9123349,64158.2
515.7598651,64159.6
520.6,64159
525.4327518,64159.2
530.2581327,64159.4
535.076155,64160.2
539.8868309,64159.4
544.6901726,64159.2
549.4861922,64158.8
554.2749019,64159.4
559.0563139,64159.4
563.8304402,64160.4
568.597293,64159.2
573.3568844,64158.4
578.1092263,64159.6
582.8543308,64159.2
587.5922101,64158.2
592.322876,64158.8
597.0463405,64158.4
601.7626157,64159.2
606.4717135,64159
611.1736458,64158.6
615.8684246,64158.4
620.5560617,64158.8
625.2365691,64158.4
629.9099585,64158.6
634.5762419,64158.4
639.2354312,64158
643.887538,64157.6
648.5325743,64158.6
653.1705518,64157.8
657.8014823,64158.2
662.4253775,64158.2
667.0422493,64157.6
671.6521092,64157.4
676.2549691,64158.2
680.8508407,64158.4
685.4397355,64158
690.0216654,64157.8
694.5966419,64158.2
699.1646767,64158
703.7257814,64158.8
708.2799676,64158.4
712.827247,64158.8
717.367631,64158.8
721.9011314,64159
726.4277595,64158.2
730.9475271,64158.8
735.4604456,64158.6
739.9665264,64159.2
744.4657813,64158.8
748.9582215,64158.8
753.4438587,64158.8
757.9227042,64158.8
762.3947696,64159
766.8600662,64159.6
771.3186056,64159.4
775.770399,64159.4
780.215458,64159.4
784.6537939,64158.6
789.0854181,64159.4
793.510342,64159.8
797.9285769,64159.2
802.3401342,64159.6
806.7450253,64159
811.1432614,64159
815.5348538,64159.4
819.9198139,64159.6
824.2981531,64159
828.6698824,64159.6
833.0350133,64159.6
837.393557,64158.6
841.7455248,64159.2
846.0909278,64158.8
850.4297774,64158.6
854.7620848,64159.2
859.0878611,64158
863.4071176,64157.8
867.7198655,64158
872.026116,64158.6
876.3258802,64157.4
880.6191693,64157.8
884.9059946,64157.4
889.186367,64157.6
893.4602979,64157.6
897.7277982,64157.4
901.9888793,64157.2
906.2435521,64157.4
910.4918277,64157
914.7337174,64157.8
918.9692321,64157.8
923.1983831,64158.2
927.4211813,64158.2
931.6376378,64158
935.8477637,64158.8
940.0515701,64159
944.249068,64159.2
948.4402684,64159
952.6251825,64158.4
956.8038212,64159.4
960.9761955,64159
965.1423166,64159
969.3021953,64158.6
973.4558427,64159.2
977.6032699,64159.4
981.7444877,64159
985.8795072,64158.8
990.0083394,64158.6
994.1309953,64158.8
998.2474857,64158
1002.357822,64159.2
1006.462014,64159.6
1010.560075,64159
1014.652013,64159.8
1018.737841,64159.4
1022.81757,64159.2
1026.891209,64159
1030.958771,64159.4
1035.020266,64159
1039.075705,64158.6
1043.1251,64160.2
1047.16846,64158.8
1051.205797,64158.8
1055.237121,64159
1059.262444,64159
1063.281777,64158.6
1067.295131,64158.8
1071.302515,64158.6
1075.303942,64158.2
1079.299422,64158.2
1083.288966,64158.6
1087.272585,64157.8
1091.250289,64157.8
1095.222091,64157.8
1099.187999,64157.4
1103.148026,64158.2
1107.102183,64157.6
1111.050479,64158
1114.992927,64158
1118.929536,64158.2
1122.860318,64157.8
1126.785283,64158
1130.704443,64158
1134.617808,64159
1138.52539,64158.2
1142.427198,64159
1146.323244,64158.6
1150.213538,64159.2
1154.098093,64158.8
1157.976917,64159.2
1161.850023,64159.4
1165.717421,64159
1169.579121,64159
1173.435135,64159.4
1177.285474,64159
1181.130148,64159.4
1184.969169,64159.6
1188.802547,64159.8
1192.630292,64159.4
1196.452416,64159.8
1200.26893,64159.6
1204.079844,64159.4
1207.88517,64159
1211.684917,64159.8
1215.479098,64159.2
1219.267722,64159.6
1223.050801,64159.2
1226.828346,64158.4
1230.600366,64158.8
1234.366874,64159.8
1238.12788,64159
1241.883395,64159.4
1245.633429,64158.6
1249.377994,64159
1253.1171,64159.2
1256.850759,64159.2
1260.578981,64159
1264.301776,64159.2
1268.019157,64159
1271.731133,64159.4
1275.437715,64159.2
1279.138915,64159.4
1282.834743,64159
1286.52521,64158.8
1290.210328,64159.2
1293.890106,64159
1297.564555,64158.6
1301.233688,64159.4
1304.897514,64159.2
1308.556044,64159.8
1312.209289,64159.6
1315.857261,64159.8
1319.499969,64159.6
1323.137425,64160
1326.769641,64160.6
1330.396626,64160.4
1334.018391,64160.6
1337.634948,64160.6
1341.246307,64160.6
1344.85248,64160.4
1348.453477,64161.2
1352.049309,64161.6
1355.639987,64162.4
1359.225522,64162.2
1362.805925,64161.8
1366.381207,64162
1369.951379,64162
1373.516452,64160.8
1377.076436,64160.8
1380.631343,64161.4
1384.181184,64160.8
1387.725969,64161.2
1391.26571,64160.8
1394.800417,64160
1398.330102,64160.4
1401.854776,64159.6
1405.374448,64160.6
1408.889132,64159.8
1412.398837,64159
1415.903574,64158.8
1419.403355,64158.8
1422.89819,64158.4
1426.388091,64158
1429.873069,64158
1433.353134,64157.6
1436.828298,64157.8
1440.298571,64158.2
1443.763965,64158.4
1447.224491,64158.6
1450.68016,64159.2
1454.130983,64159.2
1457.576971,64158.8
1461.018135,64160.2
1464.454486,64159.6
1467.886036,64160
1471.312794,64160
1474.734774,64161
1478.151985,64161.6
1481.564439,64162
1484.972146,64162.4
1488.375119,64161.8
1491.773368,64162.4
1495.166904,64162.6
1498.555739,64163
1501.939883,64163.2
1505.319349,64163.2
1508.694146,64163.8
1512.064286,64164.2
1515.429781,64163.6
1518.790642,64163.4
1522.146879,64163.2
1525.498505,64163.4
1528.845529,64163.2
1532.187965,64163.4
1535.525822,64163.4
1538.859112,64162.6
1542.187846,64162
1545.512036,64162.2
1548.831693,64161.6
1552.146829,64161.2
1555.457453,64161
1558.763579,64160.2
1562.065216,64160
1565.362377,64159.6
1568.655073,64159.8
1571.943315,64159
1575.227114,64159
1578.506482,64158.6
1581.781431,64159
1585.051971,64159.2
1588.318114,64159.2
1591.579872,64158.6
1594.837255,64158.4
1598.090275,64159.6
1601.338945,64159.2
1604.583274,64159.6
1607.823275,64160
1611.058959,64160
1614.290338,64160.2
1617.517422,64161.2
1620.740224,64161.6
1623.958755,64162
1627.173027,64162.6
1630.38305,64162.8
1633.588838,64163.6
1636.7904,64164
1639.987749,64165.2
1643.180896,64165.6
1646.369853,64165.8
1649.554632,64166.4
1652.735244,64166.8
1655.9117,64167.6
1659.084013,64168
1662.252193,64168.8
1665.416254,64168.4
1668.576205,64168
1671.732059,64168.6
1674.883828,64168.4
1678.031523,64168.4
1681.175157,64168.2
1684.314739,64169.8
1687.450284,64170.2
1690.581801,64171.4
1693.709304,64170.4
1696.832803,64170.2
1699.952311,64170.6
1703.067839,64170.6
1706.179399,64171
1709.287003,64174
1712.390663,64175.4
1715.49039,64179.2
1718.586197,64194.6
1721.678095,64233.4
1724.766096,64319.2
1727.850213,63771.2
1730.930456,63713.6
1734.006838,63646.4
1737.079372,63386.4
1740.148067,62943.2
1743.212938,63443.6
1746.273996,62216.4
1749.331252,62062.8
1752.384718,61326.4
1755.434408,61039
1758.480332,60598.6
1761.522503,60085.4
1764.560933,59410.6
1767.595634,58545
1770.626618,58957.2
1773.653896,58842.4
1776.677482,57757
1779.697388,57709.2
1782.713625,58464.8
1785.726205,58340.6
1788.735141,58154
1791.740445,57595.8
1794.742129,57427.8
1797.740206,57627
1800.734687,57568.6
1803.725585,57689
1806.712912,56955.6
1809.69668,56911.8
1812.676902,56828.4
1815.65359,56326.6
1818.626756,56146.2
1821.596413,56093.4
1824.562573,55441.8
1827.525247,55960.6
1830.48445,55770.8
1833.440192,55422
1836.392487,55150.6
1839.341347,55121.8
1842.286784,54917.6
1845.22881,54167.6
1848.167439,54634
1851.102682,54243.4
1854.034553,54095.4
1856.963063,54081.6
1859.888226,54435.6
1862.810053,53695.8
1865.728557,53408.4
1868.643751,53016.6
1871.555648,52957
1874.46426,51982.2
1877.369599,52879.6
1880.271679,52228.6
1883.170512,52350.8
1886.06611,52438.2
1888.958487,52294.2
1891.847655,51725.8
1894.733626,52058
1897.616414,51829.6
1900.496032,50942
1903.372491,51295.6
1906.245805,51213.6
1909.115987,51189.2
1911.983049,50878.2
1914.847004,50749.6
1917.707866,50656.4
1920.565646,50145.2
1923.420359,49928.4
1926.272016,49764.6
1929.120631,49571.8
1931.966216,49522.2
1934.808786,49266.4
1937.648351,49125.2
1940.484927,49033.8
1943.318525,48394.6
1946.149158,49144.2
1948.97684,49669.8
1951.801584,48377.8
1954.623403,47755.2
1957.44231,47971.4
1960.258318,47396.2
1963.071439,47247.2
1965.881688,47237.8
1968.689078,47348.8
1971.493621,46448.8
