Ramanshift[cm-1],Intensity
-93.47115107,14266
-87.69374369,12922
-81.9253076,12656.4
-76.16582701,12823
-70.41528615,12883
-64.67366933,12619
-58.94096086,12591.2
-53.21714512,12774.8
-47.50220652,12940.8
-41.79612954,12901
-36.09889866,13352.4
-30.41049843,13587.4
-24.73091343,13102.8
-19.0601283,13176.2
-13.39812769,13050
-7.744896327,12786.2
-2.100418946,12500.2
3.535319659,13164.6
9.162334658,12557.2
14.78064118,12955.2
20.39025432,12518
25.99118913,12627.2
31.58346061,13138.2
37.16708375,12885.6
42.74207347,12540.6
48.30844468,12584.2
53.86621222,12435.8
59.41539093,12057
64.95599558,12135.8
70.48804091,12523
76.01154164,12612.4
81.52651243,12001
87.03296792,12506.4
92.5309227,12770
98.02039134,12089.4
103.5013884,12471.8
108.9739282,12311.6
114.4380255,12261.4
119.8936944,12511.8
125.3409495,13378.6
130.779805,12240.2
136.2102753,11927
141.6323747,12041.8
147.0461174,12611.6
152.4515176,12284.4
157.8485895,12142.8
163.2373472,11937.8
168.6178049,12438
173.9899766,12677
179.3538764,12148.8
184.7095182,12288
190.0569161,12442.8
195.396084,12585.2
200.7270358,12040.6
206.0497854,12062.8
211.3643466,11814
216.6707333,12200.6
221.9689593,11758.4
227.2590382,12028
232.5409839,11938
237.8148101,11961.2
243.0805303,12041.8
248.3381582,11998.8
253.5877075,11819
258.8291917,11943
264.0626244,12100.2
269.288019,12211.6
274.5053891,12367
279.7147481,11957.2
284.9161094,11846.8
290.1094865,12200.2
295.2948927,12921.2
300.4723414,14677.2
305.6418459,16075
310.8034194,17642.6
315.9570752,19119
321.1028267,19431.6
326.2406869,19593.4
331.370669,19845
336.4927863,19920.4
341.6070517,20072.2
346.7134786,20021.2
351.8120798,20316.2
356.9028684,20070.2
361.9858576,20105.2
367.0610602,20448.4
372.1284892,20067.6
377.1881577,20354.4
382.2400784,20315.6
387.2842644,20552.8
392.3207284,21486.4
397.3494833,21388.8
402.370542,21739.2
407.3839172,21205.2
412.3896217,20693.4
417.3876683,20055.2
422.3780697,19927
427.3608386,19804.6
432.3359876,19976.2
437.3035295,20050
442.2634769,20101.6
447.2158423,19158.8
452.1606383,19287
457.0978776,19566.2
462.0275727,18791.2
466.9497361,19299.4
471.8643802,18721.8
476.7715176,19193.8
481.6711608,19293.6
486.5633221,19474
491.448014,19174.4
496.3252488,19042
501.195039,19146
506.0573969,19608.2
510.9123349,19292.6
515.7598651,18677.4
520.6,19102.8
525.4327518,19146
530.2581327,18949
535.076155,18561.6
539.8868309,18906.4
544.6901726,18959.4
549.4861922,18722.4
554.2749019,19733.2
559.0563139,18764.6
563.8304402,18440
568.597293,19414
573.3568844,19080.6
578.1092263,18551.2
582.8543308,19126.2
587.5922101,19011.6
592.322876,18580.2
597.0463405,18851.4
601.7626157,19046.8
606.4717135,18420.4
611.1736458,18425.2
615.8684246,18523
620.5560617,18899.6
625.2365691,18535.4
629.9099585,18886.6
634.5762419,19261.2
639.2354312,18572
643.887538,18836
648.5325743,18527.4
653.1705518,18382.6
657.8014823,18643.2
662.4253775,17953.2
667.0422493,18356.6
671.6521092,18306.6
676.2549691,18428
680.8508407,18392
685.4397355,18281.8
690.0216654,18447
694.5966419,18168.4
699.1646767,18655.2
703.7257814,18288
708.2799676,18480.6
712.827247,18652
717.367631,18347.8
721.9011314,18274.6
726.4277595,17645.4
730.9475271,18265.8
735.4604456,18171.2
739.9665264,18663.6
744.4657813,18250
748.9582215,18168
753.4438587,17639
757.9227042,17475
762.3947696,18005.2
766.8600662,17542.2
771.3186056,18905
775.770399,17930.6
780.215458,18149.6
784.6537939,17513.6
789.0854181,17438.6
793.510342,17438.4
797.9285769,18022.4
802.3401342,17450.6
806.7450253,17666.8
811.1432614,17611.6
815.5348538,17538
819.9198139,17215
824.2981531,17419
828.6698824,17562
833.0350133,17326
837.393557,17074.6
841.7455248,17476.8
846.0909278,17181.8
850.4297774,17067
854.7620848,17199
859.0878611,17434.6
863.4071176,16771.4
867.7198655,17240.2
872.026116,17474
876.3258802,18021.8
880.6191693,17447.6
884.9059946,17528.2
889.186367,17939.8
893.4602979,16793
897.7277982,16663.8
901.9888793,17179
906.2435521,17522.8
910.4918277,16886.8
914.7337174,16830
918.9692321,16902.2
923.1983831,17418.4
927.4211813,17033.4
931.6376378,17739.2
935.8477637,17312.4
940.0515701,17348
944.249068,17427.8
948.4402684,16626.8
952.6251825,17497.2
956.8038212,16969
960.9761955,17682.8
965.1423166,17152.8
969.3021953,17188.6
973.4558427,17200
977.6032699,17164.8
981.7444877,17187.8
985.8795072,17034.6
990.0083394,17241
994.1309953,16850
998.2474857,17239.8
1002.357822,16278.4
1006.462014,16946
1010.560075,16778.8
1014.652013,17210.8
1018.737841,17556.6
1022.81757,16882.2
1026.891209,16859.4
1030.958771,16573
1035.020266,16946
1039.075705,16761.8
1043.1251,16430.4
1047.16846,16704.8
1051.205797,16654.4
1055.237121,16259
1059.262444,16298.4
1063.281777,16001.6
1067.295131,16039.6
1071.302515,17170.4
1075.303942,16818.4
1079.299422,18021.8
1083.288966,17908.4
1087.272585,17923.4
1091.250289,17638.6
1095.222091,17330.6
1099.187999,16864.8
1103.148026,16827.2
1107.102183,16522.2
1111.050479,16616.8
1114.992927,16447
1118.929536,16461.2
1122.860318,16673.6
1126.785283,16118.2
1130.704443,16032
1134.617808,16869
1138.52539,16720.6
1142.427198,16678.8
1146.323244,16688.2
1150.213538,16582
1154.098093,16745.4
1157.976917,16132.8
1161.850023,15987
1165.717421,16473.2
1169.579121,16136.2
1173.435135,16592.4
1177.285474,15605.8
1181.130148,15853
1184.969169,16406.2
1188.802547,16425.8
1192.630292,16125.4
1196.452416,15663.4
1200.26893,15774.6
1204.079844,15424.2
1207.88517,14956.2
1211.684917,15628.2
1215.479098,15247.6
1219.267722,16907
1223.050801,15232.8
1226.828346,15332.4
1230.600366,15639.2
1234.366874,15514.6
1238.12788,15317.6
1241.883395,15373.2
1245.633429,15775.2
1249.377994,15742.8
1253.1171,14915
1256.850759,15232.4
1260.578981,15231.4
1264.301776,15349.8
1268.019157,15158.4
1271.731133,14998.4
1275.437715,14849
1279.138915,15400.8
1282.834743,15645
1286.52521,15049.4
1290.210328,14974.6
1293.890106,15143.8
1297.564555,15557.4
1301.233688,14955.4
1304.897514,15275.6
1308.556044,15405.2
1312.209289,15359.4
1315.857261,14843
1319.499969,14962
1323.137425,15756.4
1326.769641,15193.4
1330.396626,15842.6
1334.018391,15216
1337.634948,15305.2
1341.246307,15001.2
1344.85248,14993.2
1348.453477,14871.2
1352.049309,14847
1355.639987,14896.6
1359.225522,15478.2
1362.805925,15160.4
1366.381207,15070
1369.951379,15083
1373.516452,15183
1377.076436,15272.2
1380.631343,15229.2
1384.181184,14899.6
1387.725969,15068.4
1391.26571,14714.6
1394.800417,14673.6
1398.330102,14993.4
1401.854776,15087.8
1405.374448,14928
1408.889132,14493.6
1412.398837,14159
1415.903574,14405.8
1419.403355,15088.8
1422.89819,14589.4
1426.388091,14532.2
1429.873069,15092
1433.353134,14567.4
1436.828298,14688.8
1440.298571,14909.6
1443.763965,14594.4
1447.224491,14408.2
1450.68016,14346
1454.130983,14952
1457.576971,14768.2
1461.018135,14947.4
1464.454486,15077.2
1467.886036,14523.4
1471.312794,14485
1474.734774,14199.4
1478.151985,14901.4
1481.564439,14657.2
1484.972146,14465.2
1488.375119,14157
1491.773368,14485.8
1495.166904,15082
1498.555739,14328.6
1501.939883,14438
1505.319349,14014.6
1508.694146,14339.2
1512.064286,14267.6
1515.429781,14348.8
1518.790642,14168.2
1522.146879,14506.8
1525.498505,13788.8
1528.845529,13891.6
1532.187965,14581.2
1535.525822,14183.2
1538.859112,14125.8
1542.187846,14756.2
1545.512036,13869
1548.831693,15176.4
1552.146829,14614
1555.457453,13850.6
1558.763579,13494.8
1562.065216,13947.4
1565.362377,14204.2
1568.655073,14498.6
1571.943315,14181.2
1575.227114,14096.8
1578.506482,14191.8
1581.781431,14826
1585.051971,14371.6
1588.318114,14387
1591.579872,14480.2
1594.837255,14401.2
1598.090275,14314.4
1601.338945,14360.4
1604.583274,14688.6
1607.823275,14240.2
1611.058959,13714.8
1614.290338,14428
1617.517422,13527.2
1620.740224,13826.2
1623.958755,13472.6
1627.173027,13529.4
1630.38305,13190.8
1633.588838,13729.8
1636.7904,13395
1639.987749,13664.4
1643.180896,13832.6
1646.369853,13171
1649.554632,14031.6
1652.735244,13339.4
1655.9117,12993.4
1659.084013,13416.8
1662.252193,14098
1665.416254,13131.6
1668.576205,13472.2
1671.732059,13616
1674.883828,13688.2
1678.031523,13223.6
1681.175157,13384
1684.314739,13382
1687.450284,13288.8
1690.581801,13215.4
1693.709304,12985
1696.832803,13098
1699.952311,13323.6
1703.067839,13239
1706.179399,13118.8
1709.287003,13668
1712.390663,13303
1715.49039,13238
1718.586197,13597.4
1721.678095,13449.6
1724.766096,13447.8
1727.850213,12872
1730.930456,13231.6
1734.006838,12935.8
1737.079372,13300.8
1740.148067,12941.4
1743.212938,13993.4
1746.273996,13145.2
1749.331252,13115.8
1752.384718,13107
1755.434408,13137.2
1758.480332,13163.8
1761.522503,13118.8
1764.560933,12832.4
1767.595634,12552.2
1770.626618,13381.8
1773.653896,13343.2
1776.677482,12828.6
1779.697388,12873.8
1782.713625,13520.4
1785.726205,13406.6
1788.735141,13364.2
1791.740445,12947.4
1794.742129,12798.4
1797.740206,13281.6
1800.734687,13354.8
1803.725585,13075
1806.712912,13071.8
1809.69668,12758
1812.676902,12803.2
1815.65359,12540.4
1818.626756,12585
1821.596413,12787.2
1824.562573,12501.6
1827.525247,12888.4
1830.48445,12618.2
1833.440192,12852
1836.392487,12790.6
1839.341347,12934.8
1842.286784,12906.2
1845.22881,12472.8
1848.167439,13072.6
1851.102682,12832.8
1854.034553,12715.2
1856.963063,12547.2
1859.888226,13494.6
1862.810053,12937
1865.728557,12825.6
1868.643751,12533.2
1871.555648,12565.6
1874.46426,12234.6
1877.369599,12883.6
1880.271679,12758.2
1883.170512,12486.8
1886.06611,13147.8
1888.958487,12783.4
1891.847655,12718.6
1894.733626,12809.6
1897.616414,12969
1900.496032,12438.6
1903.372491,12821.4
1906.245805,13123.8
1909.115987,13019.6
1911.983049,13058.4
1914.847004,12875.6
1917.707866,12986
1920.565646,13014.4
1923.420359,12458
1926.272016,12776.8
1929.120631,12645.6
1931.966216,12726
1934.808786,12655.6
1937.648351,12895.2
1940.484927,12718
1943.318525,12959
1946.149158,13235.6
1948.97684,14183
1951.801584,13130.2
1954.623403,12867.6
1957.44231,12970.4
1960.258318,12422
1963.071439,12490.6
1965.881688,12779.2
1968.689078,12872.6
1971.493621,12536.4
