Ramanshift[cm-1],Intensity
-93.47115107,14374.2
-87.69374369,13063
-81.9253076,12737.6
-76.16582701,12935.2
-70.41528615,12962
-64.67366933,12704.2
-58.94096086,12673.6
-53.21714512,12909.4
-47.50220652,13072.2
-41.79612954,12966.2
-36.09889866,13515
-30.41049843,13552.4
-24.73091343,13142
-19.0601283,13110.8
-13.39812769,12951.8
-7.744896327,12765.8
-2.100418946,12619.2
3.535319659,13311.6
9.162334658,12639.8
14.78064118,12887.6
20.39025432,12617.4
25.99118913,12614
31.58346061,13197.2
37.16708375,12869.2
42.74207347,12531.6
48.30844468,12614
53.86621222,12482
59.41539093,12260
64.95599558,12125.6
70.48804091,12572.2
76.01154164,12714
81.52651243,12004.8
87.03296792,12548.6
92.5309227,12813.8
98.02039134,12217.2
103.5013884,12538.6
108.9739282,12291.6
114.4380255,12342.8
119.8936944,12559.2
125.3409495,13501.2
130.779805,12340.2
136.2102753,12000.6
141.6323747,12064.8
147.0461174,12717
152.4515176,12284.6
157.8485895,12227.8
163.2373472,12165.6
168.6178049,12333.2
173.9899766,12721.8
179.3538764,12281.8
184.7095182,12247.2
190.0569161,12598.6
195.396084,12665.8
200.7270358,12036.4
206.0497854,12127.6
211.3643466,11853.8
216.6707333,12318.8
221.9689593,11889.6
227.2590382,12029.2
232.5409839,12003.2
237.8148101,11951.8
243.0805303,12105.8
248.3381582,12042.8
253.5877075,11935.6
258.8291917,12031
264.0626244,12119.4
269.288019,12390.6
274.5053891,12480.2
279.7147481,12109.8
284.9161094,12007
290.1094865,12467.2
295.2948927,13908.8
300.4723414,17368.4
305.6418459,21108.4
310.8034194,24580
315.9570752,27171.4
321.1028267,27651.4
326.2406869,27874.2
331.370669,28517.4
336.4927863,28752
341.6070517,29127.6
346.7134786,29301.8
351.8120798,29759.8
356.9028684,29403.8
361.9858576,29511
367.0610602,29713.8
372.1284892,29414
377.1881577,29700.2
382.2400784,29894.2
387.2842644,30499.2
392.3207284,30952.8
397.3494833,30517
402.370542,30241.4
407.3839172,29659.2
412.3896217,29040.2
417.3876683,28374.2
422.3780697,28607.8
427.3608386,28378.8
432.3359876,28709.2
437.3035295,28572.2
442.2634769,28730
447.2158423,27792.6
452.1606383,27888.2
457.0978776,27944.6
462.0275727,27366.6
466.9497361,27857.6
471.8643802,27291.4
476.7715176,27879.8
481.6711608,27665.4
486.5633221,27967.8
491.448014,27732.6
496.3252488,27570.8
501.195039,27807.2
506.0573969,28083.8
510.9123349,27606.2
515.7598651,26997.6
520.6,27428.4
525.4327518,27166.2
530.2581327,27388.4
535.076155,26680.2
539.8868309,26933.6
544.6901726,26961.8
549.4861922,26507.4
554.2749019,27447.2
559.0563139,26537.8
563.8304402,26359.8
568.597293,27528.6
573.3568844,26904.4
578.1092263,26589.6
582.8543308,26974.2
587.5922101,26997.8
592.322876,26417.4
597.0463405,26551.8
601.7626157,26711.2
606.4717135,26281.6
611.1736458,26350
615.8684246,26316.8
620.5560617,26719.6
625.2365691,26302.8
629.9099585,26666.2
634.5762419,26771
639.2354312,26063
643.887538,26063.4
648.5325743,25921
653.1705518,25822.4
657.8014823,26003.2
662.4253775,25295.4
667.0422493,25888
671.6521092,25530.8
676.2549691,25669.2
680.8508407,25655.2
685.4397355,25475.6
690.0216654,25639.6
694.5966419,25290.8
699.1646767,25925.6
703.7257814,25670.8
708.2799676,25578.6
712.827247,25597.8
717.367631,25214.4
721.9011314,25373.6
726.4277595,24708
730.9475271,25145.4
735.4604456,25147.2
739.9665264,25555.2
744.4657813,25082.6
748.9582215,25063.2
753.4438587,24460.2
757.9227042,24009.4
762.3947696,24572.2
766.8600662,23921.2
771.3186056,25337.6
775.770399,24063.6
780.215458,24481.4
784.6537939,23640.8
789.0854181,23641.4
793.510342,23499.2
797.9285769,24052.6
802.3401342,23305.4
806.7450253,23470.8
811.1432614,23261.2
815.5348538,23114.6
819.9198139,22761.6
824.2981531,23005.6
828.6698824,22962.8
833.0350133,22629.6
837.393557,22225.8
841.7455248,22445.6
846.0909278,22404.2
850.4297774,22354.2
854.7620848,22439
859.0878611,22711
863.4071176,21833.8
867.7198655,22552.6
872.026116,22717.8
876.3258802,23188.6
880.6191693,22783.4
884.9059946,22719.2
889.186367,23105.4
893.4602979,21973
897.7277982,21788.8
901.9888793,22222
906.2435521,22728.6
910.4918277,22082.6
914.7337174,21938.2
918.9692321,21970.4
923.1983831,22465.6
927.4211813,22049.8
931.6376378,22763.4
935.8477637,22279.6
940.0515701,22436.4
944.249068,22488.8
948.4402684,21478
952.6251825,22582.8
956.8038212,22010.4
960.9761955,22677.4
965.1423166,22261
969.3021953,22250
973.4558427,22278.4
977.6032699,21976.8
981.7444877,22012.6
985.8795072,21995.8
990.0083394,21988.2
994.1309953,21740.4
998.2474857,22178.2
1002.357822,21232
1006.462014,21783.4
1010.560075,21489
1014.652013,21698
1018.737841,22201.2
1022.81757,21685.2
1026.891209,21490.4
1030.958771,21319.6
1035.020266,21571.6
1039.075705,21337.8
1043.1251,20869.8
1047.16846,21250.6
1051.205797,21184.2
1055.237121,20938.2
1059.262444,20844.4
1063.281777,20668.2
1067.295131,20800
1071.302515,22290.2
1075.303942,21818.2
1079.299422,22991.2
1083.288966,22286.6
1087.272585,21724
1091.250289,21395.8
1095.222091,21215.8
1099.187999,20703.8
1103.148026,20950.4
1107.102183,20849
1111.050479,20894.2
1114.992927,20792.2
1118.929536,20720.2
1122.860318,21003.8
1126.785283,20474.8
1130.704443,20350.8
1134.617808,21193.4
1138.52539,21096
1142.427198,20977
1146.323244,21074.4
1150.213538,20546.8
1154.098093,20946.8
1157.976917,20339.2
1161.850023,20291.8
1165.717421,20802.2
1169.579121,20407.4
1173.435135,20907.2
1177.285474,20149.6
1181.130148,20249.6
1184.969169,20433.8
1188.802547,20402.6
1192.630292,20057.4
1196.452416,19620
1200.26893,19710.8
1204.079844,19464.4
1207.88517,19048.4
1211.684917,19677
1215.479098,19187.8
1219.267722,20797
1223.050801,19192.6
1226.828346,19268.6
1230.600366,19567.8
1234.366874,19511.4
1238.12788,19260.4
1241.883395,19415.2
1245.633429,19532.8
1249.377994,19609.8
1253.1171,18883.4
1256.850759,19291.4
1260.578981,19095.8
1264.301776,19191.2
1268.019157,19144.6
1271.731133,18728
1275.437715,18647.6
1279.138915,19221.2
1282.834743,19516.8
1286.52521,18899.4
1290.210328,18780.4
1293.890106,18867
1297.564555,19423.8
1301.233688,18566.2
1304.897514,19085.2
1308.556044,19151.8
1312.209289,19075.2
1315.857261,18600.4
1319.499969,18672.8
1323.137425,19545.6
1326.769641,18931.4
1330.396626,19656
1334.018391,18904.2
1337.634948,18998.6
1341.246307,18746.8
1344.85248,18617.2
1348.453477,18565.8
1352.049309,18470.6
1355.639987,18522
1359.225522,19136.6
1362.805925,18676.2
1366.381207,18683.8
1369.951379,18794.8
1373.516452,18816.2
1377.076436,18911.6
1380.631343,18699.8
1384.181184,18501.4
1387.725969,18536.8
1391.26571,18279.4
1394.800417,18108
1398.330102,18186.4
1401.854776,18447.6
1405.374448,18339.2
1408.889132,17843.4
1412.398837,17362.8
1415.903574,17816
1419.403355,18309
1422.89819,17759.8
1426.388091,17913.6
1429.873069,18402.4
1433.353134,17816.6
1436.828298,17901.4
1440.298571,18034.2
1443.763965,17700
1447.224491,17447.6
1450.68016,17572.2
1454.130983,18041
1457.576971,17803.8
1461.018135,18108.6
1464.454486,18048.4
1467.886036,17545
1471.312794,17527.4
1474.734774,17296.2
1478.151985,17944.8
1481.564439,17682.8
1484.972146,17596
1488.375119,17107.2
1491.773368,17372.6
1495.166904,18006.4
1498.555739,17307.4
1501.939883,17289.2
1505.319349,16829.2
1508.694146,17131.6
1512.064286,17238.6
1515.429781,17119
1518.790642,16926
1522.146879,17298.4
1525.498505,16777.6
1528.845529,16649.4
1532.187965,17296.2
1535.525822,16978.4
1538.859112,17008.4
1542.187846,17521
1545.512036,16511.2
1548.831693,17868.2
1552.146829,17314.2
1555.457453,16629.8
1558.763579,16169.6
1562.065216,16677
1565.362377,16909.6
1568.655073,17186.8
1571.943315,16999.6
1575.227114,16821
1578.506482,16966.4
1581.781431,17452.6
1585.051971,16942
1588.318114,17051.6
1591.579872,17004
1594.837255,16717.8
1598.090275,16398.8
1601.338945,16321.8
1604.583274,16495.6
1607.823275,16124.4
1611.058959,15627.4
1614.290338,16366.4
1617.517422,15557.2
1620.740224,15911.6
1623.958755,15494
1627.173027,15560.6
1630.38305,15195.8
1633.588838,15603.2
1636.7904,15331.8
1639.987749,15580.6
1643.180896,15718
1646.369853,15023.6
1649.554632,15860.2
1652.735244,15099.8
1655.9117,14613
1659.084013,15087.6
1662.252193,15712
1665.416254,14778.8
1668.576205,15066
1671.732059,15228
1674.883828,15443.2
1678.031523,14743.4
1681.175157,14870
1684.314739,14794.2
1687.450284,14712.6
1690.581801,14596.2
1693.709304,14484
1696.832803,14581
1699.952311,14649.2
1703.067839,14661
1706.179399,14597.4
1709.287003,15100.4
1712.390663,14616.8
1715.49039,14702.4
1718.586197,14964.2
1721.678095,14844.4
1724.766096,14800
1727.850213,14177.6
1730.930456,14526
1734.006838,14303.4
1737.079372,14685
1740.148067,14214.6
1743.212938,15263.8
1746.273996,14343.8
1749.331252,14367.4
1752.384718,14449.2
1755.434408,14373.6
1758.480332,14424.2
1761.522503,14438
1764.560933,14115
1767.595634,13756.4
1770.626618,14414.2
1773.653896,14542.8
1776.677482,14087.8
1779.697388,14083.8
1782.713625,14644.6
1785.726205,14594.2
1788.735141,14476.2
1791.740445,14055.2
1794.742129,13906.4
1797.740206,14362.8
1800.734687,14498
1803.725585,14227.6
1806.712912,14202.2
1809.69668,13880.6
1812.676902,14018.6
1815.65359,13632.8
1818.626756,13811
1821.596413,13974.2
1824.562573,13578.6
1827.525247,13928.2
1830.48445,13746.6
1833.440192,13919.2
1836.392487,13664.2
1839.341347,13960.8
1842.286784,14007.4
1845.22881,13401.4
1848.167439,14101
1851.102682,13800.6
1854.034553,13839.8
1856.963063,13558.2
1859.888226,14459.8
1862.810053,13964
1865.728557,13801
1868.643751,13524.2
1871.555648,13562.2
1874.46426,13194
1877.369599,13880.8
1880.271679,13698.4
1883.170512,13562.8
1886.06611,13979.2
1888.958487,13676.2
1891.847655,13648.4
1894.733626,13797.8
1897.616414,13874.4
1900.496032,13353.2
1903.372491,13579.6
1906.245805,13955.4
1909.115987,13998.2
1911.983049,13981
1914.847004,13738.8
1917.707866,13975.6
1920.565646,13822.2
1923.420359,13436.2
1926.272016,13684.2
1929.120631,13387.8
1931.966216,13600.8
1934.808786,13481.4
1937.648351,13762.2
1940.484927,13644.8
1943.318525,13732.4
1946.149158,13912
1948.97684,15078.2
1951.801584,14030
1954.623403,13719.2
1957.44231,13719
1960.258318,13316.2
1963.071439,13326.6
1965.881688,13651.4
1968.689078,13733.8
1971.493621,13505
