Ramanshift[cm-1],Intensity
-93.47115107,13913.2
-87.69374369,12691.8
-81.9253076,12431
-76.16582701,12570.8
-70.41528615,12605.2
-64.67366933,12353
-58.94096086,12256.2
-53.21714512,12508.8
-47.50220652,12620.6
-41.79612954,12610.6
-36.09889866,13124.4
-30.41049843,13184.6
-24.73091343,12896.2
-19.0601283,12866.4
-13.39812769,12681.2
-7.744896327,12408.6
-2.100418946,12235.4
3.535319659,12897.6
9.162334658,12270.2
14.78064118,12612
20.39025432,12259.4
25.99118913,12383.6
31.58346061,12689
37.16708375,12588
42.74207347,12222.4
48.30844468,12293
53.86621222,12090.6
59.41539093,11795
64.95599558,11861
70.48804091,12179.6
76.01154164,12338.8
81.52651243,11625.6
87.03296792,12256.2
92.5309227,12550
98.02039134,11877.2
103.5013884,12088.2
108.9739282,12006.4
114.4380255,12020.2
119.8936944,12160.8
125.3409495,13108.4
130.779805,11889.6
136.2102753,11669
141.6323747,11663
147.0461174,12301.8
152.4515176,11927.4
157.8485895,11943.8
163.2373472,11650.4
168.6178049,12047.8
173.9899766,12316
179.3538764,11881.2
184.7095182,11969
190.0569161,12169
195.396084,12318.8
200.7270358,11814.4
206.0497854,11912.8
211.3643466,11561.6
216.6707333,11933.6
221.9689593,11691
227.2590382,11701.6
232.5409839,11849.6
237.8148101,11595.8
243.0805303,11795.6
248.3381582,11780
253.5877075,11514.8
258.8291917,11740.2
264.0626244,11786.2
269.288019,12038.4
274.5053891,12075.4
279.7147481,11789.2
284.9161094,11643.8
290.1094865,11953.8
295.2948927,13138.4
300.4723414,15603.2
305.6418459,18115.6
310.8034194,20577
315.9570752,22348.2
321.1028267,22930.6
326.2406869,23095.8
331.370669,23573
336.4927863,23641.6
341.6070517,23889.8
346.7134786,24064.4
351.8120798,24329.8
356.9028684,24162.4
361.9858576,24234.8
367.0610602,24428.8
372.1284892,24037
377.1881577,24712.2
382.2400784,24807.6
387.2842644,25305.4
392.3207284,25852.4
397.3494833,25058.4
402.370542,24826.4
407.3839172,24348.4
412.3896217,23762.8
417.3876683,23277.4
422.3780697,23368
427.3608386,23316.4
432.3359876,23700.4
437.3035295,23664
442.2634769,23828
447.2158423,22824.8
452.1606383,22933
457.0978776,23094.2
462.0275727,22485.6
466.9497361,22866.6
471.8643802,22345
476.7715176,22911.2
481.6711608,22820.4
486.5633221,23107.8
491.448014,22910.2
496.3252488,22729
501.195039,22760
506.0573969,23097
510.9123349,22737
515.7598651,22352.2
520.6,22578.6
525.4327518,22508.2
530.2581327,22535.2
535.076155,21966
539.8868309,22314.2
544.6901726,22360
549.4861922,22087
554.2749019,22947
559.0563139,22024.2
563.8304402,21859
568.597293,22961.8
573.3568844,22441.4
578.1092263,21978.8
582.8543308,22309
587.5922101,22291.4
592.322876,21935.2
597.0463405,22011
601.7626157,22377.6
606.4717135,21842
611.1736458,21797.6
615.8684246,21905.8
620.5560617,22139.2
625.2365691,21703
629.9099585,22141.4
634.5762419,22490
639.2354312,21787
643.887538,21856
648.5325743,21539.6
653.1705518,21467.6
657.8014823,21688.4
662.4253775,20985.6
667.0422493,21261.8
671.6521092,21259.8
676.2549691,21394.4
680.8508407,21283
685.4397355,21192.8
690.0216654,21389.6
694.5966419,21101.2
699.1646767,21635.4
703.7257814,21360.2
708.2799676,21457.2
712.827247,21458.2
717.367631,21284.2
721.9011314,21329.2
726.4277595,20532.4
730.9475271,21199.6
735.4604456,21022.2
739.9665264,21608.4
744.4657813,20853.6
748.9582215,20915.6
753.4438587,20389
757.9227042,20067.4
762.3947696,20752.6
766.8600662,20318.6
771.3186056,21484.2
775.770399,20513.4
780.215458,20797.8
784.6537939,20086.6
789.0854181,19854.4
793.510342,20057
797.9285769,20507.8
802.3401342,20054.6
806.7450253,20120.2
811.1432614,20019.8
815.5348538,19704.6
819.9198139,19451
824.2981531,19626.4
828.6698824,19729
833.0350133,19588.2
837.393557,19161.2
841.7455248,19706
846.0909278,19408.4
850.4297774,19312.8
854.7620848,19459.8
859.0878611,19657.6
863.4071176,18942.2
867.7198655,19520.2
872.026116,19742
876.3258802,20166.4
880.6191693,19605.2
884.9059946,19736
889.186367,20008.6
893.4602979,18937
897.7277982,18854.8
901.9888793,19194
906.2435521,19699.4
910.4918277,19011.2
914.7337174,19048.4
918.9692321,18908.2
923.1983831,19518.4
927.4211813,19174.8
931.6376378,19906.2
935.8477637,19273.4
940.0515701,19488.4
944.249068,19444
948.4402684,18717.2
952.6251825,19607.8
956.8038212,19008.8
960.9761955,19740.8
965.1423166,19054.2
969.3021953,19147.8
973.4558427,19207.4
977.6032699,18979.2
981.7444877,19160.6
985.8795072,18936.4
990.0083394,19120
994.1309953,18688.6
998.2474857,19207.6
1002.357822,18278.4
1006.462014,19000
1010.560075,18560.6
1014.652013,18973
1018.737841,19237.4
1022.81757,18747.2
1026.891209,18495.6
1030.958771,18351.4
1035.020266,18782.4
1039.075705,18526.4
1043.1251,18194.6
1047.16846,18511.6
1051.205797,18368
1055.237121,18088
1059.262444,18210.8
1063.281777,18099.4
1067.295131,18404.2
1071.302515,19834.2
1075.303942,19510.8
1079.299422,20484.2
1083.288966,19873.8
1087.272585,19092.8
1091.250289,18567.2
1095.222091,18527.8
1099.187999,18040.2
1103.148026,18178
1107.102183,18091.2
1111.050479,18213
1114.992927,18012.8
1118.929536,18064.4
1122.860318,18312
1126.785283,17786.8
1130.704443,17936.4
1134.617808,18881
1138.52539,18767.6
1142.427198,18574
1146.323244,18429.2
1150.213538,17967.2
1154.098093,18379.6
1157.976917,17626.6
1161.850023,17498.2
1165.717421,18142
1169.579121,17778
1173.435135,18153.2
1177.285474,17353.4
1181.130148,17521.6
1184.969169,18007
1188.802547,17803.6
1192.630292,17382
1196.452416,17006.2
1200.26893,17078.6
1204.079844,16847
1207.88517,16380.4
1211.684917,17091.2
1215.479098,16538.6
1219.267722,18177.2
1223.050801,16609.8
1226.828346,16695.2
1230.600366,16907.2
1234.366874,16803.6
1238.12788,16634.2
1241.883395,16739.2
1245.633429,17016.8
1249.377994,16953.6
1253.1171,16192.8
1256.850759,16573
1260.578981,16530
1264.301776,16503.4
1268.019157,16512.6
1271.731133,16201.6
1275.437715,16047.4
1279.138915,16542
1282.834743,16781.2
1286.52521,16198.6
1290.210328,16202
1293.890106,16196.8
1297.564555,16786.4
1301.233688,16150.6
1304.897514,16546.2
1308.556044,16395.2
1312.209289,16516.8
1315.857261,15987.8
1319.499969,16067.2
1323.137425,16803.6
1326.769641,16310.6
1330.396626,16920
1334.018391,16224.4
1337.634948,16261.6
1341.246307,16067.4
1344.85248,15929
1348.453477,15816.8
1352.049309,15850.6
1355.639987,15928.6
1359.225522,16481.4
1362.805925,16182.4
1366.381207,16234.4
1369.951379,16240.4
1373.516452,16350.6
1377.076436,16441.6
1380.631343,16203.8
1384.181184,16098.6
1387.725969,16301.6
1391.26571,15843.4
1394.800417,15729.6
1398.330102,15810.4
1401.854776,16027.6
1405.374448,15810.8
1408.889132,15458.8
1412.398837,14982.6
1415.903574,15330
1419.403355,16113.6
1422.89819,15695
1426.388091,15703.6
1429.873069,16142.2
1433.353134,15612.8
1436.828298,15546.8
1440.298571,15604.4
1443.763965,15326.4
1447.224491,15131.2
1450.68016,15138.2
1454.130983,15584.6
1457.576971,15482.6
1461.018135,15763.4
1464.454486,15572.8
1467.886036,15230.4
1471.312794,15354.2
1474.734774,14829.2
1478.151985,15565
1481.564439,15421.8
1484.972146,15174.8
1488.375119,14720.4
1491.773368,15136.2
1495.166904,15777.2
1498.555739,14960
1501.939883,15117.6
1505.319349,14600
1508.694146,15095.2
1512.064286,14986.4
1515.429781,14959.2
1518.790642,14789.4
1522.146879,15006.4
1525.498505,14577.6
1528.845529,14572.6
1532.187965,15234.4
1535.525822,14833.6
1538.859112,14906.2
1542.187846,15448.4
1545.512036,14456.2
1548.831693,15914.8
1552.146829,15305.2
1555.457453,14743.2
1558.763579,14196.8
1562.065216,14753.2
1565.362377,15060.4
1568.655073,15354.2
1571.943315,15085.4
1575.227114,15036.2
1578.506482,15057.2
1581.781431,15504.6
1585.051971,15185.6
1588.318114,15225.2
1591.579872,15089.6
1594.837255,14851.6
1598.090275,14573.6
1601.338945,14527.8
1604.583274,14814.8
1607.823275,14365.6
1611.058959,13947.8
1614.290338,14727.6
1617.517422,13858.4
1620.740224,14371.8
1623.958755,13908.4
1627.173027,14010.4
1630.38305,13711.4
1633.588838,14009.8
1636.7904,13807.6
1639.987749,13979.4
1643.180896,14133.4
1646.369853,13426.4
1649.554632,14341.8
1652.735244,13732.6
1655.9117,13302.6
1659.084013,13673.2
1662.252193,14403.8
1665.416254,13357
1668.576205,13741.4
1671.732059,13984.2
1674.883828,14046.8
1678.031523,13508.8
1681.175157,13572.4
1684.314739,13629.4
1687.450284,13499.6
1690.581801,13472.8
1693.709304,13320
1696.832803,13331.2
1699.952311,13467
1703.067839,13457.4
1706.179399,13516.6
1709.287003,13888
1712.390663,13425
1715.49039,13497.6
1718.586197,13741.6
1721.678095,13640.8
1724.766096,13645.8
1727.850213,13207.8
1730.930456,13415
1734.006838,13209.8
1737.079372,13549.8
1740.148067,13032
1743.212938,14161.4
1746.273996,13283.4
1749.331252,13320.4
1752.384718,13324.8
1755.434408,13279.8
1758.480332,13271.2
1761.522503,13328.2
1764.560933,13029
1767.595634,12745
1770.626618,13529
1773.653896,13521.2
1776.677482,13088
1779.697388,13040.6
1782.713625,13559.4
1785.726205,13448.8
1788.735141,13469.4
1791.740445,13010.4
1794.742129,12964.8
1797.740206,13406.2
1800.734687,13409.4
1803.725585,13199.8
1806.712912,13189.6
1809.69668,12831.6
1812.676902,13012.8
1815.65359,12672
1818.626756,12837.2
1821.596413,12976.2
1824.562573,12654.2
1827.525247,12967
1830.48445,12770.2
1833.440192,12883.6
1836.392487,12833.2
1839.341347,13004.2
1842.286784,13034.2
1845.22881,12512
1848.167439,12985.2
1851.102682,12831.4
1854.034553,12848.2
1856.963063,12584.8
1859.888226,13593.6
1862.810053,13063.4
1865.728557,12783.4
1868.643751,12513.4
1871.555648,12646.6
1874.46426,12304.2
1877.369599,12938.6
1880.271679,12762.2
1883.170512,12618.4
1886.06611,13087.2
1888.958487,12666.2
1891.847655,12777.8
1894.733626,12901.6
1897.616414,12996.4
1900.496032,12438.4
1903.372491,12708.8
1906.245805,13143
1909.115987,13048.8
1911.983049,12998.4
1914.847004,12915.4
1917.707866,12971.6
1920.565646,12963
1923.420359,12553
1926.272016,12767.2
1929.120631,12602.2
1931.966216,12744.8
1934.808786,12669
1937.648351,13044.6
1940.484927,12879
1943.318525,12893.2
1946.149158,13145.6
1948.97684,14164.4
1951.801584,13105.2
1954.623403,12833.6
1957.44231,12908.8
1960.258318,12621.4
1963.071439,12516.2
1965.881688,12705.2
1968.689078,12849.4
1971.493621,12564.8
