Ramanshift[cm-1],Intensity
-93.47115107,14274
-87.69374369,12956.8
-81.9253076,12670.2
-76.16582701,12892.6
-70.41528615,12922.4
-64.67366933,12519.6
-58.94096086,12605
-53.21714512,12809.6
-47.50220652,12959.8
-41.79612954,12965.2
-36.09889866,13407.8
-30.41049843,13518.4
-24.73091343,13099.4
-19.0601283,13142.8
-13.39812769,12945
-7.744896327,12684.6
-2.100418946,12572.4
3.535319659,13179.2
9.162334658,12565.6
14.78064118,12879.4
20.39025432,12492.2
25.99118913,12558.8
31.58346061,13178.8
37.16708375,12833.2
42.74207347,12519.8
48.30844468,12531
53.86621222,12458.4
59.41539093,12137.4
64.95599558,12133.8
70.48804091,12436.2
76.01154164,12705.4
81.52651243,12030.2
87.03296792,12445
92.5309227,12770.6
98.02039134,12088
103.5013884,12420.4
108.9739282,12257.4
114.4380255,12280
119.8936944,12517.2
125.3409495,13347.6
130.779805,12198
136.2102753,11884
141.6323747,11959.2
147.0461174,12611.2
152.4515176,12200.4
157.8485895,12088
163.2373472,12042.8
168.6178049,12315.8
173.9899766,12664
179.3538764,12154.8
184.7095182,12198.8
190.0569161,12442.8
195.396084,12649.2
200.7270358,12052.2
206.0497854,12084.6
211.3643466,11755.6
216.6707333,12188.4
221.9689593,11809.4
227.2590382,11929.4
232.5409839,12012.4
237.8148101,11965.8
243.0805303,12034.8
248.3381582,11995
253.5877075,11837.2
258.8291917,11960
264.0626244,12158.6
269.288019,12281
274.5053891,12505.8
279.7147481,12004.6
284.9161094,11859.4
290.1094865,12250.8
295.2948927,13486.6
300.4723414,16165.6
305.6418459,18814.2
310.8034194,21352.6
315.9570752,23504
321.1028267,24081.8
326.2406869,24127.6
331.370669,24392.4
336.4927863,24643
341.6070517,25052
346.7134786,25069.6
351.8120798,25480.4
356.9028684,25000
361.9858576,25186.6
367.0610602,25212.4
372.1284892,25047.2
377.1881577,25644
382.2400784,25866.2
387.2842644,26562.2
392.3207284,27302.4
397.3494833,26800.4
402.370542,26560
407.3839172,25696
412.3896217,24913.2
417.3876683,24329.4
422.3780697,24293.8
427.3608386,24150.8
432.3359876,24547.8
437.3035295,24545.2
442.2634769,24731.4
447.2158423,23711
452.1606383,23589.4
457.0978776,23805
462.0275727,23083
466.9497361,23635.4
471.8643802,23153.6
476.7715176,23566.6
481.6711608,23488.6
486.5633221,23978.8
491.448014,23667
496.3252488,23500.6
501.195039,23589.6
506.0573969,23769.2
510.9123349,23476.6
515.7598651,22890.8
520.6,23452.8
525.4327518,23171.2
530.2581327,23123.6
535.076155,22567.6
539.8868309,22941.4
544.6901726,22975
549.4861922,22635
554.2749019,23603.4
559.0563139,22811
563.8304402,22557
568.597293,23650.4
573.3568844,23211.2
578.1092263,22496
582.8543308,23008.6
587.5922101,22976.4
592.322876,22623
597.0463405,22639.6
601.7626157,23032
606.4717135,22511
611.1736458,22526.8
615.8684246,22517.4
620.5560617,22929.4
625.2365691,22564.4
629.9099585,22980
634.5762419,23155.4
639.2354312,22500.4
643.887538,22592
648.5325743,22260.6
653.1705518,22237.8
657.8014823,22495.6
662.4253775,21712.6
667.0422493,22102.2
671.6521092,21989.8
676.2549691,22184
680.8508407,22122.2
685.4397355,21971
690.0216654,22146.6
694.5966419,21746
699.1646767,22356.8
703.7257814,22211.8
708.2799676,22220.2
712.827247,22221.4
717.367631,22042.6
721.9011314,21847.2
726.4277595,21358
730.9475271,22044.4
735.4604456,21776.8
739.9665264,22286.4
744.4657813,21649
748.9582215,21482.2
753.4438587,21048.4
757.9227042,20783
762.3947696,21378.6
766.8600662,20793.4
771.3186056,22252
775.770399,21177.4
780.215458,21397.2
784.6537939,20763.8
789.0854181,20602
793.510342,20804
797.9285769,21293.2
802.3401342,20745.6
806.7450253,20858.2
811.1432614,20743.6
815.5348538,20423.8
819.9198139,20068.2
824.2981531,20369.4
828.6698824,20423.8
833.0350133,20315.6
837.393557,19789
841.7455248,20295.6
846.0909278,19938.8
850.4297774,19985.4
854.7620848,19921.2
859.0878611,20284.4
863.4071176,19529
867.7198655,19937
872.026116,20415
876.3258802,20837.4
880.6191693,20268.6
884.9059946,20280
889.186367,20734.8
893.4602979,19522
897.7277982,19436.6
901.9888793,19820.2
906.2435521,20276.8
910.4918277,19736
914.7337174,19634.2
918.9692321,19733
923.1983831,20314
927.4211813,19896.8
931.6376378,20604.2
935.8477637,20121
940.0515701,20409.8
944.249068,20412
948.4402684,19495.6
952.6251825,20456.4
956.8038212,20001.8
960.9761955,20586.2
965.1423166,19969.8
969.3021953,20228.2
973.4558427,20241.6
977.6032699,19814.6
981.7444877,19983
985.8795072,19857
990.0083394,20052.4
994.1309953,19673.8
998.2474857,20100.2
1002.357822,19284.4
1006.462014,19866.8
1010.560075,19640.8
1014.652013,19934.4
1018.737841,20072.6
1022.81757,19630.4
1026.891209,19539.2
1030.958771,19467.6
1035.020266,19784
1039.075705,19440
1043.1251,19167.8
1047.16846,19323.2
1051.205797,19316.8
1055.237121,19010.4
1059.262444,19051.4
1063.281777,19013.4
1067.295131,19442.8
1071.302515,21136.2
1075.303942,21102
1079.299422,22017.6
1083.288966,21307.6
1087.272585,20494
1091.250289,19903
1095.222091,19699.4
1099.187999,19186.4
1103.148026,19325.4
1107.102183,19019.2
1111.050479,19393.8
1114.992927,19220.4
1118.929536,19089.4
1122.860318,19521.4
1126.785283,19024.6
1130.704443,18916.2
1134.617808,19918.6
1138.52539,19880
1142.427198,19831.6
1146.323244,19745
1150.213538,19216.4
1154.098093,19696.2
1157.976917,18836.8
1161.850023,18804.8
1165.717421,19380.2
1169.579121,19172
1173.435135,19523.2
1177.285474,18636.6
1181.130148,18953
1184.969169,19365.2
1188.802547,19078.4
1192.630292,18684.8
1196.452416,18399.8
1200.26893,18309.8
1204.079844,18089.2
1207.88517,17569.2
1211.684917,18261.8
1215.479098,17988.8
1219.267722,19578.2
1223.050801,17903
1226.828346,17965.4
1230.600366,18264
1234.366874,18150.2
1238.12788,18049.8
1241.883395,18026.8
1245.633429,18532.8
1249.377994,18388.8
1253.1171,17635.8
1256.850759,18016.8
1260.578981,17991.8
1264.301776,17911.4
1268.019157,17985.8
1271.731133,17711
1275.437715,17407.8
1279.138915,18125.6
1282.834743,18345
1286.52521,17745
1290.210328,17639.2
1293.890106,17834.4
1297.564555,18329.8
1301.233688,17732.4
1304.897514,18110.4
1308.556044,18210.2
1312.209289,18110.6
1315.857261,17553
1319.499969,17598.8
1323.137425,18532.8
1326.769641,17996.2
1330.396626,18683.4
1334.018391,17934.2
1337.634948,18042
1341.246307,17769.8
1344.85248,17806.2
1348.453477,17604
1352.049309,17580.6
1355.639987,17726
1359.225522,18287.6
1362.805925,17779.8
1366.381207,17741.4
1369.951379,17930.4
1373.516452,17995.6
1377.076436,18115.8
1380.631343,18073.4
1384.181184,17816.6
1387.725969,17949.4
1391.26571,17700.2
1394.800417,17360.2
1398.330102,17410.2
1401.854776,17635.8
1405.374448,17483
1408.889132,16968.2
1412.398837,16546.6
1415.903574,16912.8
1419.403355,17482.4
1422.89819,17159.4
1426.388091,17175.6
1429.873069,17542
1433.353134,16989.8
1436.828298,17051.8
1440.298571,17171.4
1443.763965,16720.8
1447.224491,16602.4
1450.68016,16604.6
1454.130983,17033.4
1457.576971,16954.6
1461.018135,17181.4
1464.454486,17127.8
1467.886036,16581.2
1471.312794,16726.8
1474.734774,16325.6
1478.151985,17041.6
1481.564439,16648.6
1484.972146,16576.8
1488.375119,16152.4
1491.773368,16594.4
1495.166904,17162.4
1498.555739,16314.2
1501.939883,16408.8
1505.319349,15927.2
1508.694146,16311.4
1512.064286,16445.4
1515.429781,16238.4
1518.790642,16132.6
1522.146879,16441.2
1525.498505,15750.8
1528.845529,15614.6
1532.187965,16519.2
1535.525822,16104.2
1538.859112,15916.2
1542.187846,16581
1545.512036,15734.6
1548.831693,17118.2
1552.146829,16484.2
1555.457453,15862
1558.763579,15453
1562.065216,16069.8
1565.362377,16367.6
1568.655073,16630.6
1571.943315,16509.2
1575.227114,16431.4
1578.506482,16422
1581.781431,16937.6
1585.051971,16586.8
1588.318114,16553.4
1591.579872,16504.6
1594.837255,16117.8
1598.090275,15771.2
1601.338945,15617.8
1604.583274,15903.2
1607.823275,15409
1611.058959,14987.8
1614.290338,15707.8
1617.517422,14810
1620.740224,15258.6
1623.958755,14888.2
1627.173027,14746
1630.38305,14439
1633.588838,14858.6
1636.7904,14603.6
1639.987749,14837.4
1643.180896,14998
1646.369853,14254.2
1649.554632,15152.4
1652.735244,14516.6
1655.9117,14029.6
1659.084013,14317.6
1662.252193,14934.6
1665.416254,14030.4
1668.576205,14395.6
1671.732059,14523.8
1674.883828,14648
1678.031523,14069.6
1681.175157,14107.2
1684.314739,14200.6
1687.450284,14058.2
1690.581801,13933.8
1693.709304,13761.2
1696.832803,13762.6
1699.952311,14017.4
1703.067839,13984.2
1706.179399,13890.8
1709.287003,14322.8
1712.390663,13786.6
1715.49039,13938.6
1718.586197,14208.8
1721.678095,14130.8
1724.766096,14147.2
1727.850213,13491.6
1730.930456,13775.6
1734.006838,13596.8
1737.079372,13853
1740.148067,13518
1743.212938,14632.4
1746.273996,13786.8
1749.331252,13719.8
1752.384718,13709
1755.434408,13689.4
1758.480332,13663.6
1761.522503,13620.4
1764.560933,13436.2
1767.595634,13035
1770.626618,13874.4
1773.653896,13820.8
1776.677482,13376.8
1779.697388,13462.4
1782.713625,13955.2
1785.726205,13874
1788.735141,13840.4
1791.740445,13414.2
1794.742129,13331.4
1797.740206,13802.4
1800.734687,13848.2
1803.725585,13662.4
1806.712912,13509.8
1809.69668,13299.8
1812.676902,13406
1815.65359,12979.4
1818.626756,13199.2
1821.596413,13291.2
1824.562573,13017.2
1827.525247,13409.4
1830.48445,13069
1833.440192,13291.6
1836.392487,13156.4
1839.341347,13319.4
1842.286784,13395.8
1845.22881,12924.8
1848.167439,13496.2
1851.102682,13152.6
1854.034553,13196.8
1856.963063,13012
1859.888226,13921.4
1862.810053,13394
1865.728557,13143
1868.643751,12982.4
1871.555648,12953.8
1874.46426,12717.8
1877.369599,13257.2
1880.271679,13113
1883.170512,12938.6
1886.06611,13464.6
1888.958487,13092.6
1891.847655,13048
1894.733626,13235
1897.616414,13298.6
1900.496032,12792.8
1903.372491,13189.8
1906.245805,13477.4
1909.115987,13380.8
1911.983049,13293.6
1914.847004,13293.4
1917.707866,13397.8
1920.565646,13386
1923.420359,12940.2
1926.272016,13124.2
1929.120631,12884
1931.966216,13112.6
1934.808786,13035
1937.648351,13240.6
1940.484927,13146
1943.318525,13280.8
1946.149158,13513
1948.97684,14565.8
1951.801584,13471.6
1954.623403,13182.2
1957.44231,13361.8
1960.258318,12922.2
1963.071439,12842.6
1965.881688,13090.4
1968.689078,13265.2
1971.493621,12956.6
