Ramanshift[cm-1],Intensity
-93.47115107,12239.8
-87.69374369,11062.8
-81.9253076,11034.2
-76.16582701,11018
-70.41528615,11056.4
-64.67366933,10894.4
-58.94096086,10789
-53.21714512,11132.6
-47.50220652,11127.6
-41.79612954,11167.8
-36.09889866,11567.6
-30.41049843,11627.6
-24.73091343,11305.6
-19.0601283,11342
-13.39812769,11172.2
-7.744896327,10940.8
-2.100418946,10779.4
3.535319659,11341.6
9.162334658,10768
14.78064118,11198.4
20.39025432,10811.8
25.99118913,10746.4
31.58346061,11187
37.16708375,11051
42.74207347,10805.8
48.30844468,10928.8
53.86621222,10793.6
59.41539093,10443.6
64.95599558,10437.8
70.48804091,10666.4
76.01154164,10889.6
81.52651243,10368
87.03296792,10744.2
92.5309227,10979.2
98.02039134,10449
103.5013884,10751.8
108.9739282,10641.8
114.4380255,10652.6
119.8936944,10748.4
125.3409495,11638.4
130.779805,10620.6
136.2102753,10350.6
141.6323747,10412.2
147.0461174,10906
152.4515176,10549.4
157.8485895,10493.8
163.2373472,10455.4
168.6178049,10660.2
173.9899766,10864
179.3538764,10514.6
184.7095182,10566.8
190.0569161,10824.8
195.396084,10924.2
200.7270358,10436
206.0497854,10471.2
211.3643466,10234.6
216.6707333,10633.8
221.9689593,10231.8
227.2590382,10404.2
232.5409839,10476.4
237.8148101,10388.4
243.0805303,10478.2
248.3381582,10449.2
253.5877075,10220.2
258.8291917,10464
264.0626244,10513.8
269.288019,10710.8
274.5053891,10804.6
279.7147481,10636.2
284.9161094,10863.2
290.1094865,12448.2
295.2948927,17217
300.4723414,28161
305.6418459,42579.8
310.8034194,55249.2
315.9570752,61877.2
321.1028267,63914
326.2406869,64170.6
331.370669,64165.8
336.4927863,64163
341.6070517,64161.8
346.7134786,64162.4
351.8120798,64161.6
356.9028684,64161.6
361.9858576,64161.4
367.0610602,64161
372.1284892,64160.2
377.1881577,64160
382.2400784,64158.8
387.2842644,64159.2
392.3207284,64159.2
397.3494833,64159.4
402.370542,64159.4
407.3839172,64159.8
412.3896217,64160.4
417.3876683,64160.8
422.3780697,64161.4
427.3608386,64161.6
432.3359876,64162
437.3035295,64163.2
442.2634769,64165.8
447.2158423,64167.2
452.1606383,64168.4
457.0978776,64169.2
462.0275727,64171.2
466.9497361,64175.2
471.8643802,64174.6
476.7715176,64170.6
481.6711608,64169
486.5633221,64171
491.448014,64177.2
496.3252488,64192
501.195039,64226.8
506.0573969,64319.4
510.9123349,64171.2
515.7598651,63408.4
520.6,63135.8
525.4327518,62665.4
530.2581327,62679.4
535.076155,61514.8
539.8868309,62046.2
544.6901726,61420.6
549.4861922,60320
554.2749019,60532.4
559.0563139,59709.2
563.8304402,59576
568.597293,60208.6
573.3568844,59981.6
578.1092263,59740.2
582.8543308,60071
587.5922101,60174.2
592.322876,59231.2
597.0463405,59588.2
601.7626157,60028.6
606.4717135,59736.6
611.1736458,59721.8
615.8684246,59319.2
620.5560617,59496.8
625.2365691,59492.8
629.9099585,60311.2
634.5762419,60841.2
639.2354312,60476.8
643.887538,59787.4
648.5325743,59022.6
653.1705518,58402.6
657.8014823,57810.2
662.4253775,56989.8
667.0422493,57105.8
671.6521092,57008.6
676.2549691,57086.2
680.8508407,56593.8
685.4397355,56377.2
690.0216654,56699.4
694.5966419,56523.2
699.1646767,57452.6
703.7257814,57610
708.2799676,57906.8
712.827247,58297.2
717.367631,57643.4
721.9011314,57190.2
726.4277595,55839.2
730.9475271,55598.8
735.4604456,55281.4
739.9665264,55712
744.4657813,55487
748.9582215,54741
753.4438587,53861.2
757.9227042,53116.8
762.3947696,53279.2
766.8600662,52357.6
771.3186056,53616.6
775.770399,52604.8
780.215458,52532.6
784.6537939,51565.8
789.0854181,51989.2
793.510342,51665.4
797.9285769,52139.2
802.3401342,52022
806.7450253,52658.2
811.1432614,52736.6
815.5348538,52202.4
819.9198139,51180.8
824.2981531,51078.6
828.6698824,50768.4
833.0350133,50084.8
837.393557,49395.4
841.7455248,49740.6
846.0909278,48898.4
850.4297774,49021
854.7620848,49059
859.0878611,48964.4
863.4071176,48592.4
867.7198655,49053
872.026116,49277.8
876.3258802,49345.4
880.6191693,48892.8
884.9059946,48658.8
889.186367,49018.6
893.4602979,47620.8
897.7277982,47621.4
901.9888793,48489.2
906.2435521,49132.8
910.4918277,48835
914.7337174,49403.8
918.9692321,49692.8
923.1983831,50195.6
927.4211813,49503.6
931.6376378,50555.6
935.8477637,50006.8
940.0515701,50665.6
944.249068,50976.8
948.4402684,49721.4
952.6251825,50501.2
956.8038212,50266.6
960.9761955,50658.2
965.1423166,50330.2
969.3021953,50353.2
973.4558427,50317.2
977.6032699,50334.2
981.7444877,50022.6
985.8795072,50349.2
990.0083394,50457.8
994.1309953,50710.6
998.2474857,52684.6
1002.357822,53608.2
1006.462014,55549.6
1010.560075,54537.4
1014.652013,52514.8
1018.737841,51673
1022.81757,50779.4
1026.891209,50649
1030.958771,50567
1035.020266,51366.6
1039.075705,51949.4
1043.1251,52765
1047.16846,53785.4
1051.205797,55613.6
1055.237121,57554.8
1059.262444,61833.4
1063.281777,64159.6
1067.295131,64156.4
1071.302515,64155.8
1075.303942,64159.6
1079.299422,64176.6
1083.288966,64230.2
1087.272585,64397.2
1091.250289,61783.6
1095.222091,58061.6
1099.187999,55345.4
1103.148026,54980.2
1107.102183,54505.2
1111.050479,54586.4
1114.992927,55654
1118.929536,57364
1122.860318,60522.8
1126.785283,64169.8
1130.704443,64162.4
1134.617808,64162.6
1138.52539,64162
1142.427198,64162.8
1146.323244,64164.4
1150.213538,64166.6
1154.098093,64170
1157.976917,64167.6
1161.850023,64163.6
1165.717421,64162.8
1169.579121,64165.8
1173.435135,64176
1177.285474,64198.4
1181.130148,64252.2
1184.969169,64400.6
1188.802547,63070.6
1192.630292,60550.6
1196.452416,58240.4
1200.26893,56892.4
1204.079844,55958.4
1207.88517,55028.2
1211.684917,55576.2
1215.479098,54926.4
1219.267722,56593
1223.050801,54951.2
1226.828346,55019
1230.600366,54561
1234.366874,54414.8
1238.12788,53800.2
1241.883395,53765.2
1245.633429,53267
1249.377994,53830.8
1253.1171,53226.8
1256.850759,53514.8
1260.578981,53215.4
1264.301776,53258.4
1268.019157,53226.8
1271.731133,52772.4
1275.437715,52845
1279.138915,53085.4
1282.834743,53491
1286.52521,53399.4
1290.210328,53637.8
1293.890106,54463.2
1297.564555,55546.4
1301.233688,55493
1304.897514,55509.2
1308.556044,55622.2
1312.209289,55136
1315.857261,54069.8
1319.499969,54461.8
1323.137425,54977
1326.769641,54506.6
1330.396626,55060
1334.018391,54927.4
1337.634948,55058.6
1341.246307,55109.2
1344.85248,55240.4
1348.453477,55327.4
1352.049309,54911.6
1355.639987,55223.6
1359.225522,55710.6
1362.805925,54959.2
1366.381207,55357.4
1369.951379,56063.2
1373.516452,56903.4
1377.076436,57789.2
1380.631343,60068
1384.181184,62633.6
1387.725969,64253.8
1391.26571,64401.6
1394.800417,62450.6
1398.330102,58232.8
1401.854776,55278.2
1405.374448,53156.8
1408.889132,52324.2
1412.398837,52369.4
1415.903574,53529.2
1419.403355,56507.8
1422.89819,59329.4
1426.388091,63489.2
1429.873069,64162.8
1433.353134,64180.6
1436.828298,64237.6
1440.298571,64395.6
1443.763965,62386.8
1447.224491,58775.6
1450.68016,55305.6
1454.130983,53158.6
1457.576971,51734.6
1461.018135,50766.2
1464.454486,50616.8
1467.886036,50406
1471.312794,50539.2
1474.734774,49550.2
1478.151985,49436
1481.564439,48339.8
1484.972146,47563.4
1488.375119,46908
1491.773368,46961.2
1495.166904,46817.2
1498.555739,46424
1501.939883,46742
1505.319349,46090.8
1508.694146,46745
1512.064286,47072.6
1515.429781,47125.8
1518.790642,47300.6
1522.146879,47806.2
1525.498505,47881.6
1528.845529,48125.2
1532.187965,50059.8
1535.525822,50776.4
1538.859112,51465
1542.187846,53012.4
1545.512036,53376.8
1548.831693,55503.4
1552.146829,56363
1555.457453,56772.4
1558.763579,56828.6
1562.065216,57788.8
1565.362377,58310
1568.655073,58350
1571.943315,58281.8
1575.227114,57671.2
1578.506482,57086.8
1581.781431,55877
1585.051971,54107.2
1588.318114,52672
1591.579872,50393.8
1594.837255,47414.2
1598.090275,44834.6
1601.338945,42401.2
1604.583274,41417.2
1607.823275,40165.8
1611.058959,38806.4
1614.290338,38550.2
1617.517422,37057
1620.740224,36699.2
1623.958755,35496.4
1627.173027,34685.2
1630.38305,33842.4
1633.588838,33483
1636.7904,32585
1639.987749,32199.4
1643.180896,31904.2
1646.369853,30757.6
1649.554632,31085.8
1652.735244,29873.8
1655.9117,29319.8
1659.084013,29174.2
1662.252193,29559.8
1665.416254,28401.6
1668.576205,28531.4
1671.732059,28350.2
1674.883828,28235.6
1678.031523,27582
1681.175157,27553
1684.314739,27342.4
1687.450284,26984.2
1690.581801,26684.8
1693.709304,26497.6
1696.832803,26430
1699.952311,26519
1703.067839,26289.6
1706.179399,26134
1709.287003,26260.6
1712.390663,25732
1715.49039,25690
1718.586197,25960.6
1721.678095,25705
1724.766096,25455.6
1727.850213,24827.6
1730.930456,24926.8
1734.006838,24683
1737.079372,24864.6
1740.148067,24378.6
1743.212938,25179.8
1746.273996,24294.6
1749.331252,24047.2
1752.384718,24186
1755.434408,23946
1758.480332,23817.2
1761.522503,23467.4
1764.560933,23297
1767.595634,22828.4
1770.626618,23468.6
1773.653896,23318.4
1776.677482,22956.6
1779.697388,22939.2
1782.713625,23367
1785.726205,23241.8
1788.735141,23252.2
1791.740445,22896.6
1794.742129,22570.8
1797.740206,23159.2
1800.734687,22933
1803.725585,22789.2
1806.712912,22584.4
1809.69668,22352.2
1812.676902,22389.2
1815.65359,22054
1818.626756,22180.4
1821.596413,22229.6
1824.562573,21829
1827.525247,22099.8
1830.48445,22056.4
1833.440192,22019
1836.392487,21859
1839.341347,22117.8
1842.286784,22031.6
1845.22881,21330.8
1848.167439,21971.8
1851.102682,21724
1854.034553,21555.8
1856.963063,21470.2
1859.888226,22147.6
1862.810053,21651.4
1865.728557,21484.8
1868.643751,21118.2
1871.555648,21091.2
1874.46426,20609.8
1877.369599,21174.8
1880.271679,20923.8
1883.170512,21006
1886.06611,21192.8
1888.958487,20976.4
1891.847655,20905
1894.733626,21062.6
1897.616414,21165.6
1900.496032,20470.6
1903.372491,20756.8
1906.245805,20941.6
1909.115987,21014.8
1911.983049,20915.4
1914.847004,20751.2
1917.707866,20785.4
1920.565646,20639
1923.420359,20334
1926.272016,20338.2
1929.120631,20203.8
1931.966216,20320.2
1934.808786,20204.4
1937.648351,20481.6
1940.484927,20208
1943.318525,20210
1946.149158,20396.8
1948.97684,21201.4
1951.801584,20077.2
1954.623403,20048.6
1957.44231,20021
1960.258318,19596.2
1963.071439,19585.2
1965.881688,19692.2
1968.689078,19759
1971.493621,19428.4
