Ramanshift[cm-1],Intensity
-93.47115107,14120.6
-87.69374369,12907
-81.9253076,12659.6
-76.16582701,12760.2
-70.41528615,12861.4
-64.67366933,12567
-58.94096086,12457.8
-53.21714512,12755.4
-47.50220652,12893.4
-41.79612954,12836.6
-36.09889866,13416.4
-30.41049843,13447.6
-24.73091343,12995.4
-19.0601283,13027.2
-13.39812769,12920
-7.744896327,12606.2
-2.100418946,12427.4
3.535319659,13156.8
9.162334658,12417.2
14.78064118,12799
20.39025432,12467.2
25.99118913,12591.8
31.58346061,13045.6
37.16708375,12829.2
42.74207347,12496.6
48.30844468,12515.6
53.86621222,12382.2
59.41539093,12065.4
64.95599558,12004
70.48804091,12377.4
76.01154164,12589.2
81.52651243,11866.8
87.03296792,12440
92.5309227,12739
98.02039134,12086.2
103.5013884,12354.8
108.9739282,12200.4
114.4380255,12207.6
119.8936944,12439.6
125.3409495,13242.2
130.779805,12084.4
136.2102753,11926.8
141.6323747,11867.4
147.0461174,12602
152.4515176,12176.2
157.8485895,12100.4
163.2373472,11949.2
168.6178049,12238.8
173.9899766,12631.8
179.3538764,12110.8
184.7095182,12176.2
190.0569161,12468.6
195.396084,12599.8
200.7270358,12021.6
206.0497854,12062.6
211.3643466,11752.4
216.6707333,12262.4
221.9689593,11814.6
227.2590382,12017.8
232.5409839,11965.2
237.8148101,11962.4
243.0805303,12078
248.3381582,11953.8
253.5877075,11836
258.8291917,12028.2
264.0626244,12196
269.288019,12350.4
274.5053891,12608.6
279.7147481,12326.4
284.9161094,12762.4
290.1094865,15215.8
295.2948927,22680.6
300.4723414,39814
305.6418459,62666
310.8034194,64165.6
315.9570752,64165.2
321.1028267,64165.2
326.2406869,64165
331.370669,64163.8
336.4927863,64163
341.6070517,64162.6
346.7134786,64162.2
351.8120798,64162.2
356.9028684,64162.4
361.9858576,64161.6
367.0610602,64161.4
372.1284892,64161.6
377.1881577,64161.8
382.2400784,64160.8
387.2842644,64161
392.3207284,64159.4
397.3494833,64161
402.370542,64160.2
407.3839172,64160.6
412.3896217,64160.2
417.3876683,64160.4
422.3780697,64160.6
427.3608386,64160.4
432.3359876,64160.2
437.3035295,64160.8
442.2634769,64160.8
447.2158423,64160.8
452.1606383,64161.4
457.0978776,64161.2
462.0275727,64161
466.9497361,64161.8
471.8643802,64160.6
476.7715176,64161.6
481.6711608,64161
486.5633221,64161.6
491.448014,64162.6
496.3252488,64162.2
501.195039,64162.6
506.0573969,64162.8
510.9123349,64162.8
515.7598651,64162.8
520.6,64163.4
525.4327518,64163.4
530.2581327,64163.4
535.076155,64164.2
539.8868309,64163.2
544.6901726,64163.6
549.4861922,64163.6
554.2749019,64163.4
559.0563139,64163
563.8304402,64163.8
568.597293,64163.8
573.3568844,64164.2
578.1092263,64163.8
582.8543308,64164.2
587.5922101,64163.6
592.322876,64163.4
597.0463405,64163.4
601.7626157,64163.4
606.4717135,64163.4
611.1736458,64163.4
615.8684246,64163.6
620.5560617,64163
625.2365691,64162.2
629.9099585,64162.2
634.5762419,64162.2
639.2354312,64161.8
643.887538,64162.4
648.5325743,64161.6
653.1705518,64161.8
657.8014823,64161.8
662.4253775,64161.4
667.0422493,64162
671.6521092,64161.2
676.2549691,64161.2
680.8508407,64161.2
685.4397355,64161.8
690.0216654,64161.2
694.5966419,64161.8
699.1646767,64161.4
703.7257814,64161.8
708.2799676,64161.8
712.827247,64161.8
717.367631,64162.6
721.9011314,64162.2
726.4277595,64162
730.9475271,64162.4
735.4604456,64163.2
739.9665264,64163.6
744.4657813,64163.4
748.9582215,64163.6
753.4438587,64163.4
757.9227042,64164.2
762.3947696,64164.2
766.8600662,64163.8
771.3186056,64164.2
775.770399,64164
780.215458,64164.2
784.6537939,64164
789.0854181,64164.4
793.510342,64164.6
797.9285769,64164.8
802.3401342,64164.6
806.7450253,64164.2
811.1432614,64164.2
815.5348538,64165.2
819.9198139,64164.2
824.2981531,64164.2
828.6698824,64164.2
833.0350133,64164.4
837.393557,64163.8
841.7455248,64164.6
846.0909278,64164.2
850.4297774,64164.2
854.7620848,64163.8
859.0878611,64163.4
863.4071176,64162.8
867.7198655,64163.2
872.026116,64162.4
876.3258802,64162.6
880.6191693,64162
884.9059946,64162.2
889.186367,64162.4
893.4602979,64162.8
897.7277982,64162.8
901.9888793,64162.6
906.2435521,64162.4
910.4918277,64162.4
914.7337174,64162.8
918.9692321,64162.6
923.1983831,64163
927.4211813,64163
931.6376378,64162.8
935.8477637,64162.8
940.0515701,64163.2
944.249068,64163.8
948.4402684,64163.4
952.6251825,64163.2
956.8038212,64162.8
960.9761955,64164
965.1423166,64164.2
969.3021953,64164.2
973.4558427,64164.2
977.6032699,64164.4
981.7444877,64164.8
985.8795072,64165
990.0083394,64165
994.1309953,64165
998.2474857,64165.8
1002.357822,64164.8
1006.462014,64165.8
1010.560075,64166.4
1014.652013,64165.8
1018.737841,64166
1022.81757,64165.6
1026.891209,64165.6
1030.958771,64165.2
1035.020266,64165.8
1039.075705,64165.4
1043.1251,64166
1047.16846,64165.4
1051.205797,64164.8
1055.237121,64164.8
1059.262444,64164.6
1063.281777,64164.4
1067.295131,64163.2
1071.302515,64162.8
1075.303942,64162.8
1079.299422,64163.8
1083.288966,64162.8
1087.272585,64162.4
1091.250289,64162.4
1095.222091,64163.2
1099.187999,64163.2
1103.148026,64163.4
1107.102183,64163.6
1111.050479,64163.4
1114.992927,64164
1118.929536,64163.6
1122.860318,64163.4
1126.785283,64163.6
1130.704443,64164.2
1134.617808,64162.8
1138.52539,64163.6
1142.427198,64163.8
1146.323244,64164.6
1150.213538,64164.8
1154.098093,64165
1157.976917,64165
1161.850023,64165.2
1165.717421,64166
1169.579121,64166
1173.435135,64165.8
1177.285474,64166
1181.130148,64166
1184.969169,64166.8
1188.802547,64166.6
1192.630292,64167.8
1196.452416,64168
1200.26893,64168
1204.079844,64169
1207.88517,64168.2
1211.684917,64168.2
1215.479098,64167.6
1219.267722,64167.4
1223.050801,64168.6
1226.828346,64168
1230.600366,64168.6
1234.366874,64168.4
1238.12788,64168
1241.883395,64167.6
1245.633429,64167.2
1249.377994,64167.8
1253.1171,64167.4
1256.850759,64168
1260.578981,64167.2
1264.301776,64167.4
1268.019157,64168.2
1271.731133,64168.6
1275.437715,64167.2
1279.138915,64167
1282.834743,64168.6
1286.52521,64169.4
1290.210328,64169
1293.890106,64167.8
1297.564555,64169.8
1301.233688,64169
1304.897514,64169.4
1308.556044,64170.2
1312.209289,64172.6
1315.857261,64173.8
1319.499969,64171.2
1323.137425,64174.4
1326.769641,64173.2
1330.396626,64173.4
1334.018391,64174.6
1337.634948,64177.6
1341.246307,64183.2
1344.85248,64191.6
1348.453477,64214.6
1352.049309,64162.4
1355.639987,64217
1359.225522,64191.4
1362.805925,64261.2
1366.381207,63994.2
1369.951379,64077.4
1373.516452,64183
1377.076436,64112
1380.631343,64223.2
1384.181184,63838.8
1387.725969,64035.2
1391.26571,63806.4
1394.800417,63434.8
1398.330102,62927.6
1401.854776,63221.6
1405.374448,62375.8
1408.889132,62541.2
1412.398837,61858.4
1415.903574,61636.4
1419.403355,62482.8
1422.89819,62064.6
1426.388091,62026.4
1429.873069,62085.4
1433.353134,61704.2
1436.828298,61019.4
1440.298571,60685.2
1443.763965,59921.4
1447.224491,59744
1450.68016,59386.6
1454.130983,59542.8
1457.576971,59037.8
1461.018135,59122
1464.454486,58701.2
1467.886036,57939
1471.312794,57744.4
1474.734774,57057.6
1478.151985,57725.4
1481.564439,56940.2
1484.972146,56294
1488.375119,55393
1491.773368,56053.4
1495.166904,55797.2
1498.555739,55307.6
1501.939883,55033.6
1505.319349,54329.4
1508.694146,54765.2
1512.064286,54550
1515.429781,54374.2
1518.790642,53914.6
1522.146879,54221.6
1525.498505,53691.4
1528.845529,53215.2
1532.187965,53775.6
1535.525822,53249.2
1538.859112,52896
1542.187846,53720
1545.512036,52491.8
1548.831693,53424.8
1552.146829,52922
1555.457453,52177.8
1558.763579,51515
1562.065216,51954.6
1565.362377,51928
1568.655073,51963.2
1571.943315,51579
1575.227114,51424.2
1578.506482,50929.2
1581.781431,50852.6
1585.051971,50094.8
1588.318114,49855.8
1591.579872,49157.2
1594.837255,48322
1598.090275,47484.8
1601.338945,46990.2
1604.583274,46936
1607.823275,46039.4
1611.058959,44910.6
1614.290338,45312.6
1617.517422,43772.2
1620.740224,43632.8
1623.958755,42762
1627.173027,42373
1630.38305,41653.6
1633.588838,41426.8
1636.7904,40968.6
1639.987749,40747.4
1643.180896,40418.2
1646.369853,39251.8
1649.554632,39877.4
1652.735244,38744.2
1655.9117,38013.4
1659.084013,37937.8
1662.252193,38387.8
1665.416254,37238.2
1668.576205,37424.8
1671.732059,37160
1674.883828,37223.2
1678.031523,36212.6
1681.175157,36302.2
1684.314739,36040
1687.450284,35661.2
1690.581801,35411.6
1693.709304,35176.8
1696.832803,35006.6
1699.952311,35079.8
1703.067839,34847.4
1706.179399,34774.8
1709.287003,34749.8
1712.390663,34349.8
1715.49039,34296.6
1718.586197,34419.2
1721.678095,34228.8
1724.766096,34036.2
1727.850213,33334
1730.930456,33363.4
1734.006838,33014.4
1737.079372,33166.4
1740.148067,32590.2
1743.212938,33202.6
1746.273996,32534.2
1749.331252,32113
1752.384718,31997.4
1755.434408,31933.8
1758.480332,31649.2
1761.522503,31270.8
1764.560933,30932.6
1767.595634,30452
1770.626618,31076
1773.653896,31068.2
1776.677482,30341.2
1779.697388,30280
1782.713625,30690.6
1785.726205,30569.4
1788.735141,30520.2
1791.740445,29971.4
1794.742129,29694.6
1797.740206,30468.4
1800.734687,30292.8
1803.725585,30245
1806.712912,29874
1809.69668,29846.4
1812.676902,29730
1815.65359,29402.8
1818.626756,29410.6
1821.596413,29293.4
1824.562573,29026.6
1827.525247,29237.8
1830.48445,29146.8
1833.440192,29076.8
1836.392487,28885.6
1839.341347,28918
1842.286784,28876.2
1845.22881,28385.8
1848.167439,28756
1851.102682,28585.4
1854.034553,28238
1856.963063,28228.4
1859.888226,28844.8
1862.810053,28398.6
1865.728557,28104.4
1868.643751,27763.8
1871.555648,27787
1874.46426,27353.6
1877.369599,28021.8
1880.271679,27619.6
1883.170512,27651.2
1886.06611,27904.2
1888.958487,27576.8
1891.847655,27329
1894.733626,27598.6
1897.616414,27516.2
1900.496032,26760
1903.372491,27055.2
1906.245805,27266.4
1909.115987,27413.6
1911.983049,27105.6
1914.847004,27174.6
1917.707866,26971
1920.565646,26902.4
1923.420359,26275
1926.272016,26560.6
1929.120631,26406.2
1931.966216,26231.4
1934.808786,26370
1937.648351,26329.4
1940.484927,26072.6
1943.318525,26189.4
1946.149158,26414.2
1948.97684,27356.6
1951.801584,26074.2
1954.623403,25969.8
1957.44231,25793.4
1960.258318,25282.4
1963.071439,25319.2
1965.881688,25589.4
1968.689078,25693.2
1971.493621,25171.6
