Ramanshift[cm-1],Intensity
-93.47115107,13557.2
-87.69374369,12319
-81.9253076,12064.4
-76.16582701,12220.4
-70.41528615,12244.4
-64.67366933,11939.8
-58.94096086,11932
-53.21714512,12119.4
-47.50220652,12336.2
-41.79612954,12254
-36.09889866,12704.4
-30.41049843,12803
-24.73091343,12482.8
-19.0601283,12460.4
-13.39812769,12266.4
-7.744896327,12125.6
-2.100418946,11886.6
3.535319659,12534.4
9.162334658,11934.4
14.78064118,12318.2
20.39025432,11918.8
25.99118913,12007.4
31.58346061,12432.6
37.16708375,12302.8
42.74207347,11828
48.30844468,11933.6
53.86621222,11844.6
59.41539093,11522.4
64.95599558,11539.2
70.48804091,11834.4
76.01154164,11999.8
81.52651243,11364.6
87.03296792,11919.2
92.5309227,12124.4
98.02039134,11515.8
103.5013884,11781.6
108.9739282,11663.4
114.4380255,11649.2
119.8936944,11879.4
125.3409495,12764.2
130.779805,11619.4
136.2102753,11344
141.6323747,11467.8
147.0461174,11992.4
152.4515176,11551.8
157.8485895,11446
163.2373472,11402
168.6178049,11699.4
173.9899766,11969.2
179.3538764,11586.4
184.7095182,11673
190.0569161,11834.4
195.396084,12016.4
200.7270358,11408
206.0497854,11542
211.3643466,11240
216.6707333,11632
221.9689593,11296.2
227.2590382,11425.8
232.5409839,11409.2
237.8148101,11338.2
243.0805303,11392
248.3381582,11380.2
253.5877075,11206.2
258.8291917,11412.8
264.0626244,11398.8
269.288019,11568.4
274.5053891,11791.4
279.7147481,11536.2
284.9161094,11321
290.1094865,11712.6
295.2948927,12892.2
300.4723414,15727.8
305.6418459,18344
310.8034194,20873.2
315.9570752,22936
321.1028267,23436.4
326.2406869,23382.4
331.370669,23726.4
336.4927863,24081.2
341.6070517,24301
346.7134786,24330
351.8120798,24638.8
356.9028684,24302.8
361.9858576,24538.8
367.0610602,24726.4
372.1284892,24336.8
377.1881577,25054
382.2400784,25590.2
387.2842644,26208.8
392.3207284,26951.6
397.3494833,26493.8
402.370542,25969
407.3839172,25026
412.3896217,24305.2
417.3876683,23650.6
422.3780697,23742.8
427.3608386,23600.2
432.3359876,23766.2
437.3035295,23762
442.2634769,23822.4
447.2158423,23052.6
452.1606383,23016.4
457.0978776,23035.6
462.0275727,22376.2
466.9497361,22942.2
471.8643802,22243.8
476.7715176,22859.6
481.6711608,22831.4
486.5633221,23087.6
491.448014,22907.6
496.3252488,22844.4
501.195039,22909.2
506.0573969,23177
510.9123349,22612.6
515.7598651,22206
520.6,22477.8
525.4327518,22428.8
530.2581327,22405.8
535.076155,21765.6
539.8868309,22074.6
544.6901726,22160.6
549.4861922,21844.8
554.2749019,22878.8
559.0563139,22022.6
563.8304402,21804
568.597293,22653.6
573.3568844,22369.2
578.1092263,21860.2
582.8543308,22224.2
587.5922101,22185.2
592.322876,21695.8
597.0463405,21869.2
601.7626157,22107.6
606.4717135,21645.6
611.1736458,21561.4
615.8684246,21716
620.5560617,21968
625.2365691,21733.6
629.9099585,22082.4
634.5762419,22143.6
639.2354312,21459.6
643.887538,21726.4
648.5325743,21390.8
653.1705518,21324
657.8014823,21615
662.4253775,20881.6
667.0422493,21308.8
671.6521092,21186
676.2549691,21244
680.8508407,21207.4
685.4397355,21029
690.0216654,21181.8
694.5966419,20972.4
699.1646767,21330
703.7257814,21136
708.2799676,21229.8
712.827247,21366.8
717.367631,21073.2
721.9011314,21011.4
726.4277595,20333.6
730.9475271,20926.4
735.4604456,20813.6
739.9665264,21224.6
744.4657813,20652.8
748.9582215,20602.6
753.4438587,20221.2
757.9227042,19929.4
762.3947696,20532.4
766.8600662,19948.6
771.3186056,21270.6
775.770399,20240.6
780.215458,20403.2
784.6537939,19889.8
789.0854181,19691.6
793.510342,19874.4
797.9285769,20396
802.3401342,19715.6
806.7450253,19873.8
811.1432614,19817.2
815.5348538,19724
819.9198139,19258
824.2981531,19392.6
828.6698824,19487.8
833.0350133,19237.2
837.393557,19040.8
841.7455248,19333.6
846.0909278,18992.6
850.4297774,19127.6
854.7620848,19187.4
859.0878611,19358.2
863.4071176,18696.4
867.7198655,19212.2
872.026116,19603.4
876.3258802,19853.6
880.6191693,19440.2
884.9059946,19434.6
889.186367,19838.6
893.4602979,18829.6
897.7277982,18638
901.9888793,19219.6
906.2435521,19387.4
910.4918277,18912
914.7337174,18919.6
918.9692321,18771
923.1983831,19427.4
927.4211813,19013.4
931.6376378,19667.8
935.8477637,19237.2
940.0515701,19361.8
944.249068,19446.8
948.4402684,18539.6
952.6251825,19409.6
956.8038212,18962.2
960.9761955,19513.8
965.1423166,19214.8
969.3021953,19203
973.4558427,19264.6
977.6032699,18779.8
981.7444877,19097.4
985.8795072,19068.2
990.0083394,19057
994.1309953,18845
998.2474857,19182
1002.357822,18397.6
1006.462014,18930.8
1010.560075,18666
1014.652013,18861.2
1018.737841,19171
1022.81757,18600.6
1026.891209,18541.8
1030.958771,18560.8
1035.020266,18817.2
1039.075705,18438
1043.1251,18221.8
1047.16846,18414
1051.205797,18429.2
1055.237121,18140
1059.262444,18167.6
1063.281777,18213.2
1067.295131,18739.8
1071.302515,20453.6
1075.303942,20492.8
1079.299422,21525.4
1083.288966,20750.8
1087.272585,19647
1091.250289,19058
1095.222091,18770.2
1099.187999,18154.8
1103.148026,18223.6
1107.102183,18058.8
1111.050479,18239.6
1114.992927,18150.4
1118.929536,17971.2
1122.860318,18295.2
1126.785283,17904.4
1130.704443,17964.4
1134.617808,18893.6
1138.52539,18792.6
1142.427198,18749.6
1146.323244,18685.4
1150.213538,18016.8
1154.098093,18374
1157.976917,17859.4
1161.850023,17720
1165.717421,18264.2
1169.579121,17995.2
1173.435135,18449.8
1177.285474,17759.2
1181.130148,17902.2
1184.969169,18134
1188.802547,17976.8
1192.630292,17607.8
1196.452416,17218.4
1200.26893,17186.2
1204.079844,16840.8
1207.88517,16605
1211.684917,17132.4
1215.479098,16806.2
1219.267722,18288.2
1223.050801,16772.4
1226.828346,16812
1230.600366,17134
1234.366874,17137.2
1238.12788,16803.2
1241.883395,16948.8
1245.633429,17156.2
1249.377994,17243.2
1253.1171,16461.6
1256.850759,16805.6
1260.578981,16730.4
1264.301776,16806.4
1268.019157,16784
1271.731133,16513
1275.437715,16342.8
1279.138915,16879
1282.834743,17025.6
1286.52521,16568.4
1290.210328,16479
1293.890106,16489.6
1297.564555,17090.6
1301.233688,16469.4
1304.897514,16758.6
1308.556044,16868.4
1312.209289,16823
1315.857261,16179.6
1319.499969,16242.6
1323.137425,17076.6
1326.769641,16602.2
1330.396626,17211
1334.018391,16607.8
1337.634948,16789
1341.246307,16399.8
1344.85248,16439.2
1348.453477,16284
1352.049309,16169.2
1355.639987,16406.2
1359.225522,16906.8
1362.805925,16473.4
1366.381207,16495.6
1369.951379,16457.4
1373.516452,16633.2
1377.076436,16823.2
1380.631343,16693.6
1384.181184,16579.8
1387.725969,16721.2
1391.26571,16308.6
1394.800417,16186.4
1398.330102,16250.4
1401.854776,16369.4
1405.374448,16123.2
1408.889132,15668.6
1412.398837,15358
1415.903574,15743.4
1419.403355,16383.4
1422.89819,15971.4
1426.388091,15981.4
1429.873069,16526.4
1433.353134,15972
1436.828298,15945
1440.298571,16041
1443.763965,15609
1447.224491,15446.2
1450.68016,15442.6
1454.130983,15918.8
1457.576971,15720.2
1461.018135,15753.6
1464.454486,15886.4
1467.886036,15328.2
1471.312794,15480.4
1474.734774,15218.6
1478.151985,15816.8
1481.564439,15556
1484.972146,15420.8
1488.375119,15105.4
1491.773368,15415.2
1495.166904,15987.4
1498.555739,15290.8
1501.939883,15406.2
1505.319349,14872.6
1508.694146,15145
1512.064286,15272.2
1515.429781,15233.6
1518.790642,14937.2
1522.146879,15119.6
1525.498505,14683.6
1528.845529,14702
1532.187965,15375.8
1535.525822,15081
1538.859112,15023.8
1542.187846,15645.2
1545.512036,14709.8
1548.831693,15977.6
1552.146829,15602.2
1555.457453,14767.2
1558.763579,14416.2
1562.065216,15121
1565.362377,15398.2
1568.655073,15757.6
1571.943315,15516.2
1575.227114,15577.4
1578.506482,15568
1581.781431,16051.8
1585.051971,15663.4
1588.318114,15670.6
1591.579872,15550.4
1594.837255,15128.8
1598.090275,14736.8
1601.338945,14695.8
1604.583274,14981.4
1607.823275,14460.4
1611.058959,14081.6
1614.290338,14690
1617.517422,14012.8
1620.740224,14277.2
1623.958755,13995
1627.173027,14109.2
1630.38305,13612
1633.588838,14007.4
1636.7904,13754.8
1639.987749,14024.4
1643.180896,14136.8
1646.369853,13522.6
1649.554632,14286.8
1652.735244,13641.8
1655.9117,13292.8
1659.084013,13648
1662.252193,14227.6
1665.416254,13427.4
1668.576205,13576.2
1671.732059,13942.2
1674.883828,13817
1678.031523,13321.8
1681.175157,13315.2
1684.314739,13407.6
1687.450284,13319.2
1690.581801,13218.6
1693.709304,13040.8
1696.832803,13080.6
1699.952311,13314.2
1703.067839,13207.6
1706.179399,13184.6
1709.287003,13600.4
1712.390663,13205.2
1715.49039,13229.6
1718.586197,13515.2
1721.678095,13320
1724.766096,13362
1727.850213,12848.6
1730.930456,13094.8
1734.006838,12972.6
1737.079372,13145.4
1740.148067,12833.8
1743.212938,13804.2
1746.273996,13104.8
1749.331252,13041
1752.384718,12989
1755.434408,13059
1758.480332,13110.2
1761.522503,12997.2
1764.560933,12721.6
1767.595634,12525.2
1770.626618,13205.8
1773.653896,13203.4
1776.677482,12852.4
1779.697388,12705
1782.713625,13187.8
1785.726205,13210
1788.735141,13156.4
1791.740445,12743.2
1794.742129,12688.2
1797.740206,13077
1800.734687,13213.8
1803.725585,12913.2
1806.712912,12868.6
1809.69668,12671.4
1812.676902,12670
1815.65359,12386
1818.626756,12440.4
1821.596413,12610.4
1824.562573,12345.8
1827.525247,12589
1830.48445,12378.2
1833.440192,12557.4
1836.392487,12460.6
1839.341347,12674.6
1842.286784,12725
1845.22881,12123
1848.167439,12723.4
1851.102682,12570
1854.034553,12592.8
1856.963063,12276.4
1859.888226,13270.6
1862.810053,12719.6
1865.728557,12478.2
1868.643751,12347.8
1871.555648,12355
1874.46426,11963.8
1877.369599,12598.4
1880.271679,12494.6
1883.170512,12402
1886.06611,12776.6
1888.958487,12468.8
1891.847655,12407.2
1894.733626,12541.2
1897.616414,12666.2
1900.496032,12177
1903.372491,12440.6
1906.245805,12780.8
1909.115987,12799.8
1911.983049,12680.2
1914.847004,12567
1917.707866,12748.8
1920.565646,12559.6
1923.420359,12314.8
1926.272016,12568
1929.120631,12255.6
1931.966216,12456.8
1934.808786,12377.2
1937.648351,12513.6
1940.484927,12407.8
1943.318525,12571.8
1946.149158,12791.4
1948.97684,13816.2
1951.801584,12882.8
1954.623403,12544.2
1957.44231,12695.4
1960.258318,12181.4
1963.071439,12178
1965.881688,12378.6
1968.689078,12581.4
1971.493621,12264.4
