Ramanshift[cm-1],Intensity
-93.47115107,14032.2
-87.69374369,12813.2
-81.9253076,12538
-76.16582701,12543.4
-70.41528615,12735.8
-64.67366933,12442.8
-58.94096086,12439.6
-53.21714512,12522.2
-47.50220652,12698.6
-41.79612954,12741.2
-36.09889866,13193.2
-30.41049843,13313.6
-24.73091343,12937
-19.0601283,12949.8
-13.39812769,12701
-7.744896327,12501.8
-2.100418946,12349.8
3.535319659,13036
9.162334658,12358
14.78064118,12620
20.39025432,12366.8
25.99118913,12361.4
31.58346061,12886.4
37.16708375,12641.8
42.74207347,12341.2
48.30844468,12338.2
53.86621222,12180.4
59.41539093,11850.4
64.95599558,11891.2
70.48804091,12340.4
76.01154164,12363.6
81.52651243,11781.2
87.03296792,12335.2
92.5309227,12624
98.02039134,11940.2
103.5013884,12201
108.9739282,12001.6
114.4380255,12094.4
119.8936944,12198.2
125.3409495,13096.8
130.779805,12001
136.2102753,11756.8
141.6323747,11805.4
147.0461174,12395.8
152.4515176,11917.6
157.8485895,11925.2
163.2373472,11836.4
168.6178049,12182.2
173.9899766,12421.4
179.3538764,11968
184.7095182,12035.8
190.0569161,12287.6
195.396084,12444.2
200.7270358,11910.8
206.0497854,12035
211.3643466,11641.4
216.6707333,11932
221.9689593,11600.8
227.2590382,11820.6
232.5409839,11850
237.8148101,11755.2
243.0805303,11804
248.3381582,11775.6
253.5877075,11662.4
258.8291917,11826.4
264.0626244,11736.6
269.288019,12072.4
274.5053891,12180.4
279.7147481,11823
284.9161094,11709.4
290.1094865,11981
295.2948927,12887.6
300.4723414,14975.4
305.6418459,17071.4
310.8034194,19088
315.9570752,20701.2
321.1028267,21156
326.2406869,21244.6
331.370669,21337.4
336.4927863,21500
341.6070517,21707
346.7134786,21751.4
351.8120798,22094
356.9028684,21805.2
361.9858576,21926.8
367.0610602,22273.4
372.1284892,21888.8
377.1881577,22213.6
382.2400784,22376.6
387.2842644,22885
392.3207284,23809.6
397.3494833,23884.6
402.370542,23980.4
407.3839172,23219.8
412.3896217,22288.4
417.3876683,21665
422.3780697,21418.8
427.3608386,21160.2
432.3359876,21489.8
437.3035295,21461.4
442.2634769,21616
447.2158423,20724.2
452.1606383,20828
457.0978776,20912
462.0275727,20274
466.9497361,20807.4
471.8643802,20102.2
476.7715176,20678.4
481.6711608,20592
486.5633221,20860.6
491.448014,20796
496.3252488,20640.2
501.195039,20714.6
506.0573969,21071.4
510.9123349,20590.6
515.7598651,20013.4
520.6,20548.6
525.4327518,20402.4
530.2581327,20355.4
535.076155,19751.2
539.8868309,20191.4
544.6901726,20353.2
549.4861922,20105.8
554.2749019,20920.2
559.0563139,19997
563.8304402,19701.8
568.597293,20698.2
573.3568844,20357.6
578.1092263,19843.4
582.8543308,20396.2
587.5922101,20292.2
592.322876,19905.2
597.0463405,19949.4
601.7626157,20212.4
606.4717135,19802.4
611.1736458,19706.4
615.8684246,19954.4
620.5560617,20132
625.2365691,19832.6
629.9099585,20240
634.5762419,20469.2
639.2354312,19784.8
643.887538,20087.8
648.5325743,19677.8
653.1705518,19753.2
657.8014823,19873.4
662.4253775,19212.4
667.0422493,19567.4
671.6521092,19588.2
676.2549691,19693.8
680.8508407,19558.8
685.4397355,19466.6
690.0216654,19607.4
694.5966419,19395.6
699.1646767,19833.4
703.7257814,19448.6
708.2799676,19615.4
712.827247,19790
717.367631,19462.4
721.9011314,19545.4
726.4277595,18869.6
730.9475271,19557
735.4604456,19239.8
739.9665264,19740.2
744.4657813,19186
748.9582215,19165.4
753.4438587,18654.6
757.9227042,18510.4
762.3947696,19085.2
766.8600662,18465.8
771.3186056,19900.4
775.770399,18902
780.215458,19189.8
784.6537939,18494.6
789.0854181,18336.4
793.510342,18527.4
797.9285769,18966.2
802.3401342,18516
806.7450253,18710.6
811.1432614,18537.8
815.5348538,18350.4
819.9198139,18048.4
824.2981531,18259.4
828.6698824,18477.8
833.0350133,18383.2
837.393557,17968.6
841.7455248,18292.2
846.0909278,17958.6
850.4297774,18019.4
854.7620848,17941.8
859.0878611,18300.8
863.4071176,17587
867.7198655,18185.2
872.026116,18417.8
876.3258802,18691
880.6191693,18387
884.9059946,18400
889.186367,18799.8
893.4602979,17644.2
897.7277982,17530.6
901.9888793,17908.8
906.2435521,18302.8
910.4918277,17855.4
914.7337174,17747
918.9692321,17667.6
923.1983831,18317
927.4211813,17892
931.6376378,18659.8
935.8477637,18049.2
940.0515701,18241.2
944.249068,18270.4
948.4402684,17483.4
952.6251825,18316.8
956.8038212,17932.4
960.9761955,18603.4
965.1423166,18108.8
969.3021953,18006.2
973.4558427,18045.6
977.6032699,17890
981.7444877,18085.8
985.8795072,17957.4
990.0083394,18024.8
994.1309953,17614.2
998.2474857,18117.4
1002.357822,17288.6
1006.462014,17844.8
1010.560075,17795
1014.652013,18033.8
1018.737841,18326
1022.81757,17689.4
1026.891209,17613.2
1030.958771,17460.6
1035.020266,17915.4
1039.075705,17541.6
1043.1251,17252
1047.16846,17512.8
1051.205797,17402.6
1055.237121,17155
1059.262444,17148
1063.281777,17027.6
1067.295131,17337.8
1071.302515,18670.2
1075.303942,18666
1079.299422,20014.6
1083.288966,19811.2
1087.272585,19434.6
1091.250289,18805.8
1095.222091,18210.2
1099.187999,17637
1103.148026,17567.6
1107.102183,17164.2
1111.050479,17405.8
1114.992927,17093
1118.929536,17036.4
1122.860318,17438.2
1126.785283,16904
1130.704443,16861
1134.617808,17817.4
1138.52539,17697.4
1142.427198,17595
1146.323244,17839.2
1150.213538,17382.6
1154.098093,17765.2
1157.976917,16937.2
1161.850023,16743.4
1165.717421,17419
1169.579121,17001.2
1173.435135,17384.4
1177.285474,16600.4
1181.130148,16858.8
1184.969169,17234.8
1188.802547,17393.2
1192.630292,16840.6
1196.452416,16483.4
1200.26893,16416.6
1204.079844,16163.2
1207.88517,15723.6
1211.684917,16374.6
1215.479098,15951.8
1219.267722,17522
1223.050801,15992.6
1226.828346,16057.4
1230.600366,16290
1234.366874,16241
1238.12788,16149.4
1241.883395,16026.6
1245.633429,16428.6
1249.377994,16404.8
1253.1171,15607.2
1256.850759,16058.2
1260.578981,15997
1264.301776,15955.4
1268.019157,16060.6
1271.731133,15738.8
1275.437715,15493
1279.138915,16037.6
1282.834743,16306
1286.52521,15733.6
1290.210328,15587.4
1293.890106,15789.6
1297.564555,16309.6
1301.233688,15636.8
1304.897514,15852.4
1308.556044,15946.8
1312.209289,16009.2
1315.857261,15524.8
1319.499969,15596.2
1323.137425,16338.4
1326.769641,15818
1330.396626,16544.6
1334.018391,15835
1337.634948,16035.2
1341.246307,15747.6
1344.85248,15647
1348.453477,15489
1352.049309,15472
1355.639987,15591.4
1359.225522,16203.6
1362.805925,15696
1366.381207,15743.2
1369.951379,15738
1373.516452,15778
1377.076436,16063.4
1380.631343,15829.4
1384.181184,15650
1387.725969,15880.8
1391.26571,15617.2
1394.800417,15504
1398.330102,15664.4
1401.854776,15770.6
1405.374448,15578.2
1408.889132,15154.4
1412.398837,14781.6
1415.903574,15092.4
1419.403355,15654
1422.89819,15284.8
1426.388091,15163
1429.873069,15762
1433.353134,15295.4
1436.828298,15378.6
1440.298571,15595.6
1443.763965,15052.2
1447.224491,15049
1450.68016,14865.2
1454.130983,15283.4
1457.576971,15232.6
1461.018135,15363.2
1464.454486,15420.8
1467.886036,14917.8
1471.312794,14991
1474.734774,14689.2
1478.151985,15300
1481.564439,15051.4
1484.972146,14891.8
1488.375119,14538.4
1491.773368,14883.2
1495.166904,15590.4
1498.555739,14722.4
1501.939883,14827
1505.319349,14354
1508.694146,14761.6
1512.064286,14799.6
1515.429781,14744
1518.790642,14618.6
1522.146879,14950.2
1525.498505,14353.4
1528.845529,14284.2
1532.187965,14961
1535.525822,14641.8
1538.859112,14583.8
1542.187846,15173.6
1545.512036,14357.2
1548.831693,15538
1552.146829,15038.2
1555.457453,14421
1558.763579,13999.6
1562.065216,14569.8
1565.362377,14805
1568.655073,15201.2
1571.943315,14903.8
1575.227114,14935.2
1578.506482,14942.6
1581.781431,15588.6
1585.051971,15244.6
1588.318114,15299
1591.579872,15321.8
1594.837255,15175.2
1598.090275,14808.6
1601.338945,14727.2
1604.583274,15020.4
1607.823275,14372.2
1611.058959,13957
1614.290338,14616.6
1617.517422,13748.8
1620.740224,14125.4
1623.958755,13757.2
1627.173027,13789.6
1630.38305,13400
1633.588838,13966.2
1636.7904,13642.8
1639.987749,13814.4
1643.180896,13959.6
1646.369853,13398.6
1649.554632,14259.4
1652.735244,13532.8
1655.9117,13139.4
1659.084013,13475.2
1662.252193,14166.6
1665.416254,13234.6
1668.576205,13590.4
1671.732059,13806.8
1674.883828,13800.8
1678.031523,13262.6
1681.175157,13416.8
1684.314739,13394.8
1687.450284,13327.6
1690.581801,13306.6
1693.709304,12999.4
1696.832803,13022.2
1699.952311,13283.8
1703.067839,13291.6
1706.179399,13204.6
1709.287003,13663.8
1712.390663,13286
1715.49039,13193.4
1718.586197,13528.2
1721.678095,13418.8
1724.766096,13382.2
1727.850213,12804.6
1730.930456,13220.2
1734.006838,12991.8
1737.079372,13346.2
1740.148067,12875.2
1743.212938,13949.4
1746.273996,13193
1749.331252,13043
1752.384718,13081.8
1755.434408,13189
1758.480332,13123.8
1761.522503,13116.4
1764.560933,12835.8
1767.595634,12578.6
1770.626618,13193.4
1773.653896,13273
1776.677482,12963.4
1779.697388,12853
1782.713625,13372
1785.726205,13313.6
1788.735141,13284
1791.740445,12838.4
1794.742129,12618
1797.740206,13259.2
1800.734687,13244.8
1803.725585,12965.8
1806.712912,12990.6
1809.69668,12680.4
1812.676902,12805.4
1815.65359,12486.6
1818.626756,12548.4
1821.596413,12761.4
1824.562573,12370.6
1827.525247,12737
1830.48445,12507.8
1833.440192,12719.8
1836.392487,12542.4
1839.341347,12794.2
1842.286784,12882.2
1845.22881,12371.2
1848.167439,12980.6
1851.102682,12696.6
1854.034553,12746.6
1856.963063,12465.8
1859.888226,13320
1862.810053,12876.8
1865.728557,12707.6
1868.643751,12351.8
1871.555648,12433.6
1874.46426,12185
1877.369599,12779
1880.271679,12576.8
1883.170512,12499.8
1886.06611,12948.6
1888.958487,12584.4
1891.847655,12573.2
1894.733626,12737.4
1897.616414,12766.2
1900.496032,12357
1903.372491,12641.8
1906.245805,12964.2
1909.115987,12982.4
1911.983049,12877.6
1914.847004,12820.2
1917.707866,12811.2
1920.565646,12801.2
1923.420359,12348.4
1926.272016,12672.6
1929.120631,12419.8
1931.966216,12577
1934.808786,12461
1937.648351,12785.4
1940.484927,12689.8
1943.318525,12788.2
1946.149158,13007
1948.97684,14033.4
1951.801584,12964.4
1954.623403,12747.6
1957.44231,12884.8
1960.258318,12415.4
1963.071439,12291.8
1965.881688,12510.4
1968.689078,12770.6
1971.493621,12493.8
