Ramanshift[cm-1],Intensity
-93.47115107,13334
-87.69374369,12042.8
-81.9253076,11886.4
-76.16582701,11950.8
-70.41528615,11966.4
-64.67366933,11690.4
-58.94096086,11794.2
-53.21714512,11946
-47.50220652,12173
-41.79612954,12068.2
-36.09889866,12559.2
-30.41049843,12690.4
-24.73091343,12264.4
-19.0601283,12360.6
-13.39812769,12078
-7.744896327,11888.2
-2.100418946,11724.8
3.535319659,12269.8
9.162334658,11725
14.78064118,12022.6
20.39025432,11724
25.99118913,11809.4
31.58346061,12189.2
37.16708375,12065.2
42.74207347,11705.4
48.30844468,11777.2
53.86621222,11553
59.41539093,11389.6
64.95599558,11196.8
70.48804091,11681.8
76.01154164,11778
81.52651243,11161.8
87.03296792,11711.8
92.5309227,12019
98.02039134,11455
103.5013884,11611.8
108.9739282,11392.8
114.4380255,11493.8
119.8936944,11663.4
125.3409495,12527.6
130.779805,11391
136.2102753,11171
141.6323747,11193.8
147.0461174,11869.4
152.4515176,11425.4
157.8485895,11340.8
163.2373472,11225
168.6178049,11504.6
173.9899766,11801
179.3538764,11313.2
184.7095182,11439
190.0569161,11709.8
195.396084,11749.8
200.7270358,11240
206.0497854,11301.2
211.3643466,11132.2
216.6707333,11438
221.9689593,11051.4
227.2590382,11361.2
232.5409839,11254.4
237.8148101,11138.2
243.0805303,11238
248.3381582,11215
253.5877075,11120
258.8291917,11194.4
264.0626244,11409
269.288019,11496
274.5053891,11631.6
279.7147481,11278.6
284.9161094,11153.8
290.1094865,11553.6
295.2948927,12888.6
300.4723414,16012.2
305.6418459,19256.2
310.8034194,22394
315.9570752,24674.4
321.1028267,25163.8
326.2406869,25490.8
331.370669,25801.2
336.4927863,26025.4
341.6070517,26442
346.7134786,26684.4
351.8120798,26992.2
356.9028684,26518
361.9858576,26466.8
367.0610602,26832.4
372.1284892,26542.4
377.1881577,26971.4
382.2400784,27115.4
387.2842644,27380
392.3207284,28156.6
397.3494833,27485.2
402.370542,27401.8
407.3839172,26721.8
412.3896217,26083
417.3876683,25724.2
422.3780697,25721.8
427.3608386,25610.8
432.3359876,25930.2
437.3035295,25737
442.2634769,25810.2
447.2158423,24986.2
452.1606383,25056.6
457.0978776,25175.6
462.0275727,24634.2
466.9497361,25156.2
471.8643802,24505.6
476.7715176,24950
481.6711608,24969.8
486.5633221,25327
491.448014,25161.8
496.3252488,24979.6
501.195039,24947.8
506.0573969,25233.4
510.9123349,24854
515.7598651,24247.2
520.6,24728.4
525.4327518,24236
530.2581327,24358.4
535.076155,23779
539.8868309,24136.2
544.6901726,24107.8
549.4861922,23835
554.2749019,24683.2
559.0563139,23994
563.8304402,23670.2
568.597293,24649.6
573.3568844,24182.6
578.1092263,23778
582.8543308,24270.4
587.5922101,23988.8
592.322876,23653.6
597.0463405,23792.4
601.7626157,24089.2
606.4717135,23531.6
611.1736458,23538
615.8684246,23583.4
620.5560617,23899
625.2365691,23518.4
629.9099585,23878.4
634.5762419,24036.4
639.2354312,23488.8
643.887538,23515.6
648.5325743,23267.2
653.1705518,23188.2
657.8014823,23253.2
662.4253775,22556.8
667.0422493,22981.6
671.6521092,22938.6
676.2549691,23105.8
680.8508407,22929
685.4397355,22752.8
690.0216654,22848.2
694.5966419,22615.4
699.1646767,23084.8
703.7257814,22942
708.2799676,23029.2
712.827247,23064.8
717.367631,22777.4
721.9011314,22836.8
726.4277595,22132
730.9475271,22588
735.4604456,22505.4
739.9665264,22934.8
744.4657813,22307.8
748.9582215,22348.4
753.4438587,21753
757.9227042,21607.8
762.3947696,22012
766.8600662,21451.2
771.3186056,22779.2
775.770399,21686
780.215458,22010.6
784.6537939,21308.2
789.0854181,21184
793.510342,21169.4
797.9285769,21572.2
802.3401342,21164.6
806.7450253,21181.8
811.1432614,21177.4
815.5348538,20805
819.9198139,20534.4
824.2981531,20602.4
828.6698824,20804.2
833.0350133,20546.2
837.393557,20210.6
841.7455248,20510.8
846.0909278,20294.8
850.4297774,20290.2
854.7620848,20327
859.0878611,20577.4
863.4071176,19996.6
867.7198655,20453.4
872.026116,20751
876.3258802,21007.4
880.6191693,20631.4
884.9059946,20490.8
889.186367,21056
893.4602979,19816.2
897.7277982,19889.8
901.9888793,20150.8
906.2435521,20559
910.4918277,20049.4
914.7337174,19997.6
918.9692321,19884.8
923.1983831,20507
927.4211813,20152.4
931.6376378,20724
935.8477637,20216
940.0515701,20454.6
944.249068,20517.6
948.4402684,19592.4
952.6251825,20353.2
956.8038212,20079.6
960.9761955,20653.4
965.1423166,20158.6
969.3021953,20093.4
973.4558427,20199.4
977.6032699,19864.4
981.7444877,20008.8
985.8795072,19936
990.0083394,20027.2
994.1309953,19601.4
998.2474857,20059.8
1002.357822,19229.4
1006.462014,19928.8
1010.560075,19502.2
1014.652013,19835.8
1018.737841,20109.6
1022.81757,19714.4
1026.891209,19538.6
1030.958771,19390.8
1035.020266,19680.4
1039.075705,19363.4
1043.1251,19047.6
1047.16846,19239.6
1051.205797,19141.2
1055.237121,18896.6
1059.262444,18982.2
1063.281777,18906.4
1067.295131,19163.4
1071.302515,20542.8
1075.303942,20278.2
1079.299422,21303.8
1083.288966,20691.6
1087.272585,20057.2
1091.250289,19532
1095.222091,19478.8
1099.187999,18821.4
1103.148026,19000
1107.102183,18874
1111.050479,19052.2
1114.992927,18918
1118.929536,18814.4
1122.860318,19198.4
1126.785283,18629.6
1130.704443,18633.8
1134.617808,19567.4
1138.52539,19580
1142.427198,19568.4
1146.323244,19426.4
1150.213538,18896.8
1154.098093,19283.4
1157.976917,18700.4
1161.850023,18487.4
1165.717421,18932
1169.579121,18699.6
1173.435135,19102.4
1177.285474,18291.8
1181.130148,18435.2
1184.969169,18779.6
1188.802547,18740.6
1192.630292,18274.2
1196.452416,17990.2
1200.26893,18050.6
1204.079844,17777.8
1207.88517,17313
1211.684917,18014.6
1215.479098,17652
1219.267722,19102.8
1223.050801,17567.2
1226.828346,17692.4
1230.600366,17901.8
1234.366874,17786
1238.12788,17536
1241.883395,17530
1245.633429,17885
1249.377994,17917
1253.1171,17288
1256.850759,17581
1260.578981,17468.6
1264.301776,17534.2
1268.019157,17343
1271.731133,17155.2
1275.437715,17071.6
1279.138915,17584
1282.834743,17777
1286.52521,17423.4
1290.210328,17036.2
1293.890106,17181
1297.564555,17682.8
1301.233688,16946
1304.897514,17367
1308.556044,17411.2
1312.209289,17357
1315.857261,16917.6
1319.499969,16954.2
1323.137425,17615.2
1326.769641,17116.6
1330.396626,17813.4
1334.018391,17200.8
1337.634948,17334.4
1341.246307,17090.8
1344.85248,17140.4
1348.453477,16895.6
1352.049309,16840
1355.639987,16796.8
1359.225522,17504.8
1362.805925,16984.4
1366.381207,17081.6
1369.951379,17108
1373.516452,17134.6
1377.076436,17329.8
1380.631343,17084.8
1384.181184,16961.4
1387.725969,17164.8
1391.26571,16924.6
1394.800417,16677.8
1398.330102,16702.2
1401.854776,16918.8
1405.374448,16687.6
1408.889132,16268.4
1412.398837,15929
1415.903574,16259.4
1419.403355,16840.4
1422.89819,16516
1426.388091,16489.6
1429.873069,16948.4
1433.353134,16348.6
1436.828298,16409.4
1440.298571,16498.2
1443.763965,16068.4
1447.224491,15991.6
1450.68016,15963.4
1454.130983,16296.6
1457.576971,16148.4
1461.018135,16376.8
1464.454486,16364.6
1467.886036,15942.6
1471.312794,15909.4
1474.734774,15629.4
1478.151985,16241.6
1481.564439,16036.2
1484.972146,15921.2
1488.375119,15448.2
1491.773368,15829
1495.166904,16205.8
1498.555739,15607.8
1501.939883,15747.4
1505.319349,15345.8
1508.694146,15687.4
1512.064286,15652.6
1515.429781,15713.2
1518.790642,15487.4
1522.146879,15609.8
1525.498505,15230.6
1528.845529,15175.4
1532.187965,15775.8
1535.525822,15499.4
1538.859112,15504.8
1542.187846,15955.8
1545.512036,15098.8
1548.831693,16239.6
1552.146829,15849.2
1555.457453,15301.4
1558.763579,14842.4
1562.065216,15283
1565.362377,15597.8
1568.655073,15790.6
1571.943315,15544.4
1575.227114,15512.2
1578.506482,15510.8
1581.781431,16063
1585.051971,15560.4
1588.318114,15737
1591.579872,15464
1594.837255,15320.6
1598.090275,15079.6
1601.338945,14854.4
1604.583274,15228
1607.823275,14877.4
1611.058959,14494.8
1614.290338,15100.8
1617.517422,14225.6
1620.740224,14550.4
1623.958755,14310.2
1627.173027,14308.4
1630.38305,13948.8
1633.588838,14358.2
1636.7904,14136.6
1639.987749,14326.8
1643.180896,14331.4
1646.369853,13781.4
1649.554632,14558.6
1652.735244,13947.8
1655.9117,13516
1659.084013,13893.4
1662.252193,14507.8
1665.416254,13660
1668.576205,13809.4
1671.732059,14109
1674.883828,14178.2
1678.031523,13528.2
1681.175157,13742.6
1684.314739,13733.8
1687.450284,13614.4
1690.581801,13587
1693.709304,13304.4
1696.832803,13490.4
1699.952311,13587
1703.067839,13667.8
1706.179399,13579.2
1709.287003,13959.4
1712.390663,13516.8
1715.49039,13446.6
1718.586197,13780.2
1721.678095,13659
1724.766096,13663.6
1727.850213,13154.8
1730.930456,13483.2
1734.006838,13207.8
1737.079372,13488
1740.148067,13128.4
1743.212938,14187.6
1746.273996,13265.6
1749.331252,13238.8
1752.384718,13244.4
1755.434408,13271.6
1758.480332,13328.4
1761.522503,13276.6
1764.560933,13028.2
1767.595634,12809.8
1770.626618,13333
1773.653896,13391.8
1776.677482,12999.4
1779.697388,13027.2
1782.713625,13443.2
1785.726205,13376.8
1788.735141,13436.8
1791.740445,12974.2
1794.742129,12885.6
1797.740206,13350.6
1800.734687,13435
1803.725585,13336.2
1806.712912,13108.2
1809.69668,12933.4
1812.676902,12943.2
1815.65359,12589.2
1818.626756,12742.6
1821.596413,12907.6
1824.562573,12513.2
1827.525247,12919.8
1830.48445,12750.6
1833.440192,12865.6
1836.392487,12783.8
1839.341347,12945.6
1842.286784,12983.2
1845.22881,12439.2
1848.167439,13049.4
1851.102682,12820.4
1854.034553,12750.8
1856.963063,12528
1859.888226,13485.2
1862.810053,12906.4
1865.728557,12765.2
1868.643751,12493.6
1871.555648,12605.8
1874.46426,12229.4
1877.369599,12882.2
1880.271679,12684.6
1883.170512,12512
1886.06611,13089.8
1888.958487,12733.6
1891.847655,12627.4
1894.733626,12793.4
1897.616414,12873.2
1900.496032,12374.4
1903.372491,12659
1906.245805,12974.2
1909.115987,12999.6
1911.983049,12779
1914.847004,12785.2
1917.707866,12897.2
1920.565646,12858.6
1923.420359,12502.6
1926.272016,12713
1929.120631,12389.2
1931.966216,12597.8
1934.808786,12558
1937.648351,12801.6
1940.484927,12802.2
1943.318525,12807.4
1946.149158,12983
1948.97684,13976.6
1951.801584,12993.2
1954.623403,12676.4
1957.44231,12857.6
1960.258318,12406.8
1963.071439,12492.2
1965.881688,12625.4
1968.689078,12718
1971.493621,12396.2
