Ramanshift[cm-1],Intensity
-93.47115107,14081.8
-87.69374369,12791.6
-81.9253076,12644.6
-76.16582701,12733
-70.41528615,12816.2
-64.67366933,12489.6
-58.94096086,12525.2
-53.21714512,12806.6
-47.50220652,12961.2
-41.79612954,12994.4
-36.09889866,13321.6
-30.41049843,13392.8
-24.73091343,13069
-19.0601283,13060.8
-13.39812769,12867.6
-7.744896327,12646.6
-2.100418946,12477.4
3.535319659,13054
9.162334658,12511.4
14.78064118,12780.8
20.39025432,12468.6
25.99118913,12556
31.58346061,12990.4
37.16708375,12758.8
42.74207347,12383.2
48.30844468,12610.8
53.86621222,12420.8
59.41539093,12005.4
64.95599558,12020.8
70.48804091,12435.8
76.01154164,12461.2
81.52651243,11930.8
87.03296792,12480
92.5309227,12737.6
98.02039134,12088.2
103.5013884,12388.6
108.9739282,12149.8
114.4380255,12283.6
119.8936944,12435
125.3409495,13296.6
130.779805,12189.2
136.2102753,11875.2
141.6323747,11883
147.0461174,12581.6
152.4515176,12123.2
157.8485895,12097.6
163.2373472,11969.8
168.6178049,12213.8
173.9899766,12625.2
179.3538764,12128
184.7095182,12210
190.0569161,12379.4
195.396084,12561
200.7270358,11994.4
206.0497854,12024.4
211.3643466,11707.8
216.6707333,12234.2
221.9689593,11812.6
227.2590382,11948.6
232.5409839,12039.4
237.8148101,11925.2
243.0805303,12059.2
248.3381582,11954
253.5877075,11753.6
258.8291917,11912.4
264.0626244,12080.4
269.288019,12188.2
274.5053891,12397.2
279.7147481,12082.6
284.9161094,12142.8
290.1094865,13111.6
295.2948927,16308.6
300.4723414,23329.6
305.6418459,32825.2
310.8034194,41424.8
315.9570752,46451.8
321.1028267,47719
326.2406869,48160.4
331.370669,48811.6
336.4927863,49883.6
341.6070517,50897.6
346.7134786,51649.4
351.8120798,52294
356.9028684,52423.8
361.9858576,51967.6
367.0610602,52157.8
372.1284892,51653.6
377.1881577,51768.2
382.2400784,52409.6
387.2842644,53065.8
392.3207284,54120.4
397.3494833,53706.4
402.370542,52956.8
407.3839172,52182.4
412.3896217,50722.6
417.3876683,49878.2
422.3780697,49758.2
427.3608386,48901
432.3359876,49245.2
437.3035295,48844.2
442.2634769,48632.8
447.2158423,47408.4
452.1606383,47620.2
457.0978776,47508.2
462.0275727,46831.8
466.9497361,47182.6
471.8643802,46746.2
476.7715176,47392
481.6711608,47511.8
486.5633221,48052.4
491.448014,47567.6
496.3252488,47106.6
501.195039,47135.8
506.0573969,47097.6
510.9123349,46593.2
515.7598651,45671
520.6,46110.2
525.4327518,45518.6
530.2581327,45530.6
535.076155,44578
539.8868309,44686
544.6901726,44693.4
549.4861922,44108.8
554.2749019,44930
559.0563139,44066.4
563.8304402,43772.2
568.597293,44932
573.3568844,44406.2
578.1092263,44188.4
582.8543308,44501.6
587.5922101,44711
592.322876,44110.2
597.0463405,44520.2
601.7626157,44764.4
606.4717135,43954.4
611.1736458,43831.2
615.8684246,43878.8
620.5560617,44233.6
625.2365691,43908
629.9099585,43997.4
634.5762419,44096.4
639.2354312,43057.2
643.887538,42955
648.5325743,42859.8
653.1705518,42678
657.8014823,42817.2
662.4253775,42102
667.0422493,42450
671.6521092,42333.6
676.2549691,42433
680.8508407,42005.8
685.4397355,41733.2
690.0216654,42036.2
694.5966419,41767.2
699.1646767,42198.2
703.7257814,41681.6
708.2799676,41715.8
712.827247,41721.2
717.367631,41536
721.9011314,41516.4
726.4277595,40864.6
730.9475271,41231
735.4604456,40920
739.9665264,41069
744.4657813,40630.6
748.9582215,39981.6
753.4438587,39324
757.9227042,38748.4
762.3947696,39174.8
766.8600662,38534
771.3186056,39712.2
775.770399,38407.6
780.215458,38617
784.6537939,37685.8
789.0854181,37608.8
793.510342,37368.8
797.9285769,37734.8
802.3401342,36922.6
806.7450253,37088.4
811.1432614,36745.2
815.5348538,36509.6
819.9198139,36025.4
824.2981531,35947.4
828.6698824,36074
833.0350133,35494
837.393557,35062.2
841.7455248,35480.2
846.0909278,35037.4
850.4297774,35130.6
854.7620848,35208.4
859.0878611,35489.4
863.4071176,34632.4
867.7198655,35120.6
872.026116,35529.4
876.3258802,35685
880.6191693,35202.2
884.9059946,35179.4
889.186367,35530.8
893.4602979,34310.4
897.7277982,34075.6
901.9888793,34399.8
906.2435521,35033.8
910.4918277,34287.4
914.7337174,34404.8
918.9692321,34416
923.1983831,35046.6
927.4211813,34312.2
931.6376378,35006.2
935.8477637,34491
940.0515701,34799
944.249068,34748.4
948.4402684,33778.8
952.6251825,34613.6
956.8038212,34289.2
960.9761955,35115.6
965.1423166,34457
969.3021953,34737.4
973.4558427,34614.2
977.6032699,34205.2
981.7444877,34269.2
985.8795072,34049
990.0083394,34300.2
994.1309953,33843.8
998.2474857,34534.2
1002.357822,33511.8
1006.462014,34315.4
1010.560075,33844.6
1014.652013,34106.4
1018.737841,34267.4
1022.81757,33695
1026.891209,33572.2
1030.958771,33264.2
1035.020266,33556.6
1039.075705,33132.8
1043.1251,32814.2
1047.16846,33123.6
1051.205797,32867.6
1055.237121,32780.2
1059.262444,33033.6
1063.281777,33419.4
1067.295131,34206
1071.302515,36094.8
1075.303942,35938.4
1079.299422,36911
1083.288966,35741.2
1087.272585,34410
1091.250289,33617
1095.222091,33525.6
1099.187999,32723.2
1103.148026,32930.6
1107.102183,32896.2
1111.050479,32978.8
1114.992927,33021.4
1118.929536,33028.8
1122.860318,33368.8
1126.785283,33047.4
1130.704443,33259.8
1134.617808,34297
1138.52539,34431.6
1142.427198,34221.4
1146.323244,33791.8
1150.213538,33375
1154.098093,33720.4
1157.976917,33179
1161.850023,32916.8
1165.717421,33542
1169.579121,33182.4
1173.435135,33474.2
1177.285474,32721.6
1181.130148,32729.6
1184.969169,32931.2
1188.802547,32551.8
1192.630292,31957
1196.452416,31570.6
1200.26893,31543.2
1204.079844,31149
1207.88517,30661.8
1211.684917,31290
1215.479098,30920.6
1219.267722,32540.8
1223.050801,30801.6
1226.828346,31016
1230.600366,31287.6
1234.366874,31139.6
1238.12788,31042.8
1241.883395,30955.6
1245.633429,30955.6
1249.377994,31267.2
1253.1171,30501
1256.850759,30879.4
1260.578981,30881
1264.301776,30792.2
1268.019157,30897
1271.731133,30579.4
1275.437715,30496
1279.138915,30913.6
1282.834743,31292.4
1286.52521,30742
1290.210328,30400
1293.890106,30557.4
1297.564555,31098.6
1301.233688,30330.4
1304.897514,30605
1308.556044,30651.4
1312.209289,30885
1315.857261,30223
1319.499969,30481.6
1323.137425,31230
1326.769641,30615
1330.396626,31290.4
1334.018391,30649
1337.634948,30670.8
1341.246307,30489.8
1344.85248,30349.4
1348.453477,29965.4
1352.049309,29846
1355.639987,30004.6
1359.225522,30320.2
1362.805925,29594.2
1366.381207,29597.6
1369.951379,29687.6
1373.516452,29778.6
1377.076436,29803.8
1380.631343,29801.2
1384.181184,29520.4
1387.725969,29701.8
1391.26571,29352.4
1394.800417,29106.6
1398.330102,28896.2
1401.854776,29227.4
1405.374448,28642.4
1408.889132,28274
1412.398837,27774.8
1415.903574,28062.6
1419.403355,28963.6
1422.89819,28499.4
1426.388091,28419.6
1429.873069,28828.6
1433.353134,28325.6
1436.828298,28210.2
1440.298571,28168.8
1443.763965,27710
1447.224491,27278.8
1450.68016,27468.4
1454.130983,27566
1457.576971,27426.4
1461.018135,27507
1464.454486,27530.4
1467.886036,26737.6
1471.312794,26898
1474.734774,26395.6
1478.151985,27153.6
1481.564439,26846.4
1484.972146,26607
1488.375119,26011
1491.773368,26344.6
1495.166904,26825.4
1498.555739,25876.8
1501.939883,26202.4
1505.319349,25419.2
1508.694146,25891.6
1512.064286,25905.4
1515.429781,25889.6
1518.790642,25556.4
1522.146879,26184.8
1525.498505,25160
1528.845529,25232.8
1532.187965,25636
1535.525822,25364.8
1538.859112,25354.8
1542.187846,25989
1545.512036,25025.6
1548.831693,26432.2
1552.146829,25837.8
1555.457453,25162.4
1558.763579,24658.8
1562.065216,25320.6
1565.362377,25512.2
1568.655073,25898.6
1571.943315,25650.4
1575.227114,25481
1578.506482,25427.6
1581.781431,25885
1585.051971,25198.2
1588.318114,25350.2
1591.579872,24794.4
1594.837255,24035.6
1598.090275,23448.8
1601.338945,23428.4
1604.583274,23506.4
1607.823275,23194.6
1611.058959,22420
1614.290338,23032.8
1617.517422,21831.6
1620.740224,22140.8
1623.958755,21600.6
1627.173027,21441.2
1630.38305,20999.4
1633.588838,21259.6
1636.7904,20944.8
1639.987749,21089.8
1643.180896,21046.6
1646.369853,20175.6
1649.554632,20984.6
1652.735244,20292.2
1655.9117,19738.2
1659.084013,19840.4
1662.252193,20567.2
1665.416254,19518.4
1668.576205,19605.4
1671.732059,19866.4
1674.883828,19835.8
1678.031523,19176
1681.175157,19178.8
1684.314739,19173.6
1687.450284,18924.6
1690.581801,18794.8
1693.709304,18522.6
1696.832803,18515
1699.952311,18670.4
1703.067839,18615.2
1706.179399,18457.8
1709.287003,18982.4
1712.390663,18498.8
1715.49039,18320.2
1718.586197,18760.4
1721.678095,18396.4
1724.766096,18443.6
1727.850213,17933.6
1730.930456,18073.6
1734.006838,17777.6
1737.079372,18036.8
1740.148067,17612.6
1743.212938,18593.4
1746.273996,17756.2
1749.331252,17684.4
1752.384718,17644
1755.434408,17636.2
1758.480332,17611.4
1761.522503,17430.8
1764.560933,17289.8
1767.595634,16864.8
1770.626618,17499.2
1773.653896,17419
1776.677482,17048.4
1779.697388,17016.6
1782.713625,17558.2
1785.726205,17494.6
1788.735141,17438.8
1791.740445,16932
1794.742129,16701.4
1797.740206,17292.2
1800.734687,17265.6
1803.725585,17113.6
1806.712912,16989
1809.69668,16740
1812.676902,16904.2
1815.65359,16518.8
1818.626756,16575
1821.596413,16680.6
1824.562573,16408.2
1827.525247,16700
1830.48445,16444.8
1833.440192,16541.2
1836.392487,16562.8
1839.341347,16576.6
1842.286784,16580.8
1845.22881,16201
1848.167439,16727.2
1851.102682,16447
1854.034553,16398.2
1856.963063,16187
1859.888226,17075.4
1862.810053,16525.6
1865.728557,16268.6
1868.643751,16074
1871.555648,16081
1874.46426,15688.4
1877.369599,16476.8
1880.271679,16121.8
1883.170512,16034.8
1886.06611,16364.4
1888.958487,16153.2
1891.847655,16037.2
1894.733626,16144.4
1897.616414,16272.2
1900.496032,15706
1903.372491,16024
1906.245805,16234.6
1909.115987,16308.6
1911.983049,16082.6
1914.847004,16065.4
1917.707866,16182.2
1920.565646,16114.6
1923.420359,15659.6
1926.272016,15951.2
1929.120631,15636
1931.966216,15799.6
1934.808786,15626.2
1937.648351,15925.8
1940.484927,15835
1943.318525,15876.4
1946.149158,16098.6
1948.97684,17179.6
1951.801584,16039.4
1954.623403,15747.4
1957.44231,15897.6
1960.258318,15366.8
1963.071439,15426
1965.881688,15753.8
1968.689078,15746.4
1971.493621,15425.8
