Ramanshift[cm-1],Intensity
-93.47115107,14437.8
-87.69374369,12970.2
-81.9253076,12702.2
-76.16582701,12874.8
-70.41528615,12951.8
-64.67366933,12617.2
-58.94096086,12732
-53.21714512,12941.4
-47.50220652,13023.2
-41.79612954,13067.6
-36.09889866,13464.4
-30.41049843,13558.8
-24.73091343,13179.6
-19.0601283,13219.6
-13.39812769,13014.6
-7.744896327,12765.4
-2.100418946,12574
3.535319659,13246.2
9.162334658,12661.4
14.78064118,12958.2
20.39025432,12610.4
25.99118913,12620.2
31.58346061,13201.6
37.16708375,12924.8
42.74207347,12509.6
48.30844468,12677.6
53.86621222,12529.8
59.41539093,12144
64.95599558,12146.8
70.48804091,12537
76.01154164,12731
81.52651243,12059.6
87.03296792,12631
92.5309227,12987.8
98.02039134,12224.8
103.5013884,12565.6
108.9739282,12389.8
114.4380255,12338.8
119.8936944,12496.2
125.3409495,13492.6
130.779805,12301.2
136.2102753,12008.8
141.6323747,12079.8
147.0461174,12700.4
152.4515176,12217
157.8485895,12229.6
163.2373472,12136
168.6178049,12414.4
173.9899766,12781.4
179.3538764,12218.4
184.7095182,12359.2
190.0569161,12609.4
195.396084,12674.4
200.7270358,12131.2
206.0497854,12106
211.3643466,11919.2
216.6707333,12253.2
221.9689593,11910
227.2590382,12085
232.5409839,12041.4
237.8148101,11982
243.0805303,12032.4
248.3381582,12088
253.5877075,11931
258.8291917,12014.2
264.0626244,12070.6
269.288019,12336.2
274.5053891,12537.4
279.7147481,12240.6
284.9161094,11960.8
290.1094865,12534.8
295.2948927,13892
300.4723414,17406.6
305.6418459,21240.8
310.8034194,24570.4
315.9570752,27063.8
321.1028267,27670.4
326.2406869,27999.2
331.370669,28315.2
336.4927863,28768.4
341.6070517,29083.2
346.7134786,29178
351.8120798,29698.8
356.9028684,29362.2
361.9858576,29341.2
367.0610602,29655.2
372.1284892,29207.6
377.1881577,29746.4
382.2400784,29823.4
387.2842644,30466.6
392.3207284,31050.8
397.3494833,30487.2
402.370542,30193.8
407.3839172,29613.6
412.3896217,29098
417.3876683,28499.2
422.3780697,28650.8
427.3608386,28270.4
432.3359876,28791
437.3035295,28654.2
442.2634769,28670.2
447.2158423,27759.2
452.1606383,27789.2
457.0978776,27823
462.0275727,27403.6
466.9497361,27905.6
471.8643802,27316.8
476.7715176,27928.6
481.6711608,27820.6
486.5633221,28198.4
491.448014,27870.2
496.3252488,27706.4
501.195039,27706.8
506.0573969,27911.4
510.9123349,27634.4
515.7598651,27129.4
520.6,27572.8
525.4327518,27226.2
530.2581327,27321.8
535.076155,26680.6
539.8868309,26990.6
544.6901726,27003
549.4861922,26582.6
554.2749019,27583.2
559.0563139,26564
563.8304402,26424.2
568.597293,27575.6
573.3568844,27159.4
578.1092263,26442.2
582.8543308,27130.6
587.5922101,27030
592.322876,26648.4
597.0463405,26608.4
601.7626157,26972
606.4717135,26473.4
611.1736458,26406.8
615.8684246,26344.8
620.5560617,26599.4
625.2365691,26392.4
629.9099585,26788.6
634.5762419,26750
639.2354312,26022.4
643.887538,26282.4
648.5325743,26126.6
653.1705518,25914.2
657.8014823,26126.6
662.4253775,25483
667.0422493,25898.2
671.6521092,25834.8
676.2549691,25759.8
680.8508407,25632.6
685.4397355,25736.8
690.0216654,25771.2
694.5966419,25444.4
699.1646767,25968
703.7257814,25798.8
708.2799676,25692.8
712.827247,25834.2
717.367631,25555.2
721.9011314,25488.4
726.4277595,24714.8
730.9475271,25417.4
735.4604456,25115.4
739.9665264,25618.2
744.4657813,25165
748.9582215,25056
753.4438587,24498
757.9227042,24136.4
762.3947696,24685.6
766.8600662,23915
771.3186056,25461
775.770399,24221
780.215458,24586.4
784.6537939,23765.8
789.0854181,23705.8
793.510342,23620.8
797.9285769,24123
802.3401342,23382
806.7450253,23564.8
811.1432614,23407
815.5348538,23121.4
819.9198139,22768.8
824.2981531,22929.4
828.6698824,22894.8
833.0350133,22714.4
837.393557,22287.6
841.7455248,22711.2
846.0909278,22476.2
850.4297774,22596.4
854.7620848,22390
859.0878611,22667.2
863.4071176,21923.6
867.7198655,22572
872.026116,22820.2
876.3258802,23348.8
880.6191693,22800.8
884.9059946,22765.2
889.186367,23080
893.4602979,21866
897.7277982,21930.4
901.9888793,22332.8
906.2435521,22770
910.4918277,22080.6
914.7337174,22112.2
918.9692321,21993.2
923.1983831,22510
927.4211813,22144.4
931.6376378,22811.4
935.8477637,22367.2
940.0515701,22493.8
944.249068,22583.2
948.4402684,21603
952.6251825,22508
956.8038212,22143.8
960.9761955,22832.8
965.1423166,22265.8
969.3021953,22391.4
973.4558427,22302.4
977.6032699,22029
981.7444877,22013
985.8795072,22036.4
990.0083394,22113.2
994.1309953,21860
998.2474857,22155.6
1002.357822,21365.4
1006.462014,21760.8
1010.560075,21740.2
1014.652013,21901.4
1018.737841,22264.8
1022.81757,21804.8
1026.891209,21591.2
1030.958771,21441.6
1035.020266,21757
1039.075705,21565.4
1043.1251,21079.4
1047.16846,21487
1051.205797,21311
1055.237121,21027.8
1059.262444,20930.2
1063.281777,20760.2
1067.295131,21006.8
1071.302515,22354.4
1075.303942,22059.6
1079.299422,23177
1083.288966,22543.8
1087.272585,21936.4
1091.250289,21581.2
1095.222091,21454
1099.187999,20821
1103.148026,20985
1107.102183,20989
1111.050479,21097.2
1114.992927,21096
1118.929536,20885.2
1122.860318,21237.2
1126.785283,20618.8
1130.704443,20551
1134.617808,21456
1138.52539,21281.6
1142.427198,21175.8
1146.323244,21151
1150.213538,20862.6
1154.098093,21452.6
1157.976917,20572.2
1161.850023,20427.6
1165.717421,21130.8
1169.579121,20802.8
1173.435135,21213
1177.285474,20291.6
1181.130148,20649.2
1184.969169,20795.4
1188.802547,20762.4
1192.630292,20251.2
1196.452416,19835.2
1200.26893,19908.2
1204.079844,19775.2
1207.88517,19338
1211.684917,19819.6
1215.479098,19372.6
1219.267722,21144
1223.050801,19530.2
1226.828346,19508.8
1230.600366,19863
1234.366874,19720.4
1238.12788,19535
1241.883395,19612
1245.633429,19846.8
1249.377994,19802.4
1253.1171,19042.4
1256.850759,19527.8
1260.578981,19378.8
1264.301776,19472.6
1268.019157,19347.4
1271.731133,19189.8
1275.437715,19119.6
1279.138915,19653.2
1282.834743,19930.4
1286.52521,19134.6
1290.210328,19091.8
1293.890106,19379
1297.564555,19570.8
1301.233688,18940
1304.897514,19353.6
1308.556044,19334.6
1312.209289,19328.8
1315.857261,18930.2
1319.499969,18989.6
1323.137425,19775.6
1326.769641,19301.6
1330.396626,19843.4
1334.018391,19327.2
1337.634948,19280.2
1341.246307,19045
1344.85248,18959.2
1348.453477,18855.8
1352.049309,18852.4
1355.639987,18910.2
1359.225522,19475.4
1362.805925,18937.4
1366.381207,18878.6
1369.951379,19175.4
1373.516452,19154
1377.076436,19206.4
1380.631343,19082.2
1384.181184,18809.8
1387.725969,18908
1391.26571,18496
1394.800417,18537.8
1398.330102,18681.2
1401.854776,18782.2
1405.374448,18656.6
1408.889132,18202.4
1412.398837,17806.6
1415.903574,18166
1419.403355,18796.2
1422.89819,18315
1426.388091,18134
1429.873069,18740
1433.353134,18135
1436.828298,18152.4
1440.298571,18223.8
1443.763965,17966.2
1447.224491,17714.8
1450.68016,17769.4
1454.130983,18348.2
1457.576971,18062.2
1461.018135,18310
1464.454486,18257.2
1467.886036,17666.6
1471.312794,17718.2
1474.734774,17390.2
1478.151985,18108.8
1481.564439,17865.4
1484.972146,17673.4
1488.375119,17312.6
1491.773368,17694.8
1495.166904,18190.6
1498.555739,17497
1501.939883,17524.6
1505.319349,17091.8
1508.694146,17385.2
1512.064286,17373.8
1515.429781,17330.2
1518.790642,17167.6
1522.146879,17493.6
1525.498505,16898.4
1528.845529,16767.8
1532.187965,17427.8
1535.525822,17170.6
1538.859112,17274.2
1542.187846,17624.4
1545.512036,16679.6
1548.831693,18038
1552.146829,17539.4
1555.457453,16862
1558.763579,16336.4
1562.065216,16766.2
1565.362377,17110.6
1568.655073,17328.2
1571.943315,17192.2
1575.227114,16983
1578.506482,17052
1581.781431,17578.6
1585.051971,17183.6
1588.318114,17257.2
1591.579872,17154.4
1594.837255,16782.4
1598.090275,16679.6
1601.338945,16385.4
1604.583274,16792
1607.823275,16337.4
1611.058959,15862
1614.290338,16543.8
1617.517422,15699.4
1620.740224,15981.6
1623.958755,15647.4
1627.173027,15761.4
1630.38305,15286.2
1633.588838,15724
1636.7904,15461
1639.987749,15582.6
1643.180896,15845.4
1646.369853,15082
1649.554632,15938.6
1652.735244,15141
1655.9117,14882.4
1659.084013,15100.8
1662.252193,15807.4
1665.416254,14815
1668.576205,15183.2
1671.732059,15278
1674.883828,15422.8
1678.031523,14872.8
1681.175157,14921.6
1684.314739,14897.2
1687.450284,14954.6
1690.581801,14819.8
1693.709304,14574
1696.832803,14549.4
1699.952311,14831
1703.067839,14725.6
1706.179399,14757.4
1709.287003,15042.6
1712.390663,14785.2
1715.49039,14657
1718.586197,15061.4
1721.678095,14947.8
1724.766096,14909.2
1727.850213,14238
1730.930456,14639.2
1734.006838,14389
1737.079372,14774.4
1740.148067,14269.2
1743.212938,15341.2
1746.273996,14525.6
1749.331252,14441.2
1752.384718,14461.6
1755.434408,14522
1758.480332,14368.2
1761.522503,14386
1764.560933,14182.8
1767.595634,13850.6
1770.626618,14548.8
1773.653896,14600.8
1776.677482,14125
1779.697388,14137.8
1782.713625,14613.6
1785.726205,14560.2
1788.735141,14469.6
1791.740445,14045.2
1794.742129,13945.2
1797.740206,14545.2
1800.734687,14548.4
1803.725585,14270
1806.712912,14214
1809.69668,13978.6
1812.676902,13984.4
1815.65359,13678
1818.626756,13802.6
1821.596413,13960.6
1824.562573,13660.2
1827.525247,14015
1830.48445,13767.2
1833.440192,13925.2
1836.392487,13823.8
1839.341347,13977
1842.286784,13936.4
1845.22881,13512
1848.167439,14067.6
1851.102682,13787.4
1854.034553,13781
1856.963063,13559
1859.888226,14542
1862.810053,14002
1865.728557,13809.6
1868.643751,13439.6
1871.555648,13530.8
1874.46426,13157.4
1877.369599,13907.2
1880.271679,13654.4
1883.170512,13531.2
1886.06611,14065.2
1888.958487,13699.2
1891.847655,13715.6
1894.733626,13785
1897.616414,13818.8
1900.496032,13268.6
1903.372491,13664
1906.245805,14022.8
1909.115987,13981.2
1911.983049,13910.2
1914.847004,13792.4
1917.707866,13936.4
1920.565646,13856.6
1923.420359,13432
1926.272016,13671.2
1929.120631,13445.6
1931.966216,13529.2
1934.808786,13533.8
1937.648351,13801.4
1940.484927,13776.4
1943.318525,13765.4
1946.149158,14022.4
1948.97684,15038.4
1951.801584,13955.2
1954.623403,13802.8
1957.44231,13852.8
1960.258318,13334.8
1963.071439,13369.2
1965.881688,13582.4
1968.689078,13640.6
1971.493621,13443.8
