Ramanshift[cm-1],Intensity
-93.47115107,14067
-87.69374369,12715
-81.9253076,12580.4
-76.16582701,12634.8
-70.41528615,12686.2
-64.67366933,12443
-58.94096086,12510.6
-53.21714512,12657.2
-47.50220652,12795.4
-41.79612954,12778
-36.09889866,13292.8
-30.41049843,13354.6
-24.73091343,12856
-19.0601283,13040.6
-13.39812769,12696.8
-7.744896327,12482.4
-2.100418946,12326.2
3.535319659,13033.8
9.162334658,12420.6
14.78064118,12720
20.39025432,12325.2
25.99118913,12422.6
31.58346061,12804.4
37.16708375,12702.6
42.74207347,12363.4
48.30844468,12389.8
53.86621222,12283.2
59.41539093,12039.2
64.95599558,11891.4
70.48804091,12246
76.01154164,12448.2
81.52651243,11813.6
87.03296792,12326
92.5309227,12666
98.02039134,11911.8
103.5013884,12308.6
108.9739282,12075
114.4380255,12153.2
119.8936944,12328.6
125.3409495,13186.2
130.779805,12118.2
136.2102753,11754
141.6323747,11737.4
147.0461174,12554
152.4515176,11937.8
157.8485895,11989.8
163.2373472,11840.6
168.6178049,12155
173.9899766,12487.2
179.3538764,11907.4
184.7095182,12069.2
190.0569161,12380.8
195.396084,12525.8
200.7270358,11913.8
206.0497854,11972.8
211.3643466,11674.2
216.6707333,12071
221.9689593,11660.2
227.2590382,11854.4
232.5409839,11896.8
237.8148101,11715.4
243.0805303,11856.2
248.3381582,11819.8
253.5877075,11730.6
258.8291917,11944.2
264.0626244,11903
269.288019,12084.8
274.5053891,12177.2
279.7147481,11856.2
284.9161094,11661.4
290.1094865,11954.2
295.2948927,12574
300.4723414,14148.4
305.6418459,15339.6
310.8034194,16478
315.9570752,17808.6
321.1028267,18140
326.2406869,18179.4
331.370669,18319.8
336.4927863,18318.2
341.6070517,18601.4
346.7134786,18418.4
351.8120798,18883
356.9028684,18362.4
361.9858576,18477.4
367.0610602,18814.2
372.1284892,18628.6
377.1881577,19151
382.2400784,19261.6
387.2842644,19745.4
392.3207284,20257.8
397.3494833,19625.4
402.370542,19545.2
407.3839172,18891
412.3896217,18366.2
417.3876683,17900.6
422.3780697,17890.4
427.3608386,17972.4
432.3359876,18337.2
437.3035295,18453.8
442.2634769,18584.4
447.2158423,17726.4
452.1606383,17799.8
457.0978776,17891.2
462.0275727,17367.2
466.9497361,17881.2
471.8643802,17302.4
476.7715176,17787.8
481.6711608,17633.6
486.5633221,17976
491.448014,17687.6
496.3252488,17661.6
501.195039,17714.8
506.0573969,18084.8
510.9123349,17756
515.7598651,17321.4
520.6,17757
525.4327518,17742.6
530.2581327,17632.2
535.076155,17134.2
539.8868309,17438.6
544.6901726,17698.6
549.4861922,17357.2
554.2749019,18321.4
559.0563139,17246.4
563.8304402,17052
568.597293,18107.6
573.3568844,17702.6
578.1092263,17228.4
582.8543308,17679.6
587.5922101,17578.4
592.322876,17157.8
597.0463405,17324
601.7626157,17621.8
606.4717135,17200.6
611.1736458,17196.8
615.8684246,17204.8
620.5560617,17599.8
625.2365691,17225.2
629.9099585,17703.6
634.5762419,17990.8
639.2354312,17340.6
643.887538,17468.8
648.5325743,17286.2
653.1705518,17209
657.8014823,17396.8
662.4253775,16754
667.0422493,17042.2
671.6521092,16964
676.2549691,17154.4
680.8508407,17001
685.4397355,16976.4
690.0216654,17117.2
694.5966419,16910.6
699.1646767,17358.2
703.7257814,17192.8
708.2799676,17263.2
712.827247,17378.2
717.367631,17061
721.9011314,17017
726.4277595,16439.2
730.9475271,17111.6
735.4604456,16936.2
739.9665264,17437.6
744.4657813,16863
748.9582215,16975.8
753.4438587,16430
757.9227042,16292.8
762.3947696,16740.6
766.8600662,16423.6
771.3186056,17688.8
775.770399,16785.4
780.215458,17060
784.6537939,16247.8
789.0854181,16213.4
793.510342,16294
797.9285769,16913.4
802.3401342,16303.6
806.7450253,16645.8
811.1432614,16438
815.5348538,16336.4
819.9198139,16095
824.2981531,16290
828.6698824,16413.8
833.0350133,16193.6
837.393557,15923.8
841.7455248,16278.8
846.0909278,16138.8
850.4297774,16129.4
854.7620848,16057.8
859.0878611,16433.8
863.4071176,15709.4
867.7198655,16222.2
872.026116,16423.8
876.3258802,16937.2
880.6191693,16323.4
884.9059946,16340.6
889.186367,16895.6
893.4602979,15787.8
897.7277982,15712
901.9888793,16112
906.2435521,16448.4
910.4918277,15847.8
914.7337174,15770.2
918.9692321,15830
923.1983831,16329.2
927.4211813,15935.4
931.6376378,16718.8
935.8477637,16174.8
940.0515701,16395.4
944.249068,16347.2
948.4402684,15659.2
952.6251825,16436
956.8038212,15998.6
960.9761955,16671.2
965.1423166,16190.4
969.3021953,16167
973.4558427,16270.4
977.6032699,16016
981.7444877,16140.8
985.8795072,16010.6
990.0083394,16147.2
994.1309953,15706
998.2474857,16219.8
1002.357822,15284.2
1006.462014,15975.4
1010.560075,15679.2
1014.652013,16070.8
1018.737841,16297.6
1022.81757,15732.6
1026.891209,15713.8
1030.958771,15675.8
1035.020266,15949.4
1039.075705,15696.4
1043.1251,15481.4
1047.16846,15726.6
1051.205797,15588.6
1055.237121,15164.8
1059.262444,15227.2
1063.281777,15016.4
1067.295131,15236.4
1071.302515,16500.6
1075.303942,16330.2
1079.299422,17406.2
1083.288966,16756.4
1087.272585,16143.6
1091.250289,15843
1095.222091,15767.2
1099.187999,15408.4
1103.148026,15428.6
1107.102183,15382.4
1111.050479,15564.8
1114.992927,15429.6
1118.929536,15281.6
1122.860318,15693.4
1126.785283,15019
1130.704443,14877.6
1134.617808,15798.4
1138.52539,15652.6
1142.427198,15440.2
1146.323244,15610
1150.213538,15223.8
1154.098093,15654.4
1157.976917,15041
1161.850023,14944.2
1165.717421,15499.8
1169.579121,15234
1173.435135,15606.2
1177.285474,14828.6
1181.130148,15067.4
1184.969169,15319.6
1188.802547,15303
1192.630292,15009.8
1196.452416,14686.6
1200.26893,14652.8
1204.079844,14431.2
1207.88517,14023.2
1211.684917,14786.2
1215.479098,14395.2
1219.267722,15842.2
1223.050801,14397.6
1226.828346,14428.4
1230.600366,14739.4
1234.366874,14675
1238.12788,14434.6
1241.883395,14565
1245.633429,14865.6
1249.377994,14803.4
1253.1171,14062
1256.850759,14486.8
1260.578981,14382.2
1264.301776,14521.6
1268.019157,14277
1271.731133,14020
1275.437715,13975.8
1279.138915,14540.6
1282.834743,14734
1286.52521,14140.4
1290.210328,14031.2
1293.890106,14193.4
1297.564555,14738.8
1301.233688,14113.8
1304.897514,14299.2
1308.556044,14433.2
1312.209289,14511.2
1315.857261,13927.6
1319.499969,14116
1323.137425,14897.8
1326.769641,14318.4
1330.396626,14931.4
1334.018391,14345.2
1337.634948,14498.2
1341.246307,14158.6
1344.85248,14120.2
1348.453477,13996
1352.049309,13922
1355.639987,13924.8
1359.225522,14709.8
1362.805925,14178.2
1366.381207,14145
1369.951379,14248.8
1373.516452,14348.8
1377.076436,14510
1380.631343,14313.4
1384.181184,14062.4
1387.725969,14152.2
1391.26571,13822.2
1394.800417,13739.6
1398.330102,13943.8
1401.854776,14084.8
1405.374448,14050.4
1408.889132,13650
1412.398837,13262.8
1415.903574,13601.6
1419.403355,14156.4
1422.89819,13748.8
1426.388091,13651.4
1429.873069,14239.8
1433.353134,13631.4
1436.828298,13679.6
1440.298571,13873
1443.763965,13609.8
1447.224491,13463
1450.68016,13481.8
1454.130983,14089.4
1457.576971,14015.4
1461.018135,14039.2
1464.454486,14281
1467.886036,13675.8
1471.312794,13739
1474.734774,13403
1478.151985,14050.2
1481.564439,13827
1484.972146,13786.2
1488.375119,13316.8
1491.773368,13688.8
1495.166904,14344.8
1498.555739,13539.4
1501.939883,13647.2
1505.319349,13246.6
1508.694146,13603.4
1512.064286,13640.4
1515.429781,13497.6
1518.790642,13306
1522.146879,13710.8
1525.498505,13146.6
1528.845529,13070.2
1532.187965,13792
1535.525822,13387.4
1538.859112,13391.6
1542.187846,13987.2
1545.512036,13108.6
1548.831693,14528.4
1552.146829,13832.4
1555.457453,13310.2
1558.763579,12823.2
1562.065216,13279
1565.362377,13621.2
1568.655073,13967.8
1571.943315,13628.8
1575.227114,13577
1578.506482,13687.2
1581.781431,14146.2
1585.051971,13725.4
1588.318114,13818.2
1591.579872,13804.8
1594.837255,13553
1598.090275,13356
1601.338945,13271
1604.583274,13677.4
1607.823275,13289.6
1611.058959,12816
1614.290338,13650.4
1617.517422,12739.8
1620.740224,13154
1623.958755,12722.8
1627.173027,12954
1630.38305,12558.8
1633.588838,13039.8
1636.7904,12735.8
1639.987749,12890.2
1643.180896,13095
1646.369853,12492.8
1649.554632,13354.4
1652.735244,12741.6
1655.9117,12336.4
1659.084013,12745.2
1662.252193,13334.6
1665.416254,12467
1668.576205,12759.8
1671.732059,12972.6
1674.883828,13047.2
1678.031523,12575.6
1681.175157,12713.2
1684.314739,12697.2
1687.450284,12605.4
1690.581801,12619
1693.709304,12443.4
1696.832803,12347.2
1699.952311,12680.4
1703.067839,12562.4
1706.179399,12669.4
1709.287003,12992.8
1712.390663,12545.4
1715.49039,12703.4
1718.586197,13080.2
1721.678095,12810.8
1724.766096,12820.8
1727.850213,12246
1730.930456,12560.6
1734.006838,12443
1737.079372,12709.4
1740.148067,12352.4
1743.212938,13351
1746.273996,12521.2
1749.331252,12498
1752.384718,12616.6
1755.434408,12520.2
1758.480332,12592.4
1761.522503,12684.4
1764.560933,12369.4
1767.595634,12083.8
1770.626618,12735.2
1773.653896,12818.4
1776.677482,12419.4
1779.697388,12332.6
1782.713625,12893.6
1785.726205,12827.4
1788.735141,12799.4
1791.740445,12335.4
1794.742129,12293.6
1797.740206,12748
1800.734687,12796.2
1803.725585,12589.8
1806.712912,12601.2
1809.69668,12319.8
1812.676902,12269.4
1815.65359,12086
1818.626756,12128.8
1821.596413,12296
1824.562573,11949.2
1827.525247,12340.6
1830.48445,12136.8
1833.440192,12338.6
1836.392487,12174.4
1839.341347,12392.8
1842.286784,12341.8
1845.22881,11867.8
1848.167439,12527.2
1851.102682,12221.4
1854.034553,12240.2
1856.963063,12117
1859.888226,12959.6
1862.810053,12397.2
1865.728557,12171.8
1868.643751,11913.6
1871.555648,11996.2
1874.46426,11781.8
1877.369599,12347.2
1880.271679,12163.2
1883.170512,12027
1886.06611,12513
1888.958487,12218.2
1891.847655,12140.6
1894.733626,12299.4
1897.616414,12414.8
1900.496032,11916.8
1903.372491,12307.4
1906.245805,12528.2
1909.115987,12458.2
1911.983049,12449
1914.847004,12381.4
1917.707866,12504.4
1920.565646,12441.2
1923.420359,12100.6
1926.272016,12353.8
1929.120631,12040.8
1931.966216,12192.8
1934.808786,12170.8
1937.648351,12448.4
1940.484927,12341
1943.318525,12487.2
1946.149158,12656
1948.97684,13726.6
1951.801584,12694.2
1954.623403,12460.2
1957.44231,12528.8
1960.258318,12025.4
1963.071439,12048.6
1965.881688,12282.4
1968.689078,12429.8
1971.493621,12224.4
