Ramanshift[cm-1],Intensity
-93.47115107,13871
-87.69374369,12699.2
-81.9253076,12471.8
-76.16582701,12487.4
-70.41528615,12461.2
-64.67366933,12274.4
-58.94096086,12227.6
-53.21714512,12496
-47.50220652,12702
-41.79612954,12547.8
-36.09889866,12980.2
-30.41049843,13162.4
-24.73091343,12755.2
-19.0601283,12811
-13.39812769,12626.2
-7.744896327,12372
-2.100418946,12147.4
3.535319659,12908.4
9.162334658,12234.6
14.78064118,12548
20.39025432,12196
25.99118913,12266.2
31.58346061,12676.8
37.16708375,12582.8
42.74207347,12218.8
48.30844468,12301
53.86621222,12108.8
59.41539093,11744.8
64.95599558,11761.4
70.48804091,12189.8
76.01154164,12282.8
81.52651243,11686.6
87.03296792,12130.6
92.5309227,12486.4
98.02039134,11813.8
103.5013884,12230.4
108.9739282,11962
114.4380255,11881.8
119.8936944,12160.4
125.3409495,13149.6
130.779805,11879.6
136.2102753,11653.2
141.6323747,11724.2
147.0461174,12335.6
152.4515176,11871.8
157.8485895,11829.4
163.2373472,11723.8
168.6178049,12012
173.9899766,12365.8
179.3538764,11922.8
184.7095182,11968
190.0569161,12144.8
195.396084,12369.2
200.7270358,11709.6
206.0497854,11786
211.3643466,11592.4
216.6707333,11940.6
221.9689593,11518.4
227.2590382,11749.8
232.5409839,11728.4
237.8148101,11624.4
243.0805303,11770.6
248.3381582,11770.4
253.5877075,11580.6
258.8291917,11758.2
264.0626244,11875.4
269.288019,12061.4
274.5053891,12127
279.7147481,11977
284.9161094,11997.4
290.1094865,13221.8
295.2948927,16908.4
300.4723414,25488.8
305.6418459,36559.2
310.8034194,45906.4
315.9570752,51075.2
321.1028267,52379.4
326.2406869,53230.2
331.370669,54053
336.4927863,55404.8
341.6070517,56205.2
346.7134786,57360
351.8120798,58003.2
356.9028684,57706
361.9858576,57392.4
367.0610602,57666.2
372.1284892,57121
377.1881577,57015.2
382.2400784,56807.6
387.2842644,56795.6
392.3207284,57273.2
397.3494833,56927.8
402.370542,57302.8
407.3839172,56861.2
412.3896217,55936.4
417.3876683,55903.8
422.3780697,55903.8
427.3608386,55176.2
432.3359876,55510
437.3035295,54997.4
442.2634769,55022.8
447.2158423,53987
452.1606383,54069
457.0978776,54116.2
462.0275727,53155.2
466.9497361,53674
471.8643802,53113.6
476.7715176,53796.8
481.6711608,53845.4
486.5633221,54477.2
491.448014,54077
496.3252488,53744.8
501.195039,53598
506.0573969,53917.2
510.9123349,53165.8
515.7598651,52453.4
520.6,52813
525.4327518,52184.4
530.2581327,52295.8
535.076155,51653.2
539.8868309,51745
544.6901726,51371.2
549.4861922,50999
554.2749019,51727.6
559.0563139,51097.4
563.8304402,50881.4
568.597293,51580.4
573.3568844,51351
578.1092263,50874.6
582.8543308,51051.8
587.5922101,51414.6
592.322876,50787.4
597.0463405,50984
601.7626157,51094.8
606.4717135,50470.4
611.1736458,50472.2
615.8684246,50278
620.5560617,50501.4
625.2365691,50006
629.9099585,50322.8
634.5762419,50011
639.2354312,49269.4
643.887538,49006.4
648.5325743,48869.6
653.1705518,48896
657.8014823,48571.8
662.4253775,48071.2
667.0422493,48310.2
671.6521092,48288.4
676.2549691,48260.8
680.8508407,48359.2
685.4397355,47975.2
690.0216654,48096.8
694.5966419,48072.6
699.1646767,48322
703.7257814,48098.4
708.2799676,47929.2
712.827247,48240.6
717.367631,47688
721.9011314,47962.6
726.4277595,47133.2
730.9475271,47396.8
735.4604456,47117
739.9665264,47440.6
744.4657813,46978.8
748.9582215,46429
753.4438587,45779.4
757.9227042,45151.4
762.3947696,45588
766.8600662,44655.2
771.3186056,46158.2
775.770399,44819.8
780.215458,44912.4
784.6537939,44065.2
789.0854181,43905.8
793.510342,43641
797.9285769,43890.8
802.3401342,43242.6
806.7450253,43183
811.1432614,42871.6
815.5348538,42590.4
819.9198139,41957
824.2981531,42130
828.6698824,41790.2
833.0350133,41407.4
837.393557,41032.6
841.7455248,41499
846.0909278,41039.6
850.4297774,41263.2
854.7620848,41298.8
859.0878611,41512.8
863.4071176,40991.8
867.7198655,41385.6
872.026116,41802
876.3258802,41902.4
880.6191693,41239.4
884.9059946,41245.4
889.186367,41367.2
893.4602979,40015.4
897.7277982,39902.8
901.9888793,40554.6
906.2435521,41024
910.4918277,40463.8
914.7337174,40382
918.9692321,40141.8
923.1983831,41039.8
927.4211813,40300.4
931.6376378,41078.4
935.8477637,40571.8
940.0515701,40661.4
944.249068,40794
948.4402684,39718.8
952.6251825,40576.8
956.8038212,40233.4
960.9761955,40800.6
965.1423166,40271
969.3021953,40395.2
973.4558427,40264.2
977.6032699,40233.4
981.7444877,40233.4
985.8795072,40101.6
990.0083394,40028.8
994.1309953,39708.2
998.2474857,40251.6
1002.357822,39042
1006.462014,39764.8
1010.560075,39407.4
1014.652013,39555.8
1018.737841,39845.6
1022.81757,39199.4
1026.891209,39183
1030.958771,38923
1035.020266,38977.6
1039.075705,38696.8
1043.1251,38278.2
1047.16846,38438
1051.205797,38431.2
1055.237121,38318.8
1059.262444,38527.4
1063.281777,38260.2
1067.295131,38855.2
1071.302515,40389.6
1075.303942,39635.4
1079.299422,40379.4
1083.288966,39650.6
1087.272585,38854
1091.250289,38426.8
1095.222091,38617.6
1099.187999,37854
1103.148026,38018
1107.102183,38118.2
1111.050479,38067.8
1114.992927,38099.2
1118.929536,38125.8
1122.860318,38541.8
1126.785283,38267.8
1130.704443,38587.4
1134.617808,39545.6
1138.52539,39867
1142.427198,39543.8
1146.323244,39074.2
1150.213538,38122.4
1154.098093,38422
1157.976917,37444
1161.850023,37197.4
1165.717421,37705
1169.579121,37240.2
1173.435135,37702.6
1177.285474,36541.2
1181.130148,36587.8
1184.969169,37090.2
1188.802547,36818.2
1192.630292,36215.8
1196.452416,36081.8
1200.26893,36027.8
1204.079844,35731
1207.88517,34990.8
1211.684917,35578.8
1215.479098,34993.4
1219.267722,36742
1223.050801,35033
1226.828346,34983.4
1230.600366,35276.6
1234.366874,35145.6
1238.12788,34859.4
1241.883395,34889
1245.633429,34872.2
1249.377994,35151.6
1253.1171,34374.6
1256.850759,34725.6
1260.578981,34583
1264.301776,34467.8
1268.019157,34361.2
1271.731133,34153.4
1275.437715,34030.4
1279.138915,34327.6
1282.834743,34815.6
1286.52521,34111.6
1290.210328,33892.8
1293.890106,33877.4
1297.564555,34410
1301.233688,33808
1304.897514,33972
1308.556044,34277
1312.209289,34165.8
1315.857261,33468.4
1319.499969,33390.8
1323.137425,33991.2
1326.769641,33421.4
1330.396626,34039.6
1334.018391,33718
1337.634948,33614
1341.246307,33360.6
1344.85248,33232.6
1348.453477,33052.4
1352.049309,32764
1355.639987,32941.2
1359.225522,33495
1362.805925,32779.4
1366.381207,32752.6
1369.951379,32881.6
1373.516452,33091.4
1377.076436,33080
1380.631343,33065.4
1384.181184,32994.6
1387.725969,33003.4
1391.26571,32727.4
1394.800417,32221.8
1398.330102,32123
1401.854776,32081
1405.374448,31631
1408.889132,31158.2
1412.398837,30974.2
1415.903574,31216.6
1419.403355,32090.2
1422.89819,31778.2
1426.388091,31837.4
1429.873069,32249.8
1433.353134,31492
1436.828298,31339
1440.298571,30961
1443.763965,30822.6
1447.224491,30285
1450.68016,30139.6
1454.130983,30370.6
1457.576971,30218.2
1461.018135,30236.4
1464.454486,30284.8
1467.886036,29637.8
1471.312794,29840
1474.734774,29172.6
1478.151985,29832
1481.564439,29446
1484.972146,29021.8
1488.375119,28508
1491.773368,28935.6
1495.166904,29364.2
1498.555739,28600
1501.939883,28793.6
1505.319349,28167.4
1508.694146,28447
1512.064286,28410.2
1515.429781,28397.8
1518.790642,28109.2
1522.146879,28289.2
1525.498505,27899.4
1528.845529,27618.2
1532.187965,28150
1535.525822,27918
1538.859112,27833.8
1542.187846,28378
1545.512036,27340.6
1548.831693,28618.2
1552.146829,27994
1555.457453,27439.2
1558.763579,26821
1562.065216,27367.4
1565.362377,27569
1568.655073,27686.4
1571.943315,27298
1575.227114,27211.4
1578.506482,27080.2
1581.781431,27434.4
1585.051971,26839.6
1588.318114,26841
1591.579872,26251.8
1594.837255,26190.2
1598.090275,25583.8
1601.338945,25511.6
1604.583274,25637.8
1607.823275,25220.6
1611.058959,24627.4
1614.290338,25346.6
1617.517422,24039.6
1620.740224,24510.6
1623.958755,23916.2
1627.173027,23822
1630.38305,23289.8
1633.588838,23625.2
1636.7904,23303.4
1639.987749,23533.8
1643.180896,23354.4
1646.369853,22730.6
1649.554632,23333.2
1652.735244,22867.6
1655.9117,22150.4
1659.084013,22532.2
1662.252193,22955
1665.416254,22174.4
1668.576205,22274.6
1671.732059,22555.6
1674.883828,22540.2
1678.031523,21865.8
1681.175157,21840
1684.314739,21941
1687.450284,21729.6
1690.581801,21551.4
1693.709304,21317.6
1696.832803,21443.6
1699.952311,21487.4
1703.067839,21591.6
1706.179399,21411.6
1709.287003,21765.8
1712.390663,21291
1715.49039,21211
1718.586197,21537
1721.678095,21218.4
1724.766096,21360
1727.850213,20729
1730.930456,20901.2
1734.006838,20617
1737.079372,20842.6
1740.148067,20379.2
1743.212938,21419
1746.273996,20420.8
1749.331252,20372
1752.384718,20324.4
1755.434408,20287.6
1758.480332,20248.2
1761.522503,20039.2
1764.560933,19948.4
1767.595634,19628.6
1770.626618,20122.6
1773.653896,19974.6
1776.677482,19547.4
1779.697388,19496.4
1782.713625,20185.2
1785.726205,20009.2
1788.735141,19955
1791.740445,19453.2
1794.742129,19337.4
1797.740206,19815.6
1800.734687,19852.4
1803.725585,19734.6
1806.712912,19455.4
1809.69668,19269.4
1812.676902,19314
1815.65359,19076.2
1818.626756,19042.4
1821.596413,19195.6
1824.562573,18791.4
1827.525247,19174.4
1830.48445,18929
1833.440192,19046.8
1836.392487,18863.4
1839.341347,19027.4
1842.286784,19141.2
1845.22881,18390
1848.167439,19229.2
1851.102682,18796
1854.034553,18790.4
1856.963063,18525.4
1859.888226,19389.2
1862.810053,18846
1865.728557,18594.6
1868.643751,18349.4
1871.555648,18397.6
1874.46426,18062.4
1877.369599,18654.6
1880.271679,18498.4
1883.170512,18305
1886.06611,18645.8
1888.958487,18414.2
1891.847655,18237.4
1894.733626,18419
1897.616414,18521.2
1900.496032,17941.2
1903.372491,18216
1906.245805,18518
1909.115987,18494.2
1911.983049,18390.4
1914.847004,18243
1917.707866,18239.6
1920.565646,18352.8
1923.420359,17669.6
1926.272016,17925.4
1929.120631,17801.8
1931.966216,17966.8
1934.808786,17814
1937.648351,18072.6
1940.484927,17924
1943.318525,18020
1946.149158,18237.4
1948.97684,19266.2
1951.801584,18108.8
1954.623403,17775.6
1957.44231,17991
1960.258318,17491.8
1963.071439,17419
1965.881688,17514.2
1968.689078,17689.2
1971.493621,17382.2
