Ramanshift[cm-1],Intensity
-93.47115107,13847
-87.69374369,12522.6
-81.9253076,12283.4
-76.16582701,12488.2
-70.41528615,12545.2
-64.67366933,12270.2
-58.94096086,12232.8
-53.21714512,12466.6
-47.50220652,12541.4
-41.79612954,12519.8
-36.09889866,13069.8
-30.41049843,13121.2
-24.73091343,12759.8
-19.0601283,12711.8
-13.39812769,12501
-7.744896327,12277.6
-2.100418946,12186.8
3.535319659,12786.2
9.162334658,12233.8
14.78064118,12487.2
20.39025432,12174.2
25.99118913,12119.6
31.58346061,12669
37.16708375,12475.6
42.74207347,12115.4
48.30844468,12151.2
53.86621222,12004.2
59.41539093,11757.8
64.95599558,11705.6
70.48804091,12138.4
76.01154164,12214
81.52651243,11549.6
87.03296792,12194.8
92.5309227,12435.6
98.02039134,11782
103.5013884,12032
108.9739282,11837.2
114.4380255,11978.6
119.8936944,12135
125.3409495,12954.4
130.779805,11888
136.2102753,11662.2
141.6323747,11694.6
147.0461174,12283.6
152.4515176,11795.2
157.8485895,11826.2
163.2373472,11674.8
168.6178049,11979.4
173.9899766,12334.6
179.3538764,11827.6
184.7095182,11872.4
190.0569161,12136.6
195.396084,12252.4
200.7270358,11662.2
206.0497854,11718.6
211.3643466,11609
216.6707333,11842
221.9689593,11438.8
227.2590382,11681.8
232.5409839,11567.8
237.8148101,11523.6
243.0805303,11672.4
248.3381582,11629
253.5877075,11575
258.8291917,11682.6
264.0626244,11625.6
269.288019,11935.4
274.5053891,11955.2
279.7147481,11766
284.9161094,11538.2
290.1094865,11846.4
295.2948927,12681
300.4723414,14907.4
305.6418459,16697.6
310.8034194,18590.8
315.9570752,20338.8
321.1028267,20687.2
326.2406869,20975.6
331.370669,21011.6
336.4927863,21253.8
341.6070517,21419.2
346.7134786,21461.8
351.8120798,21866.2
356.9028684,21527.2
361.9858576,21628.2
367.0610602,21870.2
372.1284892,21600.2
377.1881577,22071
382.2400784,22374.2
387.2842644,22916.2
392.3207284,23482
397.3494833,23025.6
402.370542,22920
407.3839172,22086.8
412.3896217,21543
417.3876683,20904
422.3780697,21022.4
427.3608386,20873
432.3359876,21187.4
437.3035295,21275.2
442.2634769,21339.6
447.2158423,20424.4
452.1606383,20398
457.0978776,20672.4
462.0275727,20183.4
466.9497361,20574.8
471.8643802,19852.2
476.7715176,20594.4
481.6711608,20579.4
486.5633221,20811.6
491.448014,20494.4
496.3252488,20513.2
501.195039,20483
506.0573969,20898.6
510.9123349,20410.6
515.7598651,19840
520.6,20182.4
525.4327518,20120.8
530.2581327,20237.6
535.076155,19671.4
539.8868309,20043.2
544.6901726,20188.8
549.4861922,19877
554.2749019,20695.4
559.0563139,19718.8
563.8304402,19521.4
568.597293,20564
573.3568844,20153.6
578.1092263,19706.6
582.8543308,20154.8
587.5922101,20035.4
592.322876,19718.8
597.0463405,19798
601.7626157,20221.8
606.4717135,19677.6
611.1736458,19625.2
615.8684246,19588.2
620.5560617,19862
625.2365691,19749
629.9099585,20006.8
634.5762419,20251
639.2354312,19609.8
643.887538,19754
648.5325743,19548
653.1705518,19343.8
657.8014823,19557.8
662.4253775,18893.4
667.0422493,19365
671.6521092,19166
676.2549691,19456
680.8508407,19432.8
685.4397355,19232.2
690.0216654,19366.2
694.5966419,19064.6
699.1646767,19563.4
703.7257814,19373.6
708.2799676,19414.4
712.827247,19495.2
717.367631,19313.6
721.9011314,19151.2
726.4277595,18513
730.9475271,19230.6
735.4604456,18953
739.9665264,19466.2
744.4657813,18956
748.9582215,18863.8
753.4438587,18406.2
757.9227042,18238.2
762.3947696,18752.6
766.8600662,18205.8
771.3186056,19625.2
775.770399,18515
780.215458,18893.8
784.6537939,18308.2
789.0854181,18055.8
793.510342,18133.8
797.9285769,18723.6
802.3401342,18128.4
806.7450253,18362.6
811.1432614,18027.8
815.5348538,17938.2
819.9198139,17706.4
824.2981531,17852.2
828.6698824,17975.8
833.0350133,17884.8
837.393557,17585.4
841.7455248,17845.8
846.0909278,17504.6
850.4297774,17662.8
854.7620848,17593
859.0878611,17783
863.4071176,17247.4
867.7198655,17808.6
872.026116,18027.4
876.3258802,18422.2
880.6191693,17904.4
884.9059946,17994.4
889.186367,18322.4
893.4602979,17257.6
897.7277982,17204.8
901.9888793,17605.8
906.2435521,17854.8
910.4918277,17404.4
914.7337174,17385.4
918.9692321,17247.2
923.1983831,17982
927.4211813,17571.4
931.6376378,18044.4
935.8477637,17571.8
940.0515701,17845.6
944.249068,17826
948.4402684,17015
952.6251825,17859.2
956.8038212,17448.6
960.9761955,18138
965.1423166,17587.2
969.3021953,17530.8
973.4558427,17627.8
977.6032699,17354.2
981.7444877,17381.6
985.8795072,17295.2
990.0083394,17552.2
994.1309953,17067.6
998.2474857,17421.2
1002.357822,16727.4
1006.462014,17419.6
1010.560075,17128.2
1014.652013,17434.6
1018.737841,17691.4
1022.81757,17137.6
1026.891209,17059.4
1030.958771,16908
1035.020266,17185.2
1039.075705,16971.6
1043.1251,16593.8
1047.16846,16912.6
1051.205797,16847.4
1055.237121,16713
1059.262444,16809.8
1063.281777,16707.4
1067.295131,17093.2
1071.302515,18647.8
1075.303942,18317.6
1079.299422,19307.8
1083.288966,18459
1087.272585,17758.6
1091.250289,17290.4
1095.222091,17048.8
1099.187999,16673
1103.148026,16744.8
1107.102183,16572.6
1111.050479,16837
1114.992927,16657.2
1118.929536,16502
1122.860318,17082.8
1126.785283,16603.6
1130.704443,16780.8
1134.617808,17812
1138.52539,17828.8
1142.427198,17752.8
1146.323244,17518.8
1150.213538,16910.4
1154.098093,17297.2
1157.976917,16454.2
1161.850023,16332.2
1165.717421,16770
1169.579121,16345.4
1173.435135,16902.8
1177.285474,16100.6
1181.130148,16301
1184.969169,16659.2
1188.802547,16522.8
1192.630292,16232.2
1196.452416,15793
1200.26893,15929.8
1204.079844,15552.8
1207.88517,15233.6
1211.684917,15842.8
1215.479098,15427
1219.267722,16978.8
1223.050801,15454.6
1226.828346,15514.4
1230.600366,15812.6
1234.366874,15637.4
1238.12788,15477.4
1241.883395,15611.6
1245.633429,15974
1249.377994,15949.6
1253.1171,15035
1256.850759,15466.2
1260.578981,15398.4
1264.301776,15543
1268.019157,15404
1271.731133,15121.2
1275.437715,14916.4
1279.138915,15653.4
1282.834743,15785.4
1286.52521,15245.4
1290.210328,15011.6
1293.890106,15328.8
1297.564555,15770.8
1301.233688,15198.6
1304.897514,15498.4
1308.556044,15582.6
1312.209289,15493
1315.857261,14948.4
1319.499969,15105.4
1323.137425,15904
1326.769641,15245
1330.396626,15965.8
1334.018391,15387.4
1337.634948,15482.8
1341.246307,15171.6
1344.85248,15072
1348.453477,14871.4
1352.049309,14937.2
1355.639987,15019.4
1359.225522,15552.4
1362.805925,15122
1366.381207,15196.4
1369.951379,15256.2
1373.516452,15353.8
1377.076436,15578
1380.631343,15455.4
1384.181184,15299.2
1387.725969,15540.6
1391.26571,15271
1394.800417,15144
1398.330102,15116
1401.854776,15204.4
1405.374448,14937.8
1408.889132,14529.4
1412.398837,14227.2
1415.903574,14640.6
1419.403355,15371
1422.89819,15005.8
1426.388091,15141.8
1429.873069,15696
1433.353134,15063
1436.828298,15042.4
1440.298571,15034.4
1443.763965,14645
1447.224491,14432.6
1450.68016,14491.4
1454.130983,14911.6
1457.576971,14797.2
1461.018135,14756.2
1464.454486,14978
1467.886036,14450
1471.312794,14477.6
1474.734774,14183.6
1478.151985,14859.6
1481.564439,14527.8
1484.972146,14437.2
1488.375119,13917.8
1491.773368,14347
1495.166904,14895.6
1498.555739,14282.6
1501.939883,14414.6
1505.319349,13832
1508.694146,14131.4
1512.064286,14339.8
1515.429781,14195
1518.790642,14052.6
1522.146879,14176.8
1525.498505,13825.4
1528.845529,13736.8
1532.187965,14456
1535.525822,14130.6
1538.859112,14155.8
1542.187846,14755.6
1545.512036,13822.6
1548.831693,15060
1552.146829,14580
1555.457453,13967.2
1558.763579,13628.4
1562.065216,14087
1565.362377,14318.8
1568.655073,14694.8
1571.943315,14448.2
1575.227114,14430.4
1578.506482,14395
1581.781431,14923.4
1585.051971,14537.4
1588.318114,14630.2
1591.579872,14487.4
1594.837255,14112.8
1598.090275,13974.2
1601.338945,13874.4
1604.583274,14192.4
1607.823275,13889.8
1611.058959,13401.4
1614.290338,14199
1617.517422,13268
1620.740224,13671.6
1623.958755,13380.8
1627.173027,13425
1630.38305,13023.6
1633.588838,13560.4
1636.7904,13202.4
1639.987749,13453.6
1643.180896,13545
1646.369853,13042.8
1649.554632,13784.6
1652.735244,13086.6
1655.9117,12873
1659.084013,13185.4
1662.252193,13749.8
1665.416254,12946.4
1668.576205,13139
1671.732059,13493.8
1674.883828,13426.8
1678.031523,12950
1681.175157,13080.2
1684.314739,13097.4
1687.450284,13000.8
1690.581801,12952.6
1693.709304,12744
1696.832803,12769.2
1699.952311,12944.2
1703.067839,12988.8
1706.179399,12983.2
1709.287003,13300
1712.390663,12871.4
1715.49039,12993.2
1718.586197,13179.4
1721.678095,13006
1724.766096,13092.2
1727.850213,12505
1730.930456,12852.8
1734.006838,12642.4
1737.079372,12927.2
1740.148067,12639
1743.212938,13630.8
1746.273996,12801
1749.331252,12746.2
1752.384718,12778.6
1755.434408,12872.4
1758.480332,12727.6
1761.522503,12818.8
1764.560933,12602.6
1767.595634,12144.6
1770.626618,13023.4
1773.653896,12957.8
1776.677482,12517.8
1779.697388,12549.6
1782.713625,13135.2
1785.726205,13088.6
1788.735141,13080.8
1791.740445,12518
1794.742129,12392.6
1797.740206,13078.8
1800.734687,12986.4
1803.725585,12848.6
1806.712912,12695.4
1809.69668,12482.2
1812.676902,12524.4
1815.65359,12326.2
1818.626756,12397.4
1821.596413,12416.8
1824.562573,12120.4
1827.525247,12503
1830.48445,12329.4
1833.440192,12543
1836.392487,12344.6
1839.341347,12604.6
1842.286784,12629.6
1845.22881,11950.8
1848.167439,12581
1851.102682,12458
1854.034553,12509.8
1856.963063,12259.8
1859.888226,13147.6
1862.810053,12656.2
1865.728557,12407.6
1868.643751,12236.8
1871.555648,12186.8
1874.46426,11793
1877.369599,12579.8
1880.271679,12347.6
1883.170512,12282.8
1886.06611,12642
1888.958487,12387.2
1891.847655,12257.6
1894.733626,12428.8
1897.616414,12592
1900.496032,11991.4
1903.372491,12301.4
1906.245805,12590.2
1909.115987,12722.4
1911.983049,12685.6
1914.847004,12511.4
1917.707866,12639.8
1920.565646,12633
1923.420359,12106.2
1926.272016,12361.2
1929.120631,12195
1931.966216,12377.8
1934.808786,12271.2
1937.648351,12487.4
1940.484927,12498.4
1943.318525,12532.6
1946.149158,12775.2
1948.97684,13841.2
1951.801584,12778.8
1954.623403,12447.4
1957.44231,12655.2
1960.258318,12081.2
1963.071439,12135
1965.881688,12342.2
1968.689078,12527.8
1971.493621,12178.6
