Ramanshift[cm-1],Intensity,,,,,,,,
-93.47115107,13968.6,,,,,,,, 
-87.69374369,12737,,,,,,,,
-81.9253076,12577,,,,,,,,
-76.16582701,12681.4,,,,,,,,
-70.41528615,12714.6,,,,,,,,
-64.67366933,12452.8,,,,,,,,
-58.94096086,12483.2,,,,,,,,
-53.21714512,12590,,,,,,,,
-47.50220652,12821.4,,,,,,,,
-41.79612954,12802,,,,,,,,
-36.09889866,13275.2,,,,,,,,
-30.41049843,13300.4,,,,,,,,
-24.73091343,12935,,,,,,,,
-19.0601283,12936.2,,,,,,,,
-13.39812769,12723.6,,,,,,,,
-7.744896327,12504.6,,,,,,,,
-2.100418946,12334.8,,,,,,,,
3.535319659,12932.2,,,,,,,,
9.162334658,12388,,,,,,,,
14.78064118,12716.4,,,,,,,,
20.39025432,12351.4,,,,,,,,
25.99118913,12495.6,,,,,,,,
31.58346061,12869.8,,,,,,,,
37.16708375,12774.2,,,,,,,,
42.74207347,12288.2,,,,,,,,
48.30844468,12467.2,,,,,,,,
53.86621222,12230.6,,,,,,,,
59.41539093,11927.2,,,,,,,,
64.95599558,11858,,,,,,,,
70.48804091,12318.8,,,,,,,,
76.01154164,12482.4,,,,,,,,
81.52651243,11815,,,,,,,,
87.03296792,12291.8,,,,,,,,
92.5309227,12740.4,,,,,,,,
98.02039134,11968.4,,,,,,,,
103.5013884,12192.2,,,,,,,,
108.9739282,12168.4,,,,,,,,
114.4380255,12112.6,,,,,,,,
119.8936944,12360.2,,,,,,,,
125.3409495,13156.2,,,,,,,,
130.779805,12078.4,,,,,,,,
136.2102753,11769.2,,,,,,,,
141.6323747,11816,,,,,,,,
147.0461174,12432.4,,,,,,,,
152.4515176,12069.6,,,,,,,,
157.8485895,12006.2,,,,,,,,
163.2373472,11856.8,,,,,,,,
168.6178049,12131,,,,,,,,
173.9899766,12393.4,,,,,,,,
179.3538764,11968.2,,,,,,,,
184.7095182,12190.4,,,,,,,,
190.0569161,12327.6,,,,,,,,
195.396084,12449.6,,,,,,,,
200.7270358,11954.6,,,,,,,,
206.0497854,11968.6,,,,,,,,
211.3643466,11642.2,,,,,,,,
216.6707333,12085,,,,,,,,
221.9689593,11659.4,,,,,,,,
227.2590382,11907.8,,,,,,,,
232.5409839,11843.8,,,,,,,,
237.8148101,11734.6,,,,,,,,
243.0805303,11838.8,,,,,,,,
248.3381582,11872.8,,,,,,,,
253.5877075,11675.2,,,,,,,,
258.8291917,11790.8,,,,,,,,
264.0626244,11915.4,,,,,,,,
269.288019,12080.4,,,,,,,,
274.5053891,12234.2,,,,,,,,
279.7147481,11866.4,,,,,,,,
284.9161094,11614.8,,,,,,,,
290.1094865,11973.8,,,,,,,,
295.2948927,12534.6,,,,,,,,
300.4723414,14170.4,,,,,,,,
305.6418459,15412,,,,,,,,
310.8034194,16776.6,,,,,,,,
315.9570752,18161.4,,,,,,,,
321.1028267,18393.6,,,,,,,,
326.2406869,18450.2,,,,,,,,
331.370669,18750.8,,,,,,,,
336.4927863,18787.2,,,,,,,,
341.6070517,18986.6,,,,,,,,
346.7134786,18863,,,,,,,,
351.8120798,19139.4,,,,,,,,
356.9028684,18911.8,,,,,,,,
361.9858576,18822,,,,,,,,
367.0610602,19358,,,,,,,,
372.1284892,18974.2,,,,,,,,
377.1881577,19449.8,,,,,,,,
382.2400784,19533.4,,,,,,,,
387.2842644,20079,,,,,,,,
392.3207284,20769.8,,,,,,,,
397.3494833,20156.8,,,,,,,,
402.370542,20016,,,,,,,,
407.3839172,19377.6,,,,,,,,
412.3896217,18773.8,,,,,,,,
417.3876683,18402,,,,,,,,
422.3780697,18475.4,,,,,,,,
427.3608386,18463.2,,,,,,,,
432.3359876,18861.6,,,,,,,,
437.3035295,18787,,,,,,,,
442.2634769,19072.4,,,,,,,,
447.2158423,18040.8,,,,,,,,
452.1606383,18167.4,,,,,,,,
457.0978776,18347.8,,,,,,,,
462.0275727,17628.6,,,,,,,,
466.9497361,18272.2,,,,,,,,
471.8643802,17649.4,,,,,,,,
476.7715176,18118.2,,,,,,,,
481.6711608,17973.2,,,,,,,,
486.5633221,18407.2,,,,,,,,
491.448014,18189,,,,,,,,
496.3252488,18157.8,,,,,,,,
501.195039,18127,,,,,,,,
506.0573969,18466.8,,,,,,,,
510.9123349,18078,,,,,,,,
515.7598651,17609,,,,,,,,
520.6,17994.2,,,,,,,,
525.4327518,18100,,,,,,,,
530.2581327,17999.8,,,,,,,,
535.076155,17459.6,,,,,,,,
539.8868309,17854.6,,,,,,,,
544.6901726,18045.6,,,,,,,,
549.4861922,17692.6,,,,,,,,
554.2749019,18577,,,,,,,,
559.0563139,17680.4,,,,,,,,
563.8304402,17370.2,,,,,,,,
568.597293,18524.6,,,,,,,,
573.3568844,18174.6,,,,,,,,
578.1092263,17688.6,,,,,,,,
582.8543308,18113.8,,,,,,,,
587.5922101,18005.4,,,,,,,,
592.322876,17666.2,,,,,,,,
597.0463405,17801.4,,,,,,,,
601.7626157,17986.2,,,,,,,,
606.4717135,17548.8,,,,,,,,
611.1736458,17610.8,,,,,,,,
615.8684246,17677.8,,,,,,,,
620.5560617,17863.4,,,,,,,,
625.2365691,17611,,,,,,,,
629.9099585,18024.4,,,,,,,,
634.5762419,18204.8,,,,,,,,
639.2354312,17667.8,,,,,,,,
643.887538,17866.8,,,,,,,,
648.5325743,17638,,,,,,,,
653.1705518,17541.2,,,,,,,,
657.8014823,17787.8,,,,,,,,
662.4253775,16921.8,,,,,,,,
667.0422493,17489.2,,,,,,,,
671.6521092,17431.6,,,,,,,,
676.2549691,17634.8,,,,,,,,
680.8508407,17499.2,,,,,,,,
685.4397355,17342,,,,,,,,
690.0216654,17464.8,,,,,,,,
694.5966419,17385.2,,,,,,,,
699.1646767,17806,,,,,,,,
703.7257814,17521.6,,,,,,,,
708.2799676,17648.8,,,,,,,,
712.827247,17656,,,,,,,,
717.367631,17452,,,,,,,,
721.9011314,17451.4,,,,,,,,
726.4277595,16786,,,,,,,,
730.9475271,17514.2,,,,,,,,
735.4604456,17325,,,,,,,,
739.9665264,17943,,,,,,,,
744.4657813,17299.4,,,,,,,,
748.9582215,17333,,,,,,,,
753.4438587,16880.2,,,,,,,,
757.9227042,16571.2,,,,,,,,
762.3947696,17198.2,,,,,,,,
766.8600662,16722.8,,,,,,,,
771.3186056,18119,,,,,,,,
775.770399,17029,,,,,,,,
780.215458,17517.8,,,,,,,,
784.6537939,16759.6,,,,,,,,
789.0854181,16654.6,,,,,,,,
793.510342,16759.6,,,,,,,,
797.9285769,17360.2,,,,,,,,
802.3401342,16752.2,,,,,,,,
806.7450253,16893.8,,,,,,,,
811.1432614,16872.8,,,,,,,,
815.5348538,16666.6,,,,,,,,
819.9198139,16323,,,,,,,,
824.2981531,16643.6,,,,,,,,
828.6698824,16828.8,,,,,,,,
833.0350133,16587,,,,,,,,
837.393557,16232,,,,,,,,
841.7455248,16600.2,,,,,,,,
846.0909278,16389.4,,,,,,,,
850.4297774,16347.2,,,,,,,,
854.7620848,16329,,,,,,,,
859.0878611,16674.4,,,,,,,,
863.4071176,15919,,,,,,,,
867.7198655,16480.6,,,,,,,,
872.026116,16875.2,,,,,,,,
876.3258802,17273.4,,,,,,,,
880.6191693,16784.4,,,,,,,,
884.9059946,16841.8,,,,,,,,
889.186367,17257.6,,,,,,,,
893.4602979,16062.4,,,,,,,,
897.7277982,16073.6,,,,,,,,
901.9888793,16504,,,,,,,,
906.2435521,16820,,,,,,,,
910.4918277,16215.4,,,,,,,,
914.7337174,16061.8,,,,,,,,
918.9692321,16022.4,,,,,,,,
923.1983831,16539.4,,,,,,,,
927.4211813,16329.2,,,,,,,,
931.6376378,16906.6,,,,,,,,
935.8477637,16432.6,,,,,,,,
940.0515701,16524.2,,,,,,,,
944.249068,16718,,,,,,,,
948.4402684,15919,,,,,,,,
952.6251825,16762.8,,,,,,,,
956.8038212,16335.4,,,,,,,,
960.9761955,17059.2,,,,,,,,
965.1423166,16369.8,,,,,,,,
969.3021953,16413.4,,,,,,,,
973.4558427,16474.8,,,,,,,,
977.6032699,16362.6,,,,,,,,
981.7444877,16390.4,,,,,,,,
985.8795072,16251.4,,,,,,,,
990.0083394,16309,,,,,,,,
994.1309953,16036.6,,,,,,,,
998.2474857,16480.8,,,,,,,,
1002.357822,15607.6,,,,,,,,
1006.462014,16158.2,,,,,,,,
1010.560075,15997.4,,,,,,,,
1014.652013,16378.2,,,,,,,,
1018.737841,16630.8,,,,,,,,
1022.81757,16089.6,,,,,,,,
1026.891209,15992.6,,,,,,,,
1030.958771,15799.6,,,,,,,,
1035.020266,16290.4,,,,,,,,
1039.075705,15916.2,,,,,,,,
1043.1251,15619.4,,,,,,,,
1047.16846,15968.6,,,,,,,,
1051.205797,15872,,,,,,,,
1055.237121,15427.2,,,,,,,,
1059.262444,15518.8,,,,,,,,
1063.281777,15359.6,,,,,,,,
1067.295131,15477,,,,,,,,
1071.302515,16724.2,,,,,,,,
1075.303942,16600.6,,,,,,,,
1079.299422,17514.6,,,,,,,,
1083.288966,16917.6,,,,,,,,
1087.272585,16481.4,,,,,,,,
1091.250289,16043,,,,,,,,
1095.222091,16009.8,,,,,,,,
1099.187999,15590.8,,,,,,,,
1103.148026,15709.8,,,,,,,,
1107.102183,15526.2,,,,,,,,
1111.050479,15664,,,,,,,,
1114.992927,15689,,,,,,,,
1118.929536,15566.2,,,,,,,,
1122.860318,15840.2,,,,,,,,
1126.785283,15260.2,,,,,,,,
1130.704443,15178.4,,,,,,,,
1134.617808,15898.8,,,,,,,,
1138.52539,15777,,,,,,,,
1142.427198,15679.6,,,,,,,,
1146.323244,15792.2,,,,,,,,
1150.213538,15418,,,,,,,,
1154.098093,15898.2,,,,,,,,
1157.976917,15293.4,,,,,,,,
1161.850023,15108.8,,,,,,,,
1165.717421,15719.2,,,,,,,,
1169.579121,15277.2,,,,,,,,
1173.435135,15871.4,,,,,,,,
1177.285474,14860.8,,,,,,,,
1181.130148,15194.8,,,,,,,,
1184.969169,15556,,,,,,,,
1188.802547,15460.2,,,,,,,,
1192.630292,14962.4,,,,,,,,
1196.452416,14738.2,,,,,,,,
1200.26893,14797,,,,,,,,
1204.079844,14535.2,,,,,,,,
1207.88517,14172.4,,,,,,,,
1211.684917,14888.6,,,,,,,,
1215.479098,14519,,,,,,,,
1219.267722,16097.2,,,,,,,,
1223.050801,14481.6,,,,,,,,
1226.828346,14525.2,,,,,,,,
1230.600366,14864.2,,,,,,,,
1234.366874,14864.2,,,,,,,,
1238.12788,14678.4,,,,,,,,
1241.883395,14710.6,,,,,,,,
1245.633429,15064,,,,,,,,
1249.377994,15009,,,,,,,,
1253.1171,14160.6,,,,,,,,
1256.850759,14743.8,,,,,,,,
1260.578981,14524.2,,,,,,,,
1264.301776,14644.6,,,,,,,,
1268.019157,14489.6,,,,,,,,
1271.731133,14259,,,,,,,,
1275.437715,14158.4,,,,,,,,
1279.138915,14692.4,,,,,,,,
1282.834743,14908.2,,,,,,,,
1286.52521,14414.2,,,,,,,,
1290.210328,14182.2,,,,,,,,
1293.890106,14268.2,,,,,,,,
1297.564555,14904.6,,,,,,,,
1301.233688,14187.8,,,,,,,,
1304.897514,14527.2,,,,,,,,
1308.556044,14558,,,,,,,,
1312.209289,14695.6,,,,,,,,
1315.857261,14013,,,,,,,,
1319.499969,14236.2,,,,,,,,
1323.137425,15088.6,,,,,,,,
1326.769641,14463.8,,,,,,,,
1330.396626,15051,,,,,,,,
1334.018391,14464.8,,,,,,,,
1337.634948,14536.8,,,,,,,,
1341.246307,14261.8,,,,,,,,
1344.85248,14212.6,,,,,,,,
1348.453477,14041,,,,,,,,
1352.049309,14071.8,,,,,,,,
1355.639987,14093.2,,,,,,,,
1359.225522,14590.8,,,,,,,,
1362.805925,14252.2,,,,,,,,
1366.381207,14319.2,,,,,,,,
1369.951379,14324.6,,,,,,,,
1373.516452,14432.4,,,,,,,,
1377.076436,14656.8,,,,,,,,
1380.631343,14446.2,,,,,,,,
1384.181184,14199.2,,,,,,,,
1387.725969,14230.6,,,,,,,,
1391.26571,13943.2,,,,,,,,
1394.800417,13828,,,,,,,,
1398.330102,14109.8,,,,,,,,
1401.854776,14302,,,,,,,,
1405.374448,14139.8,,,,,,,,
1408.889132,13680.2,,,,,,,,
1412.398837,13314.4,,,,,,,,
1415.903574,13764.4,,,,,,,,
1419.403355,14339,,,,,,,,
1422.89819,13913.4,,,,,,,,
1426.388091,13820.2,,,,,,,,
1429.873069,14399.6,,,,,,,,
1433.353134,13742.6,,,,,,,,
1436.828298,13882.6,,,,,,,,
1440.298571,14020.8,,,,,,,,
1443.763965,13762.8,,,,,,,,
1447.224491,13693.2,,,,,,,,
1450.68016,13661.8,,,,,,,,
1454.130983,14147.6,,,,,,,,
1457.576971,13945.4,,,,,,,,
1461.018135,14172,,,,,,,,
1464.454486,14270.6,,,,,,,,
1467.886036,13875,,,,,,,,
1471.312794,13861,,,,,,,,
1474.734774,13536,,,,,,,,
1478.151985,14226,,,,,,,,
1481.564439,13947,,,,,,,,
1484.972146,13842.4,,,,,,,,
1488.375119,13389,,,,,,,,
1491.773368,13822.2,,,,,,,,
1495.166904,14503.2,,,,,,,,
1498.555739,13735.2,,,,,,,,
1501.939883,13767.6,,,,,,,,
1505.319349,13300.8,,,,,,,,
1508.694146,13669.4,,,,,,,,
1512.064286,13714.8,,,,,,,,
1515.429781,13709.2,,,,,,,,
1518.790642,13464.4,,,,,,,,
1522.146879,13826.4,,,,,,,,
1525.498505,13253,,,,,,,,
1528.845529,13187.2,,,,,,,,
1532.187965,13846.4,,,,,,,,
1535.525822,13494.2,,,,,,,,
1538.859112,13432,,,,,,,,
1542.187846,14195.2,,,,,,,,
1545.512036,13208.4,,,,,,,,
1548.831693,14530.2,,,,,,,,
1552.146829,13951.6,,,,,,,,
1555.457453,13335.2,,,,,,,,
1558.763579,12914.4,,,,,,,,
1562.065216,13320.4,,,,,,,,
1565.362377,13679.8,,,,,,,,
1568.655073,13959.6,,,,,,,,
1571.943315,13646.4,,,,,,,,
1575.227114,13603.8,,,,,,,,
1578.506482,13629.6,,,,,,,,
1581.781431,14270.4,,,,,,,,
1585.051971,13825,,,,,,,,
1588.318114,13916.6,,,,,,,,
1591.579872,13941,,,,,,,,
1594.837255,13667.6,,,,,,,,
1598.090275,13416,,,,,,,,
1601.338945,13351,,,,,,,,
1604.583274,13761.4,,,,,,,,
1607.823275,13376.4,,,,,,,,
1611.058959,12923,,,,,,,,
1614.290338,13643.6,,,,,,,,
1617.517422,12899,,,,,,,,
1620.740224,13253.2,,,,,,,,
1623.958755,12944.6,,,,,,,,
1627.173027,12973.2,,,,,,,,
1630.38305,12712,,,,,,,,
1633.588838,13097.2,,,,,,,,
1636.7904,12891.6,,,,,,,,
1639.987749,13096,,,,,,,,
1643.180896,13140.4,,,,,,,,
1646.369853,12695.4,,,,,,,,
1649.554632,13508.6,,,,,,,,
1652.735244,12804.6,,,,,,,,
1655.9117,12420.2,,,,,,,,
1659.084013,12729.2,,,,,,,,
1662.252193,13399.8,,,,,,,,
1665.416254,12574.6,,,,,,,,
1668.576205,12869,,,,,,,,
1671.732059,13151.8,,,,,,,,
1674.883828,13117.8,,,,,,,,
1678.031523,12606.8,,,,,,,,
1681.175157,12764.6,,,,,,,,
1684.314739,12805.2,,,,,,,,
1687.450284,12780,,,,,,,,
1690.581801,12658.2,,,,,,,,
1693.709304,12479.6,,,,,,,,
1696.832803,12530,,,,,,,,
1699.952311,12756,,,,,,,,
1703.067839,12739.8,,,,,,,,
1706.179399,12792.2,,,,,,,,
1709.287003,13073.2,,,,,,,,
1712.390663,12628.8,,,,,,,,
1715.49039,12722.4,,,,,,,,
1718.586197,13066.8,,,,,,,,
1721.678095,12885,,,,,,,,
1724.766096,12948.4,,,,,,,,
1727.850213,12374.8,,,,,,,,
1730.930456,12624,,,,,,,,
1734.006838,12461.8,,,,,,,,
1737.079372,12826,,,,,,,,
1740.148067,12459,,,,,,,,
1743.212938,13495,,,,,,,,
1746.273996,12643.4,,,,,,,,
1749.331252,12579.8,,,,,,,,
1752.384718,12668.2,,,,,,,,
1755.434408,12731.8,,,,,,,,
1758.480332,12659.6,,,,,,,,
1761.522503,12591.6,,,,,,,,
1764.560933,12382.8,,,,,,,,
1767.595634,12087,,,,,,,,
1770.626618,12886.2,,,,,,,,
1773.653896,12820,,,,,,,,
1776.677482,12502.6,,,,,,,,
1779.697388,12391.4,,,,,,,,
1782.713625,12927.4,,,,,,,,
1785.726205,12968.2,,,,,,,,
1788.735141,12834.6,,,,,,,,
1791.740445,12407.2,,,,,,,,
1794.742129,12354.2,,,,,,,,
1797.740206,12877.6,,,,,,,,
1800.734687,12897.8,,,,,,,,
1803.725585,12705.2,,,,,,,,
1806.712912,12711.8,,,,,,,,
1809.69668,12359.2,,,,,,,,
1812.676902,12434,,,,,,,,
1815.65359,12123.6,,,,,,,,
1818.626756,12120.4,,,,,,,,
1821.596413,12363.4,,,,,,,,
1824.562573,11980.4,,,,,,,,
1827.525247,12393.6,,,,,,,,
1830.48445,12195.8,,,,,,,,
1833.440192,12383,,,,,,,,
1836.392487,12216.8,,,,,,,,
1839.341347,12436.8,,,,,,,,
1842.286784,12571.4,,,,,,,,
1845.22881,11989.6,,,,,,,,
1848.167439,12499.2,,,,,,,,
1851.102682,12357,,,,,,,,
1854.034553,12354.2,,,,,,,,
1856.963063,12209.4,,,,,,,,
1859.888226,12989,,,,,,,,
1862.810053,12463.2,,,,,,,,
1865.728557,12376,,,,,,,,
1868.643751,12116.2,,,,,,,,
1871.555648,12101.4,,,,,,,,
1874.46426,11866.8,,,,,,,,
1877.369599,12502.4,,,,,,,,
1880.271679,12314.8,,,,,,,,
1883.170512,12106.4,,,,,,,,
1886.06611,12597.8,,,,,,,,
1888.958487,12225.8,,,,,,,,
1891.847655,12159.8,,,,,,,,
1894.733626,12435.8,,,,,,,,
1897.616414,12394,,,,,,,,
1900.496032,11967.8,,,,,,,,
1903.372491,12171.8,,,,,,,,
1906.245805,12623.6,,,,,,,,
1909.115987,12616.6,,,,,,,,
1911.983049,12463,,,,,,,,
1914.847004,12459.4,,,,,,,,
1917.707866,12597,,,,,,,,
1920.565646,12609.6,,,,,,,,
1923.420359,12088.6,,,,,,,,
1926.272016,12363.4,,,,,,,,
1929.120631,12140.2,,,,,,,,
1931.966216,12262,,,,,,,,
1934.808786,12293.4,,,,,,,,
1937.648351,12535.4,,,,,,,,
1940.484927,12373,,,,,,,,
1943.318525,12417.6,,,,,,,,
1946.149158,12697.2,,,,,,,,
1948.97684,13779,,,,,,,,
1951.801584,12745.4,,,,,,,,
1954.623403,12516.8,,,,,,,,
1957.44231,12575.8,,,,,,,,
1960.258318,12066.6,,,,,,,,
1963.071439,12084,,,,,,,,
1965.881688,12267.8,,,,,,,,
1968.689078,12443.6,,,,,,,,
1971.493621,12210.4,,,,,,,,
