Ramanshift[cm-1],Intensity
-93.47115107,13751.8
-87.69374369,12414.8
-81.9253076,12305.8
-76.16582701,12351.8
-70.41528615,12374.8
-64.67366933,12141.8
-58.94096086,12122
-53.21714512,12331.4
-47.50220652,12530.8
-41.79612954,12484.4
-36.09889866,12971.2
-30.41049843,13009.4
-24.73091343,12539.8
-19.0601283,12616.8
-13.39812769,12404.4
-7.744896327,12307
-2.100418946,11989.2
3.535319659,12625.6
9.162334658,12038
14.78064118,12406.4
20.39025432,12106.6
25.99118913,12105.2
31.58346061,12506
37.16708375,12370.6
42.74207347,12006.2
48.30844468,12080.6
53.86621222,11899.6
59.41539093,11694
64.95599558,11664
70.48804091,12030
76.01154164,12108.4
81.52651243,11560.2
87.03296792,12074.4
92.5309227,12424.6
98.02039134,11613
103.5013884,11986.4
108.9739282,11857.8
114.4380255,11795.8
119.8936944,12034.2
125.3409495,12972.4
130.779805,11732.6
136.2102753,11533.6
141.6323747,11577.8
147.0461174,12147.6
152.4515176,11696.6
157.8485895,11732.8
163.2373472,11647
168.6178049,11813.8
173.9899766,12139.8
179.3538764,11680.2
184.7095182,11818.2
190.0569161,11972.8
195.396084,12216.2
200.7270358,11551
206.0497854,11710.2
211.3643466,11345.2
216.6707333,11694
221.9689593,11458.2
227.2590382,11623.6
232.5409839,11499.8
237.8148101,11524.6
243.0805303,11602.8
248.3381582,11541.4
253.5877075,11425.2
258.8291917,11584.8
264.0626244,11735
269.288019,11734
274.5053891,11948.6
279.7147481,11808
284.9161094,11639.6
290.1094865,12331.6
295.2948927,14342.8
300.4723414,19282
305.6418459,25431
310.8034194,31157.6
315.9570752,34663.8
321.1028267,35624.2
326.2406869,35919.2
331.370669,36404
336.4927863,37050.8
341.6070517,37711
346.7134786,38317.8
351.8120798,38679.4
356.9028684,38665
361.9858576,38659.8
367.0610602,38923.8
372.1284892,38370.2
377.1881577,38879
382.2400784,39247.8
387.2842644,40357.6
392.3207284,40986.8
397.3494833,40621.2
402.370542,40041.4
407.3839172,39201.8
412.3896217,38048.8
417.3876683,37414.4
422.3780697,37513.6
427.3608386,37229
432.3359876,37476.2
437.3035295,37107.4
442.2634769,37263.8
447.2158423,36217.6
452.1606383,36224.6
457.0978776,36299.6
462.0275727,35534.8
466.9497361,36133.2
471.8643802,35629.2
476.7715176,35964.2
481.6711608,36233
486.5633221,36560.2
491.448014,36258.6
496.3252488,35973
501.195039,35996
506.0573969,36247.4
510.9123349,35596.2
515.7598651,35072.8
520.6,35420
525.4327518,35189.4
530.2581327,35241
535.076155,34692.8
539.8868309,34848.2
544.6901726,34646.4
549.4861922,34170.6
554.2749019,35214
559.0563139,34426.6
563.8304402,34025
568.597293,35012.6
573.3568844,34504.2
578.1092263,34238.4
582.8543308,34603.8
587.5922101,34805.4
592.322876,34254
597.0463405,34579.4
601.7626157,34685.8
606.4717135,34083
611.1736458,34154.2
615.8684246,34025.6
620.5560617,34354.2
625.2365691,33988.6
629.9099585,34482.2
634.5762419,34426
639.2354312,33632
643.887538,33739.8
648.5325743,33592.4
653.1705518,33393.4
657.8014823,33507.8
662.4253775,32998.6
667.0422493,33180.2
671.6521092,33049.4
676.2549691,33177.4
680.8508407,33003.4
685.4397355,32893.2
690.0216654,33043
694.5966419,32885.2
699.1646767,33354.8
703.7257814,32963.4
708.2799676,33146
712.827247,33119.6
717.367631,32623.6
721.9011314,32905.2
726.4277595,32086.4
730.9475271,32551.4
735.4604456,32380.6
739.9665264,32773.8
744.4657813,32186.6
748.9582215,32080
753.4438587,31472.2
757.9227042,31093.2
762.3947696,31623
766.8600662,30805.8
771.3186056,32271.2
775.770399,31112.4
780.215458,31400.2
784.6537939,30600.2
789.0854181,30550.4
793.510342,30435
797.9285769,30808.2
802.3401342,30160.2
806.7450253,30269.2
811.1432614,30279.8
815.5348538,29725.8
819.9198139,29365.8
824.2981531,29401.8
828.6698824,29397.4
833.0350133,29006
837.393557,28822
841.7455248,28997.8
846.0909278,28642.4
850.4297774,28710.2
854.7620848,28881.6
859.0878611,29162.6
863.4071176,28376
867.7198655,29008
872.026116,29273.6
876.3258802,29615.2
880.6191693,29219.6
884.9059946,28976
889.186367,29393
893.4602979,28207
897.7277982,28159.8
901.9888793,28658.4
906.2435521,29190.8
910.4918277,28557.6
914.7337174,28487.6
918.9692321,28463.4
923.1983831,28961.4
927.4211813,28676
931.6376378,29195.6
935.8477637,28686.4
940.0515701,28974
944.249068,29082.4
948.4402684,28158.4
952.6251825,29200.4
956.8038212,28700
960.9761955,29346.6
965.1423166,28674.8
969.3021953,28973.4
973.4558427,28905.4
977.6032699,28779
981.7444877,28792.6
985.8795072,28537.4
990.0083394,28692
994.1309953,28384.2
998.2474857,28926.4
1002.357822,27825.4
1006.462014,28625.2
1010.560075,28210.8
1014.652013,28505.4
1018.737841,28699.4
1022.81757,28186.4
1026.891209,28008.8
1030.958771,27822.4
1035.020266,28015.4
1039.075705,27783.4
1043.1251,27377
1047.16846,27829.2
1051.205797,27770.6
1055.237121,27256.6
1059.262444,27411.6
1063.281777,27396
1067.295131,27953
1071.302515,29766
1075.303942,29607.8
1079.299422,30763.8
1083.288966,29851
1087.272585,28811
1091.250289,28355.2
1095.222091,28096.6
1099.187999,27447.6
1103.148026,27557.8
1107.102183,27464
1111.050479,27492.6
1114.992927,27451
1118.929536,27445.8
1122.860318,27851.4
1126.785283,27418.8
1130.704443,27403.4
1134.617808,28415.8
1138.52539,28204
1142.427198,28094.4
1146.323244,27871.8
1150.213538,27429.8
1154.098093,27828.4
1157.976917,27053.6
1161.850023,27135.8
1165.717421,27628.4
1169.579121,27366.4
1173.435135,27787.6
1177.285474,26839.2
1181.130148,27386.6
1184.969169,27472.2
1188.802547,27198.4
1192.630292,26855.4
1196.452416,26505.6
1200.26893,26397.2
1204.079844,26165.4
1207.88517,25769.6
1211.684917,26432.4
1215.479098,25886
1219.267722,27609.6
1223.050801,25951
1226.828346,26015.2
1230.600366,26311.2
1234.366874,26302.2
1238.12788,26012
1241.883395,26234.2
1245.633429,26313
1249.377994,26353
1253.1171,25717.6
1256.850759,25902.8
1260.578981,26017.6
1264.301776,25938.4
1268.019157,25867
1271.731133,25570.8
1275.437715,25411.2
1279.138915,25953.4
1282.834743,26148.6
1286.52521,25636.4
1290.210328,25346.6
1293.890106,25523.2
1297.564555,26132.8
1301.233688,25258.2
1304.897514,25847.6
1308.556044,25899.4
1312.209289,25725
1315.857261,25229
1319.499969,25415
1323.137425,26076.4
1326.769641,25493.8
1330.396626,26231.4
1334.018391,25563.6
1337.634948,25679.2
1341.246307,25301
1344.85248,25442.8
1348.453477,25132.4
1352.049309,24881.6
1355.639987,24989
1359.225522,25557.2
1362.805925,24981
1366.381207,24960.4
1369.951379,25129.4
1373.516452,25066
1377.076436,25357.6
1380.631343,25082.4
1384.181184,24810.4
1387.725969,24956.2
1391.26571,24610.2
1394.800417,24457
1398.330102,24252
1401.854776,24686.4
1405.374448,24243.4
1408.889132,23978.2
1412.398837,23500
1415.903574,23823.6
1419.403355,24540.6
1422.89819,24119.8
1426.388091,24018.8
1429.873069,24583.8
1433.353134,23867.2
1436.828298,23962.6
1440.298571,23878
1443.763965,23447.6
1447.224491,23234
1450.68016,23277.2
1454.130983,23653.8
1457.576971,23366.6
1461.018135,23543.4
1464.454486,23477.6
1467.886036,22905.4
1471.312794,23025.4
1474.734774,22687.6
1478.151985,23210.8
1481.564439,22946.2
1484.972146,22618.4
1488.375119,22287.8
1491.773368,22600.4
1495.166904,23073.8
1498.555739,22210.8
1501.939883,22479.8
1505.319349,21706.8
1508.694146,22050
1512.064286,22212.8
1515.429781,22086
1518.790642,21953
1522.146879,22039.8
1525.498505,21688
1528.845529,21532.4
1532.187965,22307
1535.525822,21760
1538.859112,21690.8
1542.187846,22307.4
1545.512036,21398.6
1548.831693,22608.8
1552.146829,22034
1555.457453,21399.6
1558.763579,21123.8
1562.065216,21515.8
1565.362377,21768.4
1568.655073,21935
1571.943315,21881.6
1575.227114,21745
1578.506482,21815.2
1581.781431,22204.8
1585.051971,21709.8
1588.318114,21826.8
1591.579872,21578.2
1594.837255,21094.8
1598.090275,20600.6
1601.338945,20365
1604.583274,20687.6
1607.823275,20125.8
1611.058959,19489
1614.290338,20228.8
1617.517422,19269.4
1620.740224,19511.2
1623.958755,18942.4
1627.173027,18935
1630.38305,18494
1633.588838,18870.4
1636.7904,18605.6
1639.987749,18625.8
1643.180896,18714.2
1646.369853,18077.4
1649.554632,18746.8
1652.735244,18044.2
1655.9117,17578.2
1659.084013,17905.2
1662.252193,18470
1665.416254,17494.4
1668.576205,17783.4
1671.732059,17980.4
1674.883828,17962.4
1678.031523,17409
1681.175157,17503
1684.314739,17453.4
1687.450284,17299
1690.581801,16977.2
1693.709304,16995.4
1696.832803,17063.6
1699.952311,17164.4
1703.067839,17099.2
1706.179399,17029.2
1709.287003,17525.8
1712.390663,16959
1715.49039,16905.6
1718.586197,17150
1721.678095,17091
1724.766096,17029.2
1727.850213,16581
1730.930456,16661.2
1734.006838,16525.6
1737.079372,16882.2
1740.148067,16389.4
1743.212938,17379.6
1746.273996,16452.8
1749.331252,16460.2
1752.384718,16454.8
1755.434408,16384.8
1758.480332,16355.4
1761.522503,16309.6
1764.560933,16110.4
1767.595634,15628.6
1770.626618,16439.2
1773.653896,16425.6
1776.677482,15830.6
1779.697388,15941.2
1782.713625,16415.2
1785.726205,16367.6
1788.735141,16381.2
1791.740445,15923
1794.742129,15788.2
1797.740206,16291.4
1800.734687,16306.8
1803.725585,16088
1806.712912,15990.4
1809.69668,15676
1812.676902,15800
1815.65359,15521.8
1818.626756,15529.4
1821.596413,15737.8
1824.562573,15425
1827.525247,15788.4
1830.48445,15434.2
1833.440192,15600
1836.392487,15485.2
1839.341347,15731.8
1842.286784,15669.8
1845.22881,15197
1848.167439,15760.4
1851.102682,15413
1854.034553,15518.6
1856.963063,15291.6
1859.888226,16097.8
1862.810053,15577.2
1865.728557,15439.6
1868.643751,15163.2
1871.555648,15143.2
1874.46426,14879.8
1877.369599,15417.2
1880.271679,15288.4
1883.170512,15137
1886.06611,15538.4
1888.958487,15281.2
1891.847655,15220.4
1894.733626,15217.2
1897.616414,15330.6
1900.496032,14879.4
1903.372491,15141
1906.245805,15480.6
1909.115987,15389.6
1911.983049,15376.2
1914.847004,15234.2
1917.707866,15444.2
1920.565646,15265.6
1923.420359,14928.2
1926.272016,15093
1929.120631,14877.8
1931.966216,15033.2
1934.808786,14823
1937.648351,15108.4
1940.484927,15099.6
1943.318525,15171.2
1946.149158,15382.8
1948.97684,16381.6
1951.801584,15330.2
1954.623403,15101.8
1957.44231,15127.6
1960.258318,14615.6
1963.071439,14701.2
1965.881688,14833.8
1968.689078,14977.8
1971.493621,14705.4
