Ramanshift[cm-1],Intensity
-93.47115107,13736.6
-87.69374369,12405
-81.9253076,12247.8
-76.16582701,12364.6
-70.41528615,12368.8
-64.67366933,12076.4
-58.94096086,12084.8
-53.21714512,12344.6
-47.50220652,12422.4
-41.79612954,12419.4
-36.09889866,12857.2
-30.41049843,13013.8
-24.73091343,12676.8
-19.0601283,12570.4
-13.39812769,12439.8
-7.744896327,12221.8
-2.100418946,12068
3.535319659,12751.2
9.162334658,12061
14.78064118,12283.2
20.39025432,12086.2
25.99118913,12111.4
31.58346061,12625.2
37.16708375,12412.2
42.74207347,12030.4
48.30844468,12096.2
53.86621222,11964.6
59.41539093,11637
64.95599558,11655.2
70.48804091,12030
76.01154164,12022.6
81.52651243,11546.6
87.03296792,12068.6
92.5309227,12353.2
98.02039134,11657.8
103.5013884,11974.2
108.9739282,11731.8
114.4380255,11825.6
119.8936944,12032.2
125.3409495,12845
130.779805,11830.6
136.2102753,11470.8
141.6323747,11565
147.0461174,12166.8
152.4515176,11702.4
157.8485895,11783.4
163.2373472,11580.4
168.6178049,11926.4
173.9899766,12194.8
179.3538764,11590.2
184.7095182,11822
190.0569161,11975.6
195.396084,12145.2
200.7270358,11516.4
206.0497854,11664.2
211.3643466,11380.8
216.6707333,11724.4
221.9689593,11438.2
227.2590382,11604
232.5409839,11530.4
237.8148101,11434
243.0805303,11566.8
248.3381582,11609
253.5877075,11452.6
258.8291917,11593.4
264.0626244,11696.8
269.288019,11823.4
274.5053891,11902
279.7147481,11728.6
284.9161094,11504.8
290.1094865,11999.2
295.2948927,13178.2
300.4723414,16209.2
305.6418459,19439.6
310.8034194,22299.4
315.9570752,24654.6
321.1028267,25079.8
326.2406869,25244.8
331.370669,25454.8
336.4927863,25745.8
341.6070517,26009.8
346.7134786,26019.8
351.8120798,26350.8
356.9028684,26241.6
361.9858576,26212.8
367.0610602,26455.8
372.1284892,26133
377.1881577,26725.8
382.2400784,26754.4
387.2842644,27252.8
392.3207284,27815.6
397.3494833,27147.6
402.370542,27096
407.3839172,26489.8
412.3896217,25793.2
417.3876683,25127.2
422.3780697,25195.8
427.3608386,24946
432.3359876,25292
437.3035295,25255.2
442.2634769,25360.4
447.2158423,24458.2
452.1606383,24397.8
457.0978776,24566
462.0275727,23822.2
466.9497361,24403.4
471.8643802,23907.4
476.7715176,24453.6
481.6711608,24340
486.5633221,24757.2
491.448014,24397.4
496.3252488,24321.6
501.195039,24377
506.0573969,24607.6
510.9123349,24226
515.7598651,23681.2
520.6,24154.8
525.4327518,24011.8
530.2581327,23943.2
535.076155,23417.2
539.8868309,23778.6
544.6901726,23651
549.4861922,23264.4
554.2749019,24101.8
559.0563139,23174
563.8304402,23006
568.597293,23926
573.3568844,23417
578.1092263,23024.8
582.8543308,23600.8
587.5922101,23396.2
592.322876,23043
597.0463405,23253
601.7626157,23576
606.4717135,23070.8
611.1736458,22917.8
615.8684246,23036.8
620.5560617,23375
625.2365691,23056
629.9099585,23431.8
634.5762419,23631.6
639.2354312,22894.6
643.887538,23020.8
648.5325743,22749.8
653.1705518,22682.2
657.8014823,22916.4
662.4253775,22228.2
667.0422493,22441.8
671.6521092,22408.4
676.2549691,22647
680.8508407,22515.2
685.4397355,22471
690.0216654,22482.4
694.5966419,22313.6
699.1646767,22713.2
703.7257814,22490
708.2799676,22561
712.827247,22643.2
717.367631,22354.6
721.9011314,22241.4
726.4277595,21573.4
730.9475271,22260.4
735.4604456,22121.4
739.9665264,22576
744.4657813,22041
748.9582215,21970.6
753.4438587,21346.2
757.9227042,21160
762.3947696,21722.4
766.8600662,21126.2
771.3186056,22672.4
775.770399,21445.8
780.215458,21637
784.6537939,20987.4
789.0854181,20843.6
793.510342,20938.4
797.9285769,21278.8
802.3401342,20744.6
806.7450253,20871.2
811.1432614,20743.2
815.5348538,20525.4
819.9198139,20165.2
824.2981531,20358
828.6698824,20388.8
833.0350133,20197.8
837.393557,19984.2
841.7455248,20268.8
846.0909278,20121.2
850.4297774,19944.6
854.7620848,20037.8
859.0878611,20344
863.4071176,19649
867.7198655,20155.2
872.026116,20438.2
876.3258802,20866.2
880.6191693,20276.2
884.9059946,20328.4
889.186367,20695
893.4602979,19600.8
897.7277982,19585.6
901.9888793,19956.2
906.2435521,20393.6
910.4918277,19868.6
914.7337174,19789
918.9692321,19596.6
923.1983831,20372
927.4211813,19892.6
931.6376378,20695.4
935.8477637,20031.4
940.0515701,20120.4
944.249068,20245.6
948.4402684,19328.6
952.6251825,20251
956.8038212,19856
960.9761955,20558.2
965.1423166,20043.2
969.3021953,20117.2
973.4558427,19904.2
977.6032699,19764.6
981.7444877,19905.6
985.8795072,19838
990.0083394,19973.2
994.1309953,19559.2
998.2474857,19986.8
1002.357822,19132.2
1006.462014,19840.8
1010.560075,19545.8
1014.652013,19821.8
1018.737841,20067.4
1022.81757,19488.6
1026.891209,19602
1030.958771,19452.2
1035.020266,19770.8
1039.075705,19410.8
1043.1251,19082.2
1047.16846,19366
1051.205797,19371.4
1055.237121,19103.6
1059.262444,19174
1063.281777,19188.4
1067.295131,19608
1071.302515,20970.8
1075.303942,20775.2
1079.299422,21612.4
1083.288966,20705
1087.272585,20133.2
1091.250289,19641
1095.222091,19539.4
1099.187999,19049
1103.148026,19196.8
1107.102183,19051.2
1111.050479,19209.8
1114.992927,19135.8
1118.929536,18979.6
1122.860318,19382.2
1126.785283,18853.8
1130.704443,18873.8
1134.617808,19778.8
1138.52539,19770
1142.427198,19494.8
1146.323244,19519.8
1150.213538,18865
1154.098093,19365.6
1157.976917,18730.2
1161.850023,18535.8
1165.717421,19163.2
1169.579121,18944
1173.435135,19268.4
1177.285474,18433.2
1181.130148,18728.8
1184.969169,18938.6
1188.802547,18709.6
1192.630292,18358.6
1196.452416,18016.4
1200.26893,18159.6
1204.079844,17955.4
1207.88517,17471.6
1211.684917,18174.6
1215.479098,17705.6
1219.267722,19394.8
1223.050801,17810.8
1226.828346,17942.4
1230.600366,18136.6
1234.366874,18112.2
1238.12788,17928.6
1241.883395,18124.2
1245.633429,18378
1249.377994,18313
1253.1171,17556.6
1256.850759,17921.2
1260.578981,17786.6
1264.301776,17888
1268.019157,17759
1271.731133,17607
1275.437715,17391.6
1279.138915,17984.6
1282.834743,18251.4
1286.52521,17747.2
1290.210328,17538.2
1293.890106,17663.6
1297.564555,18044.6
1301.233688,17445.4
1304.897514,17679
1308.556044,17833.4
1312.209289,17905.4
1315.857261,17461.2
1319.499969,17485.6
1323.137425,18347.4
1326.769641,17750
1330.396626,18402.4
1334.018391,17722.6
1337.634948,17870.2
1341.246307,17597.2
1344.85248,17428.6
1348.453477,17279.4
1352.049309,17252.8
1355.639987,17285
1359.225522,18021
1362.805925,17378.2
1366.381207,17449.4
1369.951379,17496
1373.516452,17610.6
1377.076436,17690
1380.631343,17597.4
1384.181184,17503
1387.725969,17610.8
1391.26571,17289.4
1394.800417,17062.6
1398.330102,17019.2
1401.854776,17407.8
1405.374448,17166.6
1408.889132,16692.8
1412.398837,16427.2
1415.903574,16687.8
1419.403355,17295.6
1422.89819,16818
1426.388091,16830
1429.873069,17385.4
1433.353134,16684.6
1436.828298,16708.4
1440.298571,16761.2
1443.763965,16473.4
1447.224491,16290.8
1450.68016,16282.2
1454.130983,16635.2
1457.576971,16542.4
1461.018135,16703.2
1464.454486,16791.2
1467.886036,16157.4
1471.312794,16208.4
1474.734774,15936.4
1478.151985,16672.8
1481.564439,16294.6
1484.972146,16213.6
1488.375119,15802.8
1491.773368,16112.4
1495.166904,16623.8
1498.555739,15911
1501.939883,16048
1505.319349,15697.4
1508.694146,15954.8
1512.064286,16012.8
1515.429781,15929.6
1518.790642,15788
1522.146879,15959.6
1525.498505,15398.2
1528.845529,15398.8
1532.187965,16163.8
1535.525822,15847.8
1538.859112,15774
1542.187846,16368.4
1545.512036,15486.4
1548.831693,16809.4
1552.146829,16218
1555.457453,15558.4
1558.763579,15170
1562.065216,15672.8
1565.362377,16003.4
1568.655073,16193.8
1571.943315,16057.2
1575.227114,16006.6
1578.506482,15860
1581.781431,16494.2
1585.051971,16010.2
1588.318114,16014.6
1591.579872,15796.2
1594.837255,15519
1598.090275,15251.2
1601.338945,15246.4
1604.583274,15546.4
1607.823275,15198.8
1611.058959,14714
1614.290338,15255.2
1617.517422,14526.2
1620.740224,14805.6
1623.958755,14541.8
1627.173027,14562
1630.38305,14154.8
1633.588838,14397.8
1636.7904,14345.8
1639.987749,14488
1643.180896,14648.6
1646.369853,13989
1649.554632,14796.8
1652.735244,14140.2
1655.9117,13752.2
1659.084013,14003.8
1662.252193,14694.2
1665.416254,13819
1668.576205,14086.2
1671.732059,14302.8
1674.883828,14354
1678.031523,13705.4
1681.175157,13854
1684.314739,13860.6
1687.450284,13766.4
1690.581801,13663
1693.709304,13457.6
1696.832803,13481.2
1699.952311,13664.2
1703.067839,13565
1706.179399,13597.6
1709.287003,13980.4
1712.390663,13630.4
1715.49039,13654
1718.586197,13872.4
1721.678095,13785
1724.766096,13836.4
1727.850213,13179.8
1730.930456,13504.8
1734.006838,13305.4
1737.079372,13559
1740.148067,13278.8
1743.212938,14242.6
1746.273996,13414.2
1749.331252,13262.8
1752.384718,13332.8
1755.434408,13472.8
1758.480332,13403.2
1761.522503,13320.6
1764.560933,13090.4
1767.595634,12784.8
1770.626618,13533
1773.653896,13451.6
1776.677482,13032.8
1779.697388,12975.2
1782.713625,13665
1785.726205,13425.4
1788.735141,13456.6
1791.740445,13041.4
1794.742129,12979.6
1797.740206,13470
1800.734687,13436.2
1803.725585,13265.8
1806.712912,13155.8
1809.69668,12890.6
1812.676902,13137.4
1815.65359,12806.4
1818.626756,12867.8
1821.596413,13000.4
1824.562573,12625
1827.525247,12954.2
1830.48445,12758.2
1833.440192,12912.8
1836.392487,12789.8
1839.341347,13105.8
1842.286784,13068.6
1845.22881,12627.4
1848.167439,13125.4
1851.102682,12895.6
1854.034553,12897
1856.963063,12713
1859.888226,13536.6
1862.810053,13054.4
1865.728557,12852.8
1868.643751,12546
1871.555648,12643.4
1874.46426,12348.6
1877.369599,12905.4
1880.271679,12844.6
1883.170512,12640.2
1886.06611,13122.2
1888.958487,12837.8
1891.847655,12682
1894.733626,12881
1897.616414,12946.4
1900.496032,12433
1903.372491,12818
1906.245805,12994.6
1909.115987,13046.8
1911.983049,12931
1914.847004,12879.8
1917.707866,13041.6
1920.565646,12911
1923.420359,12568.4
1926.272016,12854.4
1929.120631,12526
1931.966216,12723.4
1934.808786,12662.8
1937.648351,12952.2
1940.484927,12808.6
1943.318525,12925.6
1946.149158,13096.2
1948.97684,14186
1951.801584,13066.8
1954.623403,12872.4
1957.44231,12951.4
1960.258318,12520.6
1963.071439,12484.6
1965.881688,12693.4
1968.689078,12832.2
1971.493621,12628.6
