Ramanshift[cm-1],Intensity
-93.47115107,12978.8
-87.69374369,11816.6
-81.9253076,11649.8
-76.16582701,11713.4
-70.41528615,11819.8
-64.67366933,11505.8
-58.94096086,11509.4
-53.21714512,11724.6
-47.50220652,11907
-41.79612954,11735.4
-36.09889866,12230.8
-30.41049843,12321.4
-24.73091343,12057.4
-19.0601283,12026
-13.39812769,11824
-7.744896327,11568.8
-2.100418946,11379.2
3.535319659,12096
9.162334658,11474.6
14.78064118,11788.2
20.39025432,11517.2
25.99118913,11535.4
31.58346061,11921.4
37.16708375,11736.2
42.74207347,11480.6
48.30844468,11435.2
53.86621222,11331.6
59.41539093,11130.4
64.95599558,10998.2
70.48804091,11380.4
76.01154164,11467.4
81.52651243,10910.2
87.03296792,11462.4
92.5309227,11761.8
98.02039134,11148.6
103.5013884,11328.2
108.9739282,11261.4
114.4380255,11265.6
119.8936944,11356.8
125.3409495,12217.2
130.779805,11179.8
136.2102753,10958.6
141.6323747,11009.6
147.0461174,11514.6
152.4515176,11148.4
157.8485895,11112.8
163.2373472,11057.6
168.6178049,11333.4
173.9899766,11588.6
179.3538764,11101.6
184.7095182,11159.4
190.0569161,11457.6
195.396084,11654
200.7270358,11046.4
206.0497854,11172
211.3643466,10896.8
216.6707333,11284.2
221.9689593,10913.4
227.2590382,11076.8
232.5409839,11037.6
237.8148101,10914.6
243.0805303,11089
248.3381582,11136.4
253.5877075,10993
258.8291917,11119.6
264.0626244,11196.8
269.288019,11395.2
274.5053891,11594.4
279.7147481,11445.8
284.9161094,12070.6
290.1094865,14835.2
295.2948927,23650.4
300.4723414,43815.4
305.6418459,64162
310.8034194,64160.8
315.9570752,64160.8
321.1028267,64160.6
326.2406869,64161
331.370669,64160
336.4927863,64160
341.6070517,64159.6
346.7134786,64159.4
351.8120798,64159.2
356.9028684,64159.8
361.9858576,64159.6
367.0610602,64160.4
372.1284892,64159.4
377.1881577,64160.2
382.2400784,64159.8
387.2842644,64160.6
392.3207284,64159.8
397.3494833,64159
402.370542,64159.4
407.3839172,64160.2
412.3896217,64159.6
417.3876683,64160
422.3780697,64159.4
427.3608386,64160.2
432.3359876,64159.8
437.3035295,64159.6
442.2634769,64160
447.2158423,64160.4
452.1606383,64160.2
457.0978776,64160.4
462.0275727,64159.8
466.9497361,64160.2
471.8643802,64159.6
476.7715176,64159.4
481.6711608,64159.8
486.5633221,64160.4
491.448014,64159.6
496.3252488,64159.6
501.195039,64159.4
506.0573969,64159.8
510.9123349,64159.8
515.7598651,64160.8
520.6,64160.2
525.4327518,64160
530.2581327,64160
535.076155,64160
539.8868309,64160.6
544.6901726,64161.2
549.4861922,64161
554.2749019,64161.2
559.0563139,64161.8
563.8304402,64160.8
568.597293,64161.4
573.3568844,64162
578.1092263,64160.8
582.8543308,64161.2
587.5922101,64160.8
592.322876,64161
597.0463405,64160.4
601.7626157,64161
606.4717135,64161.6
611.1736458,64160.8
615.8684246,64161.2
620.5560617,64161.2
625.2365691,64161.2
629.9099585,64161.6
634.5762419,64161
639.2354312,64161.6
643.887538,64161.6
648.5325743,64161.2
653.1705518,64161.2
657.8014823,64161.4
662.4253775,64161.2
667.0422493,64161.4
671.6521092,64161.6
676.2549691,64161.6
680.8508407,64162.2
685.4397355,64160.8
690.0216654,64161.8
694.5966419,64161.2
699.1646767,64161.2
703.7257814,64161.2
708.2799676,64160.8
712.827247,64161
717.367631,64161.2
721.9011314,64160.8
726.4277595,64161.2
730.9475271,64160.8
735.4604456,64160.8
739.9665264,64160.6
744.4657813,64161.6
748.9582215,64162.2
753.4438587,64162
757.9227042,64162.2
762.3947696,64162.2
766.8600662,64162.2
771.3186056,64162.4
775.770399,64162
780.215458,64162.8
784.6537939,64162.8
789.0854181,64163
793.510342,64162.6
797.9285769,64162.6
802.3401342,64163.4
806.7450253,64163.2
811.1432614,64162.8
815.5348538,64163.2
819.9198139,64163.2
824.2981531,64163
828.6698824,64163.8
833.0350133,64163
837.393557,64163.4
841.7455248,64163
846.0909278,64163
850.4297774,64162.6
854.7620848,64162
859.0878611,64162.4
863.4071176,64162.2
867.7198655,64162.4
872.026116,64161.8
876.3258802,64162.8
880.6191693,64161.2
884.9059946,64161.6
889.186367,64161.6
893.4602979,64162
897.7277982,64162.2
901.9888793,64161.6
906.2435521,64161.8
910.4918277,64162.2
914.7337174,64161.6
918.9692321,64162
923.1983831,64162.6
927.4211813,64161.8
931.6376378,64162.2
935.8477637,64162.6
940.0515701,64161.6
944.249068,64162.4
948.4402684,64162.2
952.6251825,64161.6
956.8038212,64162
960.9761955,64161.8
965.1423166,64162.6
969.3021953,64162.4
973.4558427,64163
977.6032699,64162.6
981.7444877,64162.8
985.8795072,64162
990.0083394,64162.4
994.1309953,64161.8
998.2474857,64161.8
1002.357822,64163.2
1006.462014,64161.8
1010.560075,64163
1014.652013,64162.8
1018.737841,64161.4
1022.81757,64162.2
1026.891209,64161.4
1030.958771,64162.2
1035.020266,64161.2
1039.075705,64161.2
1043.1251,64161.6
1047.16846,64161.4
1051.205797,64161.6
1055.237121,64161.4
1059.262444,64162
1063.281777,64161.6
1067.295131,64161.6
1071.302515,64161.2
1075.303942,64162
1079.299422,64161.2
1083.288966,64162
1087.272585,64161.6
1091.250289,64162
1095.222091,64162.2
1099.187999,64162.2
1103.148026,64162
1107.102183,64162.8
1111.050479,64163
1114.992927,64163.2
1118.929536,64163.6
1122.860318,64163
1126.785283,64163.8
1130.704443,64163.8
1134.617808,64163.4
1138.52539,64164
1142.427198,64163.8
1146.323244,64163.8
1150.213538,64163.4
1154.098093,64163.2
1157.976917,64163.4
1161.850023,64163
1165.717421,64163.4
1169.579121,64163.8
1173.435135,64163.4
1177.285474,64163.6
1181.130148,64163.4
1184.969169,64163.8
1188.802547,64163.6
1192.630292,64162.6
1196.452416,64163.4
1200.26893,64163
1204.079844,64163
1207.88517,64162.2
1211.684917,64162.2
1215.479098,64161.8
1219.267722,64162
1223.050801,64161
1226.828346,64160.4
1230.600366,64160.4
1234.366874,64160.2
1238.12788,64160.4
1241.883395,64160.2
1245.633429,64160.2
1249.377994,64159.6
1253.1171,64159.8
1256.850759,64160.2
1260.578981,64159.8
1264.301776,64161
1268.019157,64160.4
1271.731133,64160.4
1275.437715,64160.8
1279.138915,64160.8
1282.834743,64161
1286.52521,64161
1290.210328,64161.2
1293.890106,64161
1297.564555,64161.8
1301.233688,64162
1304.897514,64162.2
1308.556044,64163.2
1312.209289,64162.8
1315.857261,64163
1319.499969,64163.6
1323.137425,64163.8
1326.769641,64164.8
1330.396626,64164.2
1334.018391,64164.4
1337.634948,64164
1341.246307,64163.8
1344.85248,64163.8
1348.453477,64164
1352.049309,64164.2
1355.639987,64163.4
1359.225522,64164.2
1362.805925,64164
1366.381207,64163.6
1369.951379,64163.6
1373.516452,64162.4
1377.076436,64162.2
1380.631343,64162
1384.181184,64161.6
1387.725969,64161.2
1391.26571,64161.4
1394.800417,64161.2
1398.330102,64161.4
1401.854776,64160.8
1405.374448,64161.4
1408.889132,64161
1412.398837,64160.8
1415.903574,64161.4
1419.403355,64161.2
1422.89819,64161
1426.388091,64160.6
1429.873069,64161.2
1433.353134,64161.6
1436.828298,64161.6
1440.298571,64162
1443.763965,64162
1447.224491,64162.8
1450.68016,64162.6
1454.130983,64163.6
1457.576971,64164
1461.018135,64164
1464.454486,64165
1467.886036,64165
1471.312794,64165.6
1474.734774,64166.6
1478.151985,64166.2
1481.564439,64166.8
1484.972146,64167.8
1488.375119,64168
1491.773368,64167
1495.166904,64168.2
1498.555739,64168.2
1501.939883,64168.8
1505.319349,64168.8
1508.694146,64168.2
1512.064286,64169
1515.429781,64168.8
1518.790642,64168.6
1522.146879,64168.6
1525.498505,64170
1528.845529,64169
1532.187965,64169.4
1535.525822,64171.4
1538.859112,64170.6
1542.187846,64172
1545.512036,64170.4
1548.831693,64172
1552.146829,64177.8
1555.457453,64182
1558.763579,64179.8
1562.065216,64188.6
1565.362377,64213.2
1568.655073,64276.4
1571.943315,64264.2
1575.227114,64067.6
1578.506482,64019.2
1581.781431,63506.4
1585.051971,62491.2
1588.318114,62173.4
1591.579872,61360
1594.837255,60154.8
1598.090275,59430.2
1601.338945,58563.4
1604.583274,58416.6
1607.823275,57429.6
1611.058959,56101.6
1614.290338,55959.4
1617.517422,54420.6
1620.740224,54021.6
1623.958755,53124.2
1627.173027,52113.6
1630.38305,51290.2
1633.588838,50775.8
1636.7904,50327.6
1639.987749,49835.4
1643.180896,49464.4
1646.369853,48251
1649.554632,48464.4
1652.735244,47103.2
1655.9117,46405.4
1659.084013,46046
1662.252193,46540.2
1665.416254,45260.4
1668.576205,45265.2
1671.732059,45075.4
1674.883828,45360.4
1678.031523,43986.2
1681.175157,43739.4
1684.314739,43826.4
1687.450284,43476.4
1690.581801,42806.6
1693.709304,42550.2
1696.832803,42356.2
1699.952311,42363.6
1703.067839,42207.2
1706.179399,41994.4
1709.287003,42040.4
1712.390663,41540.8
1715.49039,41301
1718.586197,41306.8
1721.678095,40897
1724.766096,40840.8
1727.850213,39990.2
1730.930456,39737.6
1734.006838,39767.8
1737.079372,39540
1740.148067,39195.4
1743.212938,39711.8
1746.273996,38801
1749.331252,38584.8
1752.384718,38231.8
1755.434408,37999.6
1758.480332,37791.6
1761.522503,37353.4
1764.560933,37051
1767.595634,36371.4
1770.626618,36875.6
1773.653896,36775.8
1776.677482,36179
1779.697388,36230.8
1782.713625,36636
1785.726205,36476.6
1788.735141,36344
1791.740445,35780.8
1794.742129,35538.2
1797.740206,35921.6
1800.734687,35929.2
1803.725585,36007.4
1806.712912,35667.2
1809.69668,35397.6
1812.676902,35353.8
1815.65359,34790.6
1818.626756,34930.6
1821.596413,34886.2
1824.562573,34405.2
1827.525247,34797.8
1830.48445,34400.2
1833.440192,34567.6
1836.392487,34210
1839.341347,34555
1842.286784,34266.2
1845.22881,33639.4
1848.167439,34146.6
1851.102682,33869.8
1854.034553,33613.4
1856.963063,33609.6
1859.888226,34000.6
1862.810053,33494.4
1865.728557,33308.8
1868.643751,32701.2
1871.555648,32878.8
1874.46426,32217.6
1877.369599,33060.6
1880.271679,32426
1883.170512,32459
1886.06611,32790.6
1888.958487,32602.2
1891.847655,32343.8
1894.733626,32394.6
1897.616414,32368.6
1900.496032,31645
1903.372491,31998.2
1906.245805,31993
1909.115987,32095.6
1911.983049,31731
1914.847004,31591.8
1917.707866,31712.4
1920.565646,31409.4
1923.420359,30943.8
1926.272016,31070.8
1929.120631,30854
1931.966216,30922.2
1934.808786,30819.2
1937.648351,30702.6
1940.484927,30602.8
1943.318525,30501.4
1946.149158,30735.8
1948.97684,31569.2
1951.801584,30454.6
1954.623403,30108.4
1957.44231,30181.6
1960.258318,29628.6
1963.071439,29656.8
1965.881688,29729.6
1968.689078,30011.6
1971.493621,29182.2
