Ramanshift[cm-1],Intensity
-93.47115107,13677.4
-87.69374369,12602.4
-81.9253076,12380.2
-76.16582701,12468
-70.41528615,12473.8
-64.67366933,12172.6
-58.94096086,12346
-53.21714512,12486.8
-47.50220652,12614.6
-41.79612954,12644.2
-36.09889866,13043.6
-30.41049843,13188.2
-24.73091343,12772.2
-19.0601283,12808.8
-13.39812769,12592.6
-7.744896327,12294.6
-2.100418946,12301.2
3.535319659,12894.8
9.162334658,12131.4
14.78064118,12566.6
20.39025432,12139.8
25.99118913,12298.6
31.58346061,12710.6
37.16708375,12547
42.74207347,12284
48.30844468,12243.6
53.86621222,11992.6
59.41539093,11757.6
64.95599558,11697.6
70.48804091,12055
76.01154164,12348.8
81.52651243,11604.6
87.03296792,12183.4
92.5309227,12524.6
98.02039134,11878.8
103.5013884,12093
108.9739282,11899.6
114.4380255,11956
119.8936944,12145.4
125.3409495,12999
130.779805,11888.8
136.2102753,11618.2
141.6323747,11743.4
147.0461174,12386.2
152.4515176,11873.4
157.8485895,11818.2
163.2373472,11722.2
168.6178049,11958.2
173.9899766,12276.8
179.3538764,11784.8
184.7095182,11996
190.0569161,12109.8
195.396084,12344.6
200.7270358,11783.6
206.0497854,11789.4
211.3643466,11489.4
216.6707333,11816.8
221.9689593,11548.2
227.2590382,11759.8
232.5409839,11596.6
237.8148101,11643.8
243.0805303,11747.2
248.3381582,11699.8
253.5877075,11515
258.8291917,11704.6
264.0626244,11876.4
269.288019,12072.8
274.5053891,12226
279.7147481,11873.6
284.9161094,11957.8
290.1094865,12956
295.2948927,16102.6
300.4723414,23354.8
305.6418459,32438.6
310.8034194,40394
315.9570752,45088.8
321.1028267,46010.4
326.2406869,46393.4
331.370669,47351
336.4927863,48477.8
341.6070517,49426.2
346.7134786,50098.4
351.8120798,50717.6
356.9028684,50634.8
361.9858576,50300.6
367.0610602,50595.2
372.1284892,49931.2
377.1881577,50248.2
382.2400784,49989.6
387.2842644,50134.4
392.3207284,50324
397.3494833,50075.4
402.370542,50447.2
407.3839172,49988.8
412.3896217,49136
417.3876683,48715
422.3780697,48874.4
427.3608386,48457.2
432.3359876,48733.2
437.3035295,48358.4
442.2634769,48613.8
447.2158423,47282
452.1606383,47385.4
457.0978776,47202.4
462.0275727,46768.6
466.9497361,47334.6
471.8643802,46556
476.7715176,47372
481.6711608,47487
486.5633221,47788.8
491.448014,47337
496.3252488,47200.2
501.195039,47120.8
506.0573969,47421.6
510.9123349,46593
515.7598651,46163.8
520.6,46457.2
525.4327518,46082.2
530.2581327,45917.4
535.076155,45478.8
539.8868309,45571.2
544.6901726,45419.6
549.4861922,44955.6
554.2749019,45851
559.0563139,45096.8
563.8304402,44701.2
568.597293,45726.8
573.3568844,45242.2
578.1092263,44958
582.8543308,45446.4
587.5922101,45255.6
592.322876,44735.2
597.0463405,44944.2
601.7626157,45257.6
606.4717135,44456.8
611.1736458,44572.2
615.8684246,44409.4
620.5560617,44658.4
625.2365691,44170.6
629.9099585,44658.2
634.5762419,44253
639.2354312,43748.4
643.887538,43591.8
648.5325743,43338.6
653.1705518,43348.4
657.8014823,43379.6
662.4253775,42446.2
667.0422493,42885.4
671.6521092,42821.2
676.2549691,42778
680.8508407,42831.8
685.4397355,42581.2
690.0216654,42826.8
694.5966419,42635.2
699.1646767,43082
703.7257814,42897
708.2799676,42886.4
712.827247,43014.6
717.367631,42557
721.9011314,42755.6
726.4277595,41679.2
730.9475271,42284.6
735.4604456,42296.6
739.9665264,42425
744.4657813,41967.4
748.9582215,41526.8
753.4438587,40795.2
757.9227042,40491.6
762.3947696,40850.6
766.8600662,40107
771.3186056,41153.8
775.770399,39954.6
780.215458,40193.2
784.6537939,39490
789.0854181,39237
793.510342,38912.2
797.9285769,39343
802.3401342,38702
806.7450253,38764
811.1432614,38566.2
815.5348538,38081.8
819.9198139,37659.2
824.2981531,37782
828.6698824,37618
833.0350133,37190.4
837.393557,36687.6
841.7455248,37269.8
846.0909278,36822.2
850.4297774,36995.2
854.7620848,36745
859.0878611,37059.4
863.4071176,36590.4
867.7198655,37105.4
872.026116,37608.6
876.3258802,37535.2
880.6191693,37078
884.9059946,36994.4
889.186367,37518.4
893.4602979,35962.4
897.7277982,35782
901.9888793,36452.2
906.2435521,36885.4
910.4918277,36289.4
914.7337174,36455.8
918.9692321,36231.2
923.1983831,37011.4
927.4211813,36410.6
931.6376378,37098
935.8477637,36507.2
940.0515701,36837.4
944.249068,36851.2
948.4402684,35895.4
952.6251825,36721
956.8038212,36336.6
960.9761955,36921
965.1423166,36182
969.3021953,36553.2
973.4558427,36480
977.6032699,36235
981.7444877,36293.8
985.8795072,36173.2
990.0083394,36182.8
994.1309953,35813.8
998.2474857,36200
1002.357822,35445.6
1006.462014,35961.2
1010.560075,35762.2
1014.652013,35786.2
1018.737841,36132.2
1022.81757,35571.8
1026.891209,35338.6
1030.958771,34979.2
1035.020266,35376.8
1039.075705,35134.6
1043.1251,34762
1047.16846,34890.4
1051.205797,34882.4
1055.237121,34753.8
1059.262444,34738.4
1063.281777,35007.4
1067.295131,35410.8
1071.302515,36681.6
1075.303942,36138.6
1079.299422,36840.4
1083.288966,36144
1087.272585,35539.8
1091.250289,34967.4
1095.222091,35089
1099.187999,34518
1103.148026,34671.6
1107.102183,34486.8
1111.050479,34621.6
1114.992927,34581.8
1118.929536,34609
1122.860318,35242.4
1126.785283,34731.6
1130.704443,35257
1134.617808,36348.8
1138.52539,36645.4
1142.427198,36331
1146.323244,35751.4
1150.213538,34939.2
1154.098093,35068.4
1157.976917,34215
1161.850023,33822.2
1165.717421,34421.8
1169.579121,34085.6
1173.435135,34215.2
1177.285474,33435.8
1181.130148,33501.4
1184.969169,33763.8
1188.802547,33706.8
1192.630292,33310
1196.452416,32967.4
1200.26893,33080.6
1204.079844,32651.2
1207.88517,32026.8
1211.684917,32793
1215.479098,32205.8
1219.267722,33702.2
1223.050801,32222
1226.828346,32209.2
1230.600366,32416.4
1234.366874,32276
1238.12788,32017
1241.883395,32132.6
1245.633429,31944
1249.377994,32350.4
1253.1171,31363.6
1256.850759,32007.6
1260.578981,31765.8
1264.301776,31586.2
1268.019157,31693
1271.731133,31473.8
1275.437715,31333
1279.138915,31483.4
1282.834743,32007.6
1286.52521,31473.4
1290.210328,31238.4
1293.890106,31182.8
1297.564555,31675.4
1301.233688,31060
1304.897514,31393
1308.556044,31681.2
1312.209289,31353.8
1315.857261,30733
1319.499969,30736.8
1323.137425,31508.4
1326.769641,30853.8
1330.396626,31385.8
1334.018391,31083.6
1337.634948,30890.4
1341.246307,30720
1344.85248,30570.6
1348.453477,30392.8
1352.049309,30329.4
1355.639987,30304.2
1359.225522,30952.8
1362.805925,30348.4
1366.381207,30427.4
1369.951379,30416.8
1373.516452,30715.4
1377.076436,30762.6
1380.631343,30805.2
1384.181184,30547.2
1387.725969,30860.4
1391.26571,30447.4
1394.800417,29994
1398.330102,29706
1401.854776,29830.4
1405.374448,29457.4
1408.889132,29025
1412.398837,28925.6
1415.903574,28925
1419.403355,29843.4
1422.89819,29482
1426.388091,29739.8
1429.873069,30138.2
1433.353134,29520.6
1436.828298,29227.6
1440.298571,29068.4
1443.763965,28514.2
1447.224491,28294.8
1450.68016,28285.4
1454.130983,28369.4
1457.576971,28341.8
1461.018135,28385
1464.454486,28279.2
1467.886036,27710.6
1471.312794,27954.6
1474.734774,27363.8
1478.151985,27925.8
1481.564439,27499.8
1484.972146,27175.8
1488.375119,26747.8
1491.773368,26941.4
1495.166904,27524
1498.555739,26733.4
1501.939883,26785.4
1505.319349,26129.8
1508.694146,26698.4
1512.064286,26404.4
1515.429781,26612.8
1518.790642,26166.8
1522.146879,26473.8
1525.498505,25907.8
1528.845529,25916.8
1532.187965,26397
1535.525822,26216.4
1538.859112,25889.8
1542.187846,26687.6
1545.512036,25530.4
1548.831693,26903.2
1552.146829,26195
1555.457453,25741.8
1558.763579,25064
1562.065216,25584.4
1565.362377,25703.2
1568.655073,26004.2
1571.943315,25476.2
1575.227114,25603.4
1578.506482,25157
1581.781431,25676.4
1585.051971,24966
1588.318114,25097.2
1591.579872,24744
1594.837255,24411.4
1598.090275,24094.6
1601.338945,23949.8
1604.583274,24194.2
1607.823275,23720.8
1611.058959,23066.4
1614.290338,23837
1617.517422,22681.8
1620.740224,23129.6
1623.958755,22463.4
1627.173027,22488.4
1630.38305,21859.8
1633.588838,22317.4
1636.7904,21946.4
1639.987749,22046
1643.180896,22089.4
1646.369853,21408.2
1649.554632,22120.8
1652.735244,21389.4
1655.9117,20871
1659.084013,21174
1662.252193,21769.2
1665.416254,20877.2
1668.576205,21006.6
1671.732059,21178.8
1674.883828,21197.6
1678.031523,20643.6
1681.175157,20693.8
1684.314739,20750.8
1687.450284,20523.8
1690.581801,20375.8
1693.709304,20192
1696.832803,20084.6
1699.952311,20382.6
1703.067839,20203.2
1706.179399,20293.8
1709.287003,20614.4
1712.390663,20061
1715.49039,20001.4
1718.586197,20409.6
1721.678095,20273.2
1724.766096,20153.2
1727.850213,19352.8
1730.930456,19772
1734.006838,19499.2
1737.079372,19807.2
1740.148067,19360.6
1743.212938,20278.8
1746.273996,19463
1749.331252,19351.8
1752.384718,19195
1755.434408,19342.8
1758.480332,19124
1761.522503,19105.2
1764.560933,18867.2
1767.595634,18466.2
1770.626618,19169.2
1773.653896,19133.2
1776.677482,18690
1779.697388,18481.6
1782.713625,19155.2
1785.726205,18969
1788.735141,19156.6
1791.740445,18471.4
1794.742129,18344.6
1797.740206,18798.4
1800.734687,18821.4
1803.725585,18668.2
1806.712912,18484.6
1809.69668,18305
1812.676902,18314.2
1815.65359,18056
1818.626756,18059.8
1821.596413,18341
1824.562573,17877.2
1827.525247,18150.4
1830.48445,18121.2
1833.440192,18159.8
1836.392487,17999.8
1839.341347,18074.2
1842.286784,18233.4
1845.22881,17503.6
1848.167439,18226.4
1851.102682,17887.8
1854.034553,17918.2
1856.963063,17739.6
1859.888226,18576.2
1862.810053,17938.8
1865.728557,17716.8
1868.643751,17586.6
1871.555648,17484.8
1874.46426,17225
1877.369599,17740
1880.271679,17624.8
1883.170512,17486.4
1886.06611,17830.4
1888.958487,17542.8
1891.847655,17530.4
1894.733626,17697.4
1897.616414,17626.2
1900.496032,17123.6
1903.372491,17417.2
1906.245805,17634.8
1909.115987,17633.4
1911.983049,17621.4
1914.847004,17541
1917.707866,17443.2
1920.565646,17509.4
1923.420359,16927.4
1926.272016,17313.8
1929.120631,17046.6
1931.966216,17132
1934.808786,16997
1937.648351,17204.6
1940.484927,17129.2
1943.318525,17172.4
1946.149158,17389.2
1948.97684,18337.2
1951.801584,17294.2
1954.623403,17038
1957.44231,17102.4
1960.258318,16644.2
1963.071439,16698.2
1965.881688,16862.6
1968.689078,16948.6
1971.493621,16627.8
