Ramanshift[cm-1],Intensity
-93.47115107,12140.4
-87.69374369,11004.4
-81.9253076,10869
-76.16582701,10963.2
-70.41528615,11053.8
-64.67366933,10741.8
-58.94096086,10766
-53.21714512,10909.8
-47.50220652,11063.2
-41.79612954,11037
-36.09889866,11378.8
-30.41049843,11496.4
-24.73091343,11175.2
-19.0601283,11253.6
-13.39812769,11043.6
-7.744896327,10813.4
-2.100418946,10734
3.535319659,11274.2
9.162334658,10613.8
14.78064118,10988.4
20.39025432,10698.4
25.99118913,10714.8
31.58346061,11211.4
37.16708375,10927.2
42.74207347,10702.6
48.30844468,10736
53.86621222,10652.2
59.41539093,10401
64.95599558,10293.2
70.48804091,10638.2
76.01154164,10815.8
81.52651243,10237
87.03296792,10719.2
92.5309227,10955.6
98.02039134,10391.6
103.5013884,10651.8
108.9739282,10454.2
114.4380255,10528.2
119.8936944,10724.6
125.3409495,11337.6
130.779805,10452.6
136.2102753,10198.4
141.6323747,10265.8
147.0461174,10827.8
152.4515176,10467.6
157.8485895,10425.8
163.2373472,10343.8
168.6178049,10610.4
173.9899766,10859.8
179.3538764,10459.8
184.7095182,10477.8
190.0569161,10721.2
195.396084,10811.6
200.7270358,10399.4
206.0497854,10390.8
211.3643466,10150.4
216.6707333,10520.8
221.9689593,10182.2
227.2590382,10447.2
232.5409839,10329.6
237.8148101,10167.8
243.0805303,10369.6
248.3381582,10365.8
253.5877075,10231.2
258.8291917,10252.8
264.0626244,10491
269.288019,10596.6
274.5053891,10765.6
279.7147481,10689.2
284.9161094,10971.6
290.1094865,12885.8
295.2948927,18799.4
300.4723414,32142.8
305.6418459,49886.4
310.8034194,63533.2
315.9570752,64162.2
321.1028267,64162.2
326.2406869,64162.2
331.370669,64161.6
336.4927863,64161.2
341.6070517,64161.8
346.7134786,64161.4
351.8120798,64162.6
356.9028684,64162.2
361.9858576,64162.2
367.0610602,64162.4
372.1284892,64162
377.1881577,64161.6
382.2400784,64160.4
387.2842644,64160.8
392.3207284,64161
397.3494833,64161.6
402.370542,64160.8
407.3839172,64161
412.3896217,64160.8
417.3876683,64160.8
422.3780697,64161
427.3608386,64161.2
432.3359876,64161.2
437.3035295,64161.2
442.2634769,64161.2
447.2158423,64161.2
452.1606383,64161.4
457.0978776,64161.2
462.0275727,64161.6
466.9497361,64162.4
471.8643802,64161.8
476.7715176,64162.4
481.6711608,64161.6
486.5633221,64162
491.448014,64162
496.3252488,64162.6
501.195039,64162.8
506.0573969,64163.4
510.9123349,64162.2
515.7598651,64163
520.6,64163.2
525.4327518,64163
530.2581327,64163.2
535.076155,64162.2
539.8868309,64162.6
544.6901726,64163.2
549.4861922,64163.6
554.2749019,64164
559.0563139,64164.6
563.8304402,64164
568.597293,64163.2
573.3568844,64164.2
578.1092263,64163.8
582.8543308,64163.6
587.5922101,64164.4
592.322876,64164.2
597.0463405,64164
601.7626157,64164.4
606.4717135,64164.8
611.1736458,64164.8
615.8684246,64164.8
620.5560617,64165
625.2365691,64162.8
629.9099585,64163.2
634.5762419,64162.8
639.2354312,64163.8
643.887538,64165.6
648.5325743,64167
653.1705518,64171.2
657.8014823,64176
662.4253775,64179.6
667.0422493,64186.8
671.6521092,64187.8
676.2549691,64191.4
680.8508407,64202.6
685.4397355,64157.8
690.0216654,64173.6
694.5966419,64169.6
699.1646767,64167.6
703.7257814,64167.8
708.2799676,64168.6
712.827247,64175.8
717.367631,64194.8
721.9011314,64242.8
726.4277595,64118.4
730.9475271,64044.8
735.4604456,63864.2
739.9665264,63899.4
744.4657813,63908.8
748.9582215,63477.6
753.4438587,62843.2
757.9227042,62263
762.3947696,62629.2
766.8600662,61414
771.3186056,62562.6
775.770399,61764.6
780.215458,61520.8
784.6537939,60662.4
789.0854181,61053.2
793.510342,61031
797.9285769,61712.4
802.3401342,61648.2
806.7450253,62247.6
811.1432614,62114.2
815.5348538,61943.2
819.9198139,60798.6
824.2981531,60510.8
828.6698824,59808.8
833.0350133,58797.8
837.393557,58059.4
841.7455248,58542.4
846.0909278,57582.8
850.4297774,57731.8
854.7620848,57944
859.0878611,57957.8
863.4071176,57312.2
867.7198655,57666.8
872.026116,57803.2
876.3258802,57721
880.6191693,57177
884.9059946,56905
889.186367,57329.4
893.4602979,56056.2
897.7277982,55858.4
901.9888793,56858.8
906.2435521,57746.8
910.4918277,57727
914.7337174,58503.6
918.9692321,58791
923.1983831,59052.6
927.4211813,58516.8
931.6376378,59300.2
935.8477637,58984.4
940.0515701,59709.2
944.249068,60090.4
948.4402684,58852.8
952.6251825,59696.2
956.8038212,59786.4
960.9761955,59942.6
965.1423166,59709.8
969.3021953,59759.6
973.4558427,59674.6
977.6032699,59784.2
981.7444877,59384.8
985.8795072,59534.2
990.0083394,59870.4
994.1309953,59922.2
998.2474857,62495.2
1002.357822,63435.4
1006.462014,64283.4
1010.560075,63671.6
1014.652013,61074.4
1018.737841,59897.6
1022.81757,58737.6
1026.891209,58122.4
1030.958771,57857.4
1035.020266,58534.6
1039.075705,58563.6
1043.1251,58926.4
1047.16846,60177
1051.205797,61671.4
1055.237121,63781.4
1059.262444,64164.4
1063.281777,64161.6
1067.295131,64159
1071.302515,64156.2
1075.303942,64154.2
1079.299422,64156.4
1083.288966,64163.8
1087.272585,64186.8
1091.250289,64254.8
1095.222091,64401.8
1099.187999,62523.2
1103.148026,61754.2
1107.102183,62301.4
1111.050479,62650.6
1114.992927,63733.6
1118.929536,64166.6
1122.860318,64163.2
1126.785283,64161.4
1130.704443,64160.8
1134.617808,64160.2
1138.52539,64159.4
1142.427198,64161.2
1146.323244,64162
1150.213538,64163.2
1154.098093,64164.4
1157.976917,64165.2
1161.850023,64164.4
1165.717421,64162.6
1169.579121,64161.6
1173.435135,64160
1177.285474,64159.8
1181.130148,64164.6
1184.969169,64180.6
1188.802547,64229.6
1192.630292,64370
1196.452416,63560.2
1200.26893,62077.2
1204.079844,61021.8
1207.88517,60124.2
1211.684917,60558.4
1215.479098,59812.8
1219.267722,61607
1223.050801,59690
1226.828346,59533.6
1230.600366,59391.8
1234.366874,58789.4
1238.12788,58518.2
1241.883395,58430.6
1245.633429,57915.2
1249.377994,58217.2
1253.1171,57937.6
1256.850759,57822.2
1260.578981,57629.2
1264.301776,57528.6
1268.019157,57315.2
1271.731133,56720
1275.437715,56825.6
1279.138915,57070
1282.834743,57518.8
1286.52521,57236.2
1290.210328,57958.4
1293.890106,58758.2
1297.564555,59930
1301.233688,59488.4
1304.897514,59572.4
1308.556044,59457.6
1312.209289,59056.2
1315.857261,58447.4
1319.499969,58160.6
1323.137425,59128.6
1326.769641,58143
1330.396626,58995.6
1334.018391,58866.2
1337.634948,58882.6
1341.246307,59153
1344.85248,59014.4
1348.453477,59455.4
1352.049309,59056.2
1355.639987,59477.6
1359.225522,60002.6
1362.805925,59441.4
1366.381207,59475.4
1369.951379,60697.2
1373.516452,61363.8
1377.076436,62677
1380.631343,64165.6
1384.181184,64163.6
1387.725969,64180.2
1391.26571,64236
1394.800417,64399
1398.330102,62577.8
1401.854776,59430
1405.374448,57377.8
1408.889132,56798.2
1412.398837,56849.2
1415.903574,58396.6
1419.403355,62193.2
1422.89819,64044.6
1426.388091,64157.2
1429.873069,64155.4
1433.353134,64154.8
1436.828298,64158.8
1440.298571,64173.4
1443.763965,64221.4
1447.224491,64366.8
1450.68016,63715
1454.130983,60131.6
1457.576971,57463.4
1461.018135,56497
1464.454486,56308.6
1467.886036,55927.4
1471.312794,56501.4
1474.734774,55032.4
1478.151985,54269.4
1481.564439,52986.8
1484.972146,52283.6
1488.375119,51296
1491.773368,51760.4
1495.166904,51142.4
1498.555739,50457.4
1501.939883,50210
1505.319349,49914.2
1508.694146,50146.2
1512.064286,50547.4
1515.429781,50254
1518.790642,50444.8
1522.146879,50712.2
1525.498505,50753
1528.845529,50957
1532.187965,52573
1535.525822,52931.2
1538.859112,53634.6
1542.187846,55410.6
1545.512036,55736.6
1548.831693,57716
1552.146829,58214
1555.457453,59123.4
1558.763579,59168.4
1562.065216,60520.2
1565.362377,61526.6
1568.655073,62095.8
1571.943315,62625.8
1575.227114,62388
1578.506482,62120.8
1581.781431,61376.2
1585.051971,59918.4
1588.318114,59013.6
1591.579872,56801
1594.837255,53603.4
1598.090275,50205.2
1601.338945,47423.6
1604.583274,45284.4
1607.823275,43468
1611.058959,41925
1614.290338,41732.2
1617.517422,40086.4
1620.740224,39656.2
1623.958755,38402.8
1627.173027,37670.6
1630.38305,36685.6
1633.588838,36423.8
1636.7904,35674.6
1639.987749,35391.4
1643.180896,34732.4
1646.369853,33587.2
1649.554632,34074.6
1652.735244,32812
1655.9117,32252.8
1659.084013,32073.6
1662.252193,32392.6
1665.416254,31509
1668.576205,31354.6
1671.732059,31271.4
1674.883828,31368.6
1678.031523,30498
1681.175157,30437.4
1684.314739,30281
1687.450284,30158.8
1690.581801,29677.6
1693.709304,29381.6
1696.832803,29337.4
1699.952311,29476
1703.067839,29140.2
1706.179399,29281
1709.287003,29369.8
1712.390663,28680.4
1715.49039,28763.6
1718.586197,28931.4
1721.678095,28517.4
1724.766096,28486.4
1727.850213,27677
1730.930456,27772.6
1734.006838,27645
1737.079372,27562.2
1740.148067,27154.4
1743.212938,27870
1746.273996,26888.4
1749.331252,26747.8
1752.384718,26695
1755.434408,26477
1758.480332,26373
1761.522503,26112
1764.560933,25800.8
1767.595634,25329.6
1770.626618,25870.6
1773.653896,25854
1776.677482,25280.2
1779.697388,25446.8
1782.713625,25867.2
1785.726205,25818.6
1788.735141,25515.4
1791.740445,25313.8
1794.742129,24942
1797.740206,25511.2
1800.734687,25238.4
1803.725585,25259.6
1806.712912,25075.2
1809.69668,24837.6
1812.676902,24826.6
1815.65359,24557.4
1818.626756,24760.4
1821.596413,24548.2
1824.562573,24302
1827.525247,24460.8
1830.48445,24280
1833.440192,24187
1836.392487,24180.8
1839.341347,24326
1842.286784,24291.8
1845.22881,23695.6
1848.167439,24107
1851.102682,24032.8
1854.034553,23829.6
1856.963063,23832
1859.888226,24360
1862.810053,23890.2
1865.728557,23631.6
1868.643751,23331
1871.555648,23510.2
1874.46426,22966.4
1877.369599,23402.6
1880.271679,23280.6
1883.170512,23150.4
1886.06611,23378
1888.958487,23212.2
1891.847655,22985.4
1894.733626,23232.4
1897.616414,23123.6
1900.496032,22528.8
1903.372491,22891.2
1906.245805,23084.8
1909.115987,23080.8
1911.983049,22835.2
1914.847004,22777.4
1917.707866,22761.6
1920.565646,22736
1923.420359,22179
1926.272016,22340.2
1929.120631,22317.8
1931.966216,22014.8
1934.808786,22190.4
1937.648351,22271.2
1940.484927,22119.2
1943.318525,22182.2
1946.149158,22255
1948.97684,23214.8
1951.801584,21956
1954.623403,21909.2
1957.44231,21890.4
1960.258318,21562.8
1963.071439,21305.2
1965.881688,21542
1968.689078,21727
1971.493621,21305.4
