Ramanshift[cm-1],Intensity
-93.47115107,12707.6
-87.69374369,11480.6
-81.9253076,11451
-76.16582701,11518.8
-70.41528615,11469
-64.67366933,11296.2
-58.94096086,11290
-53.21714512,11515.2
-47.50220652,11654.4
-41.79612954,11562.6
-36.09889866,12169.8
-30.41049843,12096.6
-24.73091343,11693.4
-19.0601283,11778
-13.39812769,11649.2
-7.744896327,11256.2
-2.100418946,11230.4
3.535319659,11814.6
9.162334658,11192
14.78064118,11468.6
20.39025432,11239.8
25.99118913,11251.2
31.58346061,11758
37.16708375,11530.6
42.74207347,11195.2
48.30844468,11191.4
53.86621222,11122.4
59.41539093,10826
64.95599558,10907.2
70.48804091,11193.2
76.01154164,11305.4
81.52651243,10794.2
87.03296792,11295.2
92.5309227,11547.2
98.02039134,10875
103.5013884,11126.6
108.9739282,11061.8
114.4380255,11014.8
119.8936944,11163.4
125.3409495,12067.6
130.779805,10968
136.2102753,10674.4
141.6323747,10794.6
147.0461174,11357.2
152.4515176,10966.2
157.8485895,10954.2
163.2373472,10825
168.6178049,11063.6
173.9899766,11446
179.3538764,10971
184.7095182,11026.6
190.0569161,11188.6
195.396084,11353
200.7270358,10928.2
206.0497854,10879.2
211.3643466,10616
216.6707333,11043
221.9689593,10680
227.2590382,10835
232.5409839,10898
237.8148101,10798.8
243.0805303,10967.8
248.3381582,10852.4
253.5877075,10816.6
258.8291917,10909.8
264.0626244,10991.2
269.288019,11220.6
274.5053891,11350.8
279.7147481,11254.2
284.9161094,11870.4
290.1094865,14557.8
295.2948927,23208.6
300.4723414,42868.4
305.6418459,64162.8
310.8034194,64161.8
315.9570752,64160.2
321.1028267,64160.6
326.2406869,64159.6
331.370669,64159.8
336.4927863,64160.2
341.6070517,64159.2
346.7134786,64159.2
351.8120798,64158.8
356.9028684,64159.6
361.9858576,64159.4
367.0610602,64159.4
372.1284892,64159
377.1881577,64159
382.2400784,64159
387.2842644,64158.8
392.3207284,64158.6
397.3494833,64159
402.370542,64158.8
407.3839172,64159
412.3896217,64158.8
417.3876683,64159.6
422.3780697,64159.4
427.3608386,64159.8
432.3359876,64160.2
437.3035295,64159.8
442.2634769,64159.8
447.2158423,64160.4
452.1606383,64160.2
457.0978776,64160.6
462.0275727,64160
466.9497361,64160.6
471.8643802,64160.4
476.7715176,64160
481.6711608,64159.8
486.5633221,64160
491.448014,64160.2
496.3252488,64160.4
501.195039,64161
506.0573969,64159.4
510.9123349,64161
515.7598651,64160.8
520.6,64161.4
525.4327518,64161.2
530.2581327,64161.2
535.076155,64161.4
539.8868309,64161.4
544.6901726,64161.2
549.4861922,64161
554.2749019,64160.6
559.0563139,64161
563.8304402,64161.6
568.597293,64161
573.3568844,64160.8
578.1092263,64161.2
582.8543308,64161
587.5922101,64161.4
592.322876,64162
597.0463405,64161.8
601.7626157,64161.4
606.4717135,64162
611.1736458,64161.6
615.8684246,64162
620.5560617,64161.8
625.2365691,64161
629.9099585,64161.8
634.5762419,64162.6
639.2354312,64162.2
643.887538,64161.4
648.5325743,64162.2
653.1705518,64162.4
657.8014823,64162.6
662.4253775,64162.6
667.0422493,64163.2
671.6521092,64163
676.2549691,64163
680.8508407,64162.6
685.4397355,64162.6
690.0216654,64161.8
694.5966419,64162.2
699.1646767,64162
703.7257814,64161.8
708.2799676,64162
712.827247,64161.8
717.367631,64161.2
721.9011314,64161.4
726.4277595,64161.8
730.9475271,64161.4
735.4604456,64160.6
739.9665264,64161.2
744.4657813,64160.8
748.9582215,64160.8
753.4438587,64161.2
757.9227042,64160.8
762.3947696,64161.2
766.8600662,64160.8
771.3186056,64160.8
775.770399,64160.8
780.215458,64161.4
784.6537939,64162.2
789.0854181,64160.8
793.510342,64161
797.9285769,64161.6
802.3401342,64161.6
806.7450253,64161.6
811.1432614,64161.8
815.5348538,64162
819.9198139,64162
824.2981531,64160.8
828.6698824,64162.2
833.0350133,64162
837.393557,64162.4
841.7455248,64161.6
846.0909278,64162
850.4297774,64161.8
854.7620848,64162.2
859.0878611,64162.6
863.4071176,64162.6
867.7198655,64162
872.026116,64162
876.3258802,64161.6
880.6191693,64161.6
884.9059946,64161.8
889.186367,64162.2
893.4602979,64161.6
897.7277982,64161.6
901.9888793,64162
906.2435521,64161.8
910.4918277,64160.6
914.7337174,64161
918.9692321,64161
923.1983831,64161
927.4211813,64161
931.6376378,64161.2
935.8477637,64161
940.0515701,64161.4
944.249068,64160.8
948.4402684,64161
952.6251825,64160.8
956.8038212,64160.4
960.9761955,64161.6
965.1423166,64161.4
969.3021953,64161.4
973.4558427,64161.6
977.6032699,64161.6
981.7444877,64161.4
985.8795072,64161.2
990.0083394,64162.2
994.1309953,64162.2
998.2474857,64161.4
1002.357822,64161.8
1006.462014,64162.4
1010.560075,64161.4
1014.652013,64161
1018.737841,64161.6
1022.81757,64161.4
1026.891209,64161.4
1030.958771,64161.6
1035.020266,64161.4
1039.075705,64162
1043.1251,64162.4
1047.16846,64162.8
1051.205797,64162.2
1055.237121,64161.8
1059.262444,64161.6
1063.281777,64161
1067.295131,64159.4
1071.302515,64159.2
1075.303942,64159.4
1079.299422,64160
1083.288966,64161
1087.272585,64160.8
1091.250289,64160.8
1095.222091,64161.2
1099.187999,64162.2
1103.148026,64162.2
1107.102183,64162.2
1111.050479,64163.6
1114.992927,64163.2
1118.929536,64163.6
1122.860318,64163.4
1126.785283,64163
1130.704443,64162
1134.617808,64161.8
1138.52539,64161.8
1142.427198,64162.6
1146.323244,64163
1150.213538,64163.4
1154.098093,64162.8
1157.976917,64163.6
1161.850023,64163.6
1165.717421,64163
1169.579121,64163.2
1173.435135,64163.2
1177.285474,64163.2
1181.130148,64161.8
1184.969169,64161.8
1188.802547,64162
1192.630292,64161.6
1196.452416,64162
1200.26893,64162
1204.079844,64161
1207.88517,64161.8
1211.684917,64161.4
1215.479098,64160.8
1219.267722,64160.6
1223.050801,64160
1226.828346,64160.2
1230.600366,64161.6
1234.366874,64160.4
1238.12788,64160.6
1241.883395,64160.2
1245.633429,64160.4
1249.377994,64160.6
1253.1171,64160.8
1256.850759,64160.8
1260.578981,64161
1264.301776,64160.8
1268.019157,64161.8
1271.731133,64161
1275.437715,64161.6
1279.138915,64162
1282.834743,64161.8
1286.52521,64162.4
1290.210328,64162.8
1293.890106,64162.6
1297.564555,64163.6
1301.233688,64162.6
1304.897514,64163.2
1308.556044,64164
1312.209289,64164.4
1315.857261,64164.4
1319.499969,64164.6
1323.137425,64164.8
1326.769641,64164.6
1330.396626,64165.2
1334.018391,64165.2
1337.634948,64164.8
1341.246307,64164.8
1344.85248,64165.2
1348.453477,64164.6
1352.049309,64165
1355.639987,64164.6
1359.225522,64164.2
1362.805925,64164.2
1366.381207,64164
1369.951379,64163.8
1373.516452,64163.6
1377.076436,64162.2
1380.631343,64161.8
1384.181184,64161.4
1387.725969,64161
1391.26571,64160.8
1394.800417,64160.8
1398.330102,64161.6
1401.854776,64161.6
1405.374448,64161.8
1408.889132,64162.2
1412.398837,64161.4
1415.903574,64161.4
1419.403355,64161.4
1422.89819,64159.8
1426.388091,64159.8
1429.873069,64159.4
1433.353134,64159.8
1436.828298,64160.4
1440.298571,64160.2
1443.763965,64161.2
1447.224491,64162
1450.68016,64161.6
1454.130983,64163
1457.576971,64162.6
1461.018135,64163.4
1464.454486,64162.6
1467.886036,64163.4
1471.312794,64164.6
1474.734774,64164.2
1478.151985,64166
1481.564439,64169.6
1484.972146,64172.4
1488.375119,64173.8
1491.773368,64175.8
1495.166904,64179.8
1498.555739,64183.6
1501.939883,64192.2
1505.319349,64192.6
1508.694146,64192.6
1512.064286,64196.8
1515.429781,64205.8
1518.790642,64213.6
1522.146879,64250
1525.498505,64232.6
1528.845529,64119.6
1532.187965,64209.8
1535.525822,64219.4
1538.859112,64191.8
1542.187846,64194
1545.512036,64186.4
1548.831693,64182.4
1552.146829,64181
1555.457453,64180.2
1558.763579,64172.2
1562.065216,64165.8
1565.362377,64162.4
1568.655073,64159.6
1571.943315,64158
1575.227114,64161.2
1578.506482,64170.8
1581.781431,64199.6
1585.051971,64266.6
1588.318114,64389
1591.579872,63286.6
1594.837255,60557
1598.090275,58497
1601.338945,56666.2
1604.583274,55998.4
1607.823275,54643.4
1611.058959,53405
1614.290338,53411.8
1617.517422,51726.2
1620.740224,51182.8
1623.958755,50339.2
1627.173027,49373.2
1630.38305,48372.8
1633.588838,47777.4
1636.7904,47458.4
1639.987749,46903.4
1643.180896,46407.8
1646.369853,45166.8
1649.554632,45773.8
1652.735244,44381.2
1655.9117,43351
1659.084013,43252.2
1662.252193,43565.4
1665.416254,42640.8
1668.576205,42546
1671.732059,42457
1674.883828,42310.4
1678.031523,41312.6
1681.175157,41161
1684.314739,41103.4
1687.450284,40545.4
1690.581801,40235.4
1693.709304,39864.4
1696.832803,39659
1699.952311,39753.8
1703.067839,39460.6
1706.179399,39291
1709.287003,39380.6
1712.390663,38850
1715.49039,39020
1718.586197,38751.4
1721.678095,38435.2
1724.766096,38168.6
1727.850213,37500
1730.930456,37353.8
1734.006838,37267
1737.079372,37046.2
1740.148067,36537.2
1743.212938,37306.2
1746.273996,36283.2
1749.331252,36131.6
1752.384718,35804.6
1755.434408,35589.2
1758.480332,35387.4
1761.522503,34913.2
1764.560933,34663.4
1767.595634,33992.8
1770.626618,34639.4
1773.653896,34430.4
1776.677482,33714.4
1779.697388,33783.2
1782.713625,34427.4
1785.726205,34142.4
1788.735141,33997
1791.740445,33482.2
1794.742129,33277.4
1797.740206,33767.8
1800.734687,33657.4
1803.725585,33530
1806.712912,33144.6
1809.69668,33031
1812.676902,33074.8
1815.65359,32597.4
1818.626756,32749
1821.596413,32676.2
1824.562573,32102.2
1827.525247,32498.8
1830.48445,32108.8
1833.440192,32197.8
1836.392487,32021
1839.341347,32054.4
1842.286784,32121.4
1845.22881,31521
1848.167439,32041.4
1851.102682,31864.6
1854.034553,31401.4
1856.963063,31415.4
1859.888226,32006.8
1862.810053,31386.8
1865.728557,31120.6
1868.643751,30801.8
1871.555648,30966.4
1874.46426,30206.6
1877.369599,30924.8
1880.271679,30360
1883.170512,30520.2
1886.06611,30800.4
1888.958487,30445.2
1891.847655,30159
1894.733626,30477
1897.616414,30308.8
1900.496032,29778.4
1903.372491,30019.2
1906.245805,30267.2
1909.115987,30138
1911.983049,29884.6
1914.847004,29856.6
1917.707866,29763.6
1920.565646,29674.4
1923.420359,29189.8
1926.272016,29167.2
1929.120631,29092.2
1931.966216,29029.6
1934.808786,28982.6
1937.648351,29038.4
1940.484927,28676.4
1943.318525,28527.2
1946.149158,28958.8
1948.97684,29585.8
1951.801584,28430.4
1954.623403,28374.4
1957.44231,28552.2
1960.258318,27809.8
1963.071439,28081.4
1965.881688,28106
1968.689078,28295.2
1971.493621,27498.6
