Ramanshift[cm-1],Intensity
-93.47115107,14256.8
-87.69374369,12931
-81.9253076,12738.2
-76.16582701,12910.8
-70.41528615,13039
-64.67366933,12646
-58.94096086,12701.2
-53.21714512,12926.4
-47.50220652,13118.8
-41.79612954,13035.4
-36.09889866,13530.2
-30.41049843,13548.2
-24.73091343,13155.8
-19.0601283,13324
-13.39812769,13039.2
-7.744896327,12803.6
-2.100418946,12538
3.535319659,13208.2
9.162334658,12586.6
14.78064118,12990.6
20.39025432,12597
25.99118913,12646.4
31.58346061,13123.2
37.16708375,13013.6
42.74207347,12558.6
48.30844468,12610
53.86621222,12546.2
59.41539093,12147.6
64.95599558,12200.2
70.48804091,12579
76.01154164,12657.6
81.52651243,11997.2
87.03296792,12625.6
92.5309227,12842
98.02039134,12225.4
103.5013884,12536.4
108.9739282,12357.4
114.4380255,12423.4
119.8936944,12517.4
125.3409495,13427
130.779805,12185.2
136.2102753,12034.8
141.6323747,12091.8
147.0461174,12660.4
152.4515176,12311
157.8485895,12209
163.2373472,12088.8
168.6178049,12437.4
173.9899766,12728.2
179.3538764,12290
184.7095182,12370
190.0569161,12456.2
195.396084,12720.8
200.7270358,12102.4
206.0497854,12213.6
211.3643466,11935.4
216.6707333,12307.8
221.9689593,11877
227.2590382,12083
232.5409839,12097.6
237.8148101,11941.4
243.0805303,12150.2
248.3381582,12141.4
253.5877075,11961
258.8291917,12068.8
264.0626244,12246
269.288019,12434.6
274.5053891,12596.8
279.7147481,12380.4
284.9161094,12656.2
290.1094865,14552.8
295.2948927,19930.4
300.4723414,32503.8
305.6418459,48795.6
310.8034194,62613.2
315.9570752,64163.8
321.1028267,64163.4
326.2406869,64163.4
331.370669,64163.4
336.4927863,64163
341.6070517,64163.4
346.7134786,64162.8
351.8120798,64163
356.9028684,64163.8
361.9858576,64163.8
367.0610602,64164.2
372.1284892,64164.8
377.1881577,64164.6
382.2400784,64164.2
387.2842644,64164.6
392.3207284,64164.6
397.3494833,64164.6
402.370542,64164.4
407.3839172,64164.6
412.3896217,64164
417.3876683,64164.2
422.3780697,64163.8
427.3608386,64164.6
432.3359876,64164
437.3035295,64163.6
442.2634769,64164.6
447.2158423,64164.2
452.1606383,64164.2
457.0978776,64164
462.0275727,64163.8
466.9497361,64163.8
471.8643802,64163.4
476.7715176,64163.8
481.6711608,64164
486.5633221,64163.8
491.448014,64163.4
496.3252488,64163.8
501.195039,64163
506.0573969,64163.4
510.9123349,64163.2
515.7598651,64163.2
520.6,64163.4
525.4327518,64163.4
530.2581327,64163
535.076155,64163.8
539.8868309,64163.8
544.6901726,64163.6
549.4861922,64164
554.2749019,64164.4
559.0563139,64164.4
563.8304402,64164
568.597293,64165
573.3568844,64164
578.1092263,64164.4
582.8543308,64164.4
587.5922101,64164.6
592.322876,64164.6
597.0463405,64164.4
601.7626157,64165
606.4717135,64165
611.1736458,64165.4
615.8684246,64165.2
620.5560617,64165
625.2365691,64165.6
629.9099585,64165.6
634.5762419,64166.4
639.2354312,64166.4
643.887538,64167
648.5325743,64166.2
653.1705518,64167
657.8014823,64167.2
662.4253775,64167.2
667.0422493,64167.6
671.6521092,64167.8
676.2549691,64168.6
680.8508407,64168.4
685.4397355,64169
690.0216654,64168.2
694.5966419,64167.4
699.1646767,64167.6
703.7257814,64168.2
708.2799676,64167.8
712.827247,64169
717.367631,64169
721.9011314,64171.4
726.4277595,64171.6
730.9475271,64172.8
735.4604456,64175.2
739.9665264,64187.2
744.4657813,64217
748.9582215,64230.4
753.4438587,64154.8
757.9227042,64015.6
762.3947696,63994.2
766.8600662,63282.8
771.3186056,64244.2
775.770399,63310.2
780.215458,62959.4
784.6537939,62080.2
789.0854181,62247.4
793.510342,61608.8
797.9285769,61742
802.3401342,61164.8
806.7450253,61174.2
811.1432614,60762.8
815.5348538,60177.2
819.9198139,59526.4
824.2981531,59500.2
828.6698824,59073.4
833.0350133,58298.4
837.393557,57965.8
841.7455248,58508.2
846.0909278,57790
850.4297774,58282
854.7620848,58242
859.0878611,58466.4
863.4071176,57878.6
867.7198655,58303.8
872.026116,58539.4
876.3258802,58545.2
880.6191693,57865.4
884.9059946,57575.8
889.186367,57768.2
893.4602979,56358.4
897.7277982,56248.2
901.9888793,56780
906.2435521,57365
910.4918277,56848.8
914.7337174,56871
918.9692321,56864
923.1983831,57350.2
927.4211813,56575.6
931.6376378,57386.2
935.8477637,56856
940.0515701,57217.2
944.249068,57273.8
948.4402684,56050.6
952.6251825,56792.2
956.8038212,56585.4
960.9761955,57185.2
965.1423166,56611
969.3021953,56459.8
973.4558427,56711.8
977.6032699,56515.8
981.7444877,56129.6
985.8795072,56274
990.0083394,56100.6
994.1309953,55578.4
998.2474857,56432.8
1002.357822,54969.4
1006.462014,55651.4
1010.560075,55302.8
1014.652013,55271.8
1018.737841,55623.4
1022.81757,55100
1026.891209,54667.8
1030.958771,54116.8
1035.020266,54581.8
1039.075705,54250.8
1043.1251,53585.4
1047.16846,53930
1051.205797,53762.4
1055.237121,53651.4
1059.262444,53789.6
1063.281777,53873
1067.295131,54484.4
1071.302515,56047.8
1075.303942,55189.4
1079.299422,56090.4
1083.288966,55141.8
1087.272585,54068.2
1091.250289,53725.8
1095.222091,53725.8
1099.187999,52644.6
1103.148026,52961.8
1107.102183,53060.8
1111.050479,52805.4
1114.992927,53132.4
1118.929536,52926.2
1122.860318,53638.6
1126.785283,53285.4
1130.704443,53601.8
1134.617808,54763.8
1138.52539,54615.2
1142.427198,54298.4
1146.323244,53783.2
1150.213538,53206
1154.098093,53339.4
1157.976917,52372.2
1161.850023,51988.2
1165.717421,52369
1169.579121,51918.6
1173.435135,52278.2
1177.285474,51153
1181.130148,51225
1184.969169,51473.8
1188.802547,51047.8
1192.630292,50623.2
1196.452416,50169.6
1200.26893,50160
1204.079844,49523.6
1207.88517,49003.8
1211.684917,49448.6
1215.479098,48774.4
1219.267722,50784.6
1223.050801,48762.8
1226.828346,49089.8
1230.600366,48992.4
1234.366874,48750
1238.12788,48468.8
1241.883395,48647.4
1245.633429,48397.8
1249.377994,48461
1253.1171,48045.4
1256.850759,48150.6
1260.578981,48190.2
1264.301776,47979.2
1268.019157,48206.2
1271.731133,47680
1275.437715,47517.8
1279.138915,47741.6
1282.834743,48048.8
1286.52521,47298.8
1290.210328,47169.8
1293.890106,47134.8
1297.564555,47729.8
1301.233688,46902
1304.897514,47623.4
1308.556044,47561.8
1312.209289,47365
1315.857261,46538.8
1319.499969,46670.8
1323.137425,47502
1326.769641,46714.6
1330.396626,47526.6
1334.018391,47005.2
1337.634948,46948.8
1341.246307,46459.4
1344.85248,46445.6
1348.453477,46152.8
1352.049309,46069
1355.639987,45896.2
1359.225522,46244.2
1362.805925,45703.8
1366.381207,45601.8
1369.951379,45789.6
1373.516452,45846.8
1377.076436,46076.2
1380.631343,45948.8
1384.181184,45455.8
1387.725969,45760
1391.26571,45518
1394.800417,44909.2
1398.330102,44648
1401.854776,44615.8
1405.374448,44153.2
1408.889132,43868.4
1412.398837,43409.4
1415.903574,43386.8
1419.403355,44336.2
1422.89819,43792.2
1426.388091,43899.8
1429.873069,44243
1433.353134,43733
1436.828298,43188
1440.298571,42825.6
1443.763965,42422.8
1447.224491,42042
1450.68016,41994.4
1454.130983,42125
1457.576971,41619
1461.018135,41707.8
1464.454486,41505
1467.886036,40767.4
1471.312794,40935
1474.734774,40225.2
1478.151985,41022.4
1481.564439,40475.4
1484.972146,39878.4
1488.375119,39292.6
1491.773368,39507.6
1495.166904,40042.6
1498.555739,39087.6
1501.939883,39174
1505.319349,38450.2
1508.694146,38895.8
1512.064286,38910.2
1515.429781,38663.4
1518.790642,38534.4
1522.146879,38667.8
1525.498505,37933.2
1528.845529,37602.4
1532.187965,38590.6
1535.525822,38066.4
1538.859112,37988.2
1542.187846,38562.2
1545.512036,37499.6
1548.831693,38510.6
1552.146829,38085.2
1555.457453,37356.8
1558.763579,36815.2
1562.065216,37234.2
1565.362377,37532.2
1568.655073,37567
1571.943315,37273
1575.227114,37022.6
1578.506482,36862
1581.781431,37006.4
1585.051971,36311.4
1588.318114,36089.4
1591.579872,35723.2
1594.837255,35141.6
1598.090275,34770.4
1601.338945,34611.6
1604.583274,34691.2
1607.823275,34085
1611.058959,33365.4
1614.290338,33837.8
1617.517422,32570.4
1620.740224,32917.6
1623.958755,32250.4
1627.173027,31966
1630.38305,31525.2
1633.588838,31598.2
1636.7904,31154
1639.987749,31378.6
1643.180896,31449.2
1646.369853,30340
1649.554632,31074.8
1652.735244,30011.2
1655.9117,29402.2
1659.084013,29720.4
1662.252193,30247.6
1665.416254,29090.4
1668.576205,29358
1671.732059,29384.4
1674.883828,29208
1678.031523,28654.6
1681.175157,28654.4
1684.314739,28602.8
1687.450284,28388.2
1690.581801,28004.2
1693.709304,27857.6
1696.832803,27814.8
1699.952311,27967
1703.067839,27795.6
1706.179399,27665.8
1709.287003,27950.6
1712.390663,27418
1715.49039,27453.6
1718.586197,27603.2
1721.678095,27300.4
1724.766096,27293.4
1727.850213,26547.6
1730.930456,26871.2
1734.006838,26506.4
1737.079372,26721.2
1740.148067,26125.2
1743.212938,27043
1746.273996,26150.2
1749.331252,26037.6
1752.384718,25962.6
1755.434408,25784.4
1758.480332,25658.4
1761.522503,25548
1764.560933,25147.4
1767.595634,24747.2
1770.626618,25556
1773.653896,25299.6
1776.677482,24795.8
1779.697388,24656.2
1782.713625,25353.2
1785.726205,25261.8
1788.735141,25240.4
1791.740445,24691
1794.742129,24589.8
1797.740206,25027
1800.734687,25065
1803.725585,24763.6
1806.712912,24522.4
1809.69668,24412.2
1812.676902,24548.6
1815.65359,23999
1818.626756,24126.4
1821.596413,24176.8
1824.562573,23794.6
1827.525247,24099.8
1830.48445,23912.6
1833.440192,23956.4
1836.392487,23808
1839.341347,24006.2
1842.286784,23937.6
1845.22881,23301.4
1848.167439,23824
1851.102682,23553
1854.034553,23510.2
1856.963063,23401.4
1859.888226,24211.2
1862.810053,23575.8
1865.728557,23364.2
1868.643751,23110.4
1871.555648,22932.4
1874.46426,22663.2
1877.369599,23279.8
1880.271679,22831.2
1883.170512,22824
1886.06611,23148.2
1888.958487,22911.2
1891.847655,22756.6
1894.733626,22976.4
1897.616414,22822
1900.496032,22140.6
1903.372491,22570.4
1906.245805,22790.6
1909.115987,22854
1911.983049,22641
1914.847004,22504.2
1917.707866,22558.8
1920.565646,22437
1923.420359,21887
1926.272016,22206.6
1929.120631,21857.2
1931.966216,22025.8
1934.808786,21901
1937.648351,21997.6
1940.484927,21934.4
1943.318525,22016.2
1946.149158,22232.2
1948.97684,23179
1951.801584,21976.2
1954.623403,21752.8
1957.44231,22009.6
1960.258318,21272.4
1963.071439,21239.4
1965.881688,21521.4
1968.689078,21493.2
1971.493621,21132.8
