Ramanshift[cm-1],Intensity
-93.47115107,12031.2
-87.69374369,10954.8
-81.9253076,10848
-76.16582701,10867
-70.41528615,10892.2
-64.67366933,10680.8
-58.94096086,10701.6
-53.21714512,10812.8
-47.50220652,10997
-41.79612954,10987.2
-36.09889866,11287.6
-30.41049843,11481
-24.73091343,11093.8
-19.0601283,11244.2
-13.39812769,10968.8
-7.744896327,10777.4
-2.100418946,10587.6
3.535319659,11236.4
9.162334658,10632.8
14.78064118,10985
20.39025432,10610.8
25.99118913,10663
31.58346061,11127.6
37.16708375,10899
42.74207347,10652.8
48.30844468,10723.2
53.86621222,10654.6
59.41539093,10311.6
64.95599558,10255.2
70.48804091,10610.6
76.01154164,10713.2
81.52651243,10173.8
87.03296792,10612.2
92.5309227,10990.6
98.02039134,10356.6
103.5013884,10568.6
108.9739282,10459.2
114.4380255,10477.8
119.8936944,10615.6
125.3409495,11382
130.779805,10338.2
136.2102753,10271
141.6323747,10346
147.0461174,10858.8
152.4515176,10352.2
157.8485895,10440.2
163.2373472,10258.6
168.6178049,10592.4
173.9899766,10852.8
179.3538764,10340.4
184.7095182,10476.2
190.0569161,10687.8
195.396084,10791.6
200.7270358,10412.4
206.0497854,10312.2
211.3643466,10118.8
216.6707333,10521.2
221.9689593,10151.2
227.2590382,10362
232.5409839,10325.2
237.8148101,10309.2
243.0805303,10323.8
248.3381582,10355.6
253.5877075,10217.6
258.8291917,10353.2
264.0626244,10533
269.288019,10713
274.5053891,11028.6
279.7147481,11018.2
284.9161094,12005.8
290.1094865,16301.4
295.2948927,29272.2
300.4723414,58863.2
305.6418459,64159.6
310.8034194,64159
315.9570752,64159.6
321.1028267,64159
326.2406869,64159.2
331.370669,64160
336.4927863,64159.4
341.6070517,64159.2
346.7134786,64159.6
351.8120798,64159.2
356.9028684,64159.6
361.9858576,64159.4
367.0610602,64158.8
372.1284892,64159.6
377.1881577,64159.2
382.2400784,64158.6
387.2842644,64159.2
392.3207284,64158.6
397.3494833,64158.8
402.370542,64157.8
407.3839172,64157.4
412.3896217,64157.6
417.3876683,64157.4
422.3780697,64157
427.3608386,64157
432.3359876,64156.6
437.3035295,64156.2
442.2634769,64156.4
447.2158423,64156.2
452.1606383,64156.4
457.0978776,64156
462.0275727,64156
466.9497361,64156
471.8643802,64156.6
476.7715176,64157
481.6711608,64156.8
486.5633221,64157.2
491.448014,64156.8
496.3252488,64158
501.195039,64157.4
506.0573969,64158.2
510.9123349,64158.2
515.7598651,64158.2
520.6,64158.4
525.4327518,64159.8
530.2581327,64158.6
535.076155,64159.4
539.8868309,64159.6
544.6901726,64159.4
549.4861922,64159.8
554.2749019,64159.6
559.0563139,64159.8
563.8304402,64159.6
568.597293,64160
573.3568844,64159.8
578.1092263,64159.4
582.8543308,64160.2
587.5922101,64158.2
592.322876,64159
597.0463405,64158.8
601.7626157,64158.8
606.4717135,64157.8
611.1736458,64157.8
615.8684246,64157.6
620.5560617,64157.4
625.2365691,64156.8
629.9099585,64157.6
634.5762419,64157.8
639.2354312,64157
643.887538,64157
648.5325743,64157.2
653.1705518,64156.6
657.8014823,64156.6
662.4253775,64156.4
667.0422493,64157.2
671.6521092,64156.4
676.2549691,64156.8
680.8508407,64157.2
685.4397355,64156.8
690.0216654,64157
694.5966419,64156.6
699.1646767,64157
703.7257814,64156.8
708.2799676,64156.4
712.827247,64157.6
717.367631,64157.8
721.9011314,64157
726.4277595,64157.2
730.9475271,64157.2
735.4604456,64157.8
739.9665264,64157.4
744.4657813,64158.4
748.9582215,64158.6
753.4438587,64158.6
757.9227042,64159.2
762.3947696,64159.6
766.8600662,64159.6
771.3186056,64158.8
775.770399,64159.8
780.215458,64159.8
784.6537939,64159.6
789.0854181,64159.8
793.510342,64160
797.9285769,64160
802.3401342,64159.6
806.7450253,64160
811.1432614,64160.2
815.5348538,64159.6
819.9198139,64159.4
824.2981531,64159.2
828.6698824,64159
833.0350133,64158.4
837.393557,64159
841.7455248,64158.4
846.0909278,64158.6
850.4297774,64157.4
854.7620848,64157.6
859.0878611,64157.4
863.4071176,64157
867.7198655,64156.8
872.026116,64156.8
876.3258802,64157.2
880.6191693,64157.6
884.9059946,64157
889.186367,64157.6
893.4602979,64157.6
897.7277982,64157.4
901.9888793,64157.8
906.2435521,64158.8
910.4918277,64158.2
914.7337174,64158.2
918.9692321,64158.8
923.1983831,64158.6
927.4211813,64158.8
931.6376378,64159
935.8477637,64159
940.0515701,64158.8
944.249068,64159.4
948.4402684,64160
952.6251825,64159.8
956.8038212,64159.4
960.9761955,64159.6
965.1423166,64159.8
969.3021953,64159.8
973.4558427,64160.2
977.6032699,64159.8
981.7444877,64159.6
985.8795072,64159.8
990.0083394,64160
994.1309953,64159.4
998.2474857,64159.4
1002.357822,64159.4
1006.462014,64159.4
1010.560075,64160.2
1014.652013,64159.6
1018.737841,64159.6
1022.81757,64159.4
1026.891209,64159.4
1030.958771,64158.6
1035.020266,64159.2
1039.075705,64158.4
1043.1251,64158.4
1047.16846,64157.8
1051.205797,64157.8
1055.237121,64157.4
1059.262444,64157.4
1063.281777,64157
1067.295131,64157
1071.302515,64157
1075.303942,64156.6
1079.299422,64156.8
1083.288966,64156.6
1087.272585,64157.4
1091.250289,64157.6
1095.222091,64158.4
1099.187999,64158.2
1103.148026,64158.4
1107.102183,64158.2
1111.050479,64159.2
1114.992927,64158.8
1118.929536,64159.2
1122.860318,64159
1126.785283,64158.8
1130.704443,64158.8
1134.617808,64159.4
1138.52539,64159.4
1142.427198,64159.8
1146.323244,64160.4
1150.213538,64160.2
1154.098093,64160.4
1157.976917,64160.2
1161.850023,64159.8
1165.717421,64160.6
1169.579121,64160.4
1173.435135,64160.2
1177.285474,64160.4
1181.130148,64160.6
1184.969169,64160.6
1188.802547,64160.8
1192.630292,64160
1196.452416,64160.4
1200.26893,64159.4
1204.079844,64160.2
1207.88517,64159.6
1211.684917,64160.2
1215.479098,64159
1219.267722,64160
1223.050801,64159.2
1226.828346,64159.4
1230.600366,64159.2
1234.366874,64158.8
1238.12788,64158.4
1241.883395,64158.4
1245.633429,64158.2
1249.377994,64158.4
1253.1171,64157.6
1256.850759,64157.4
1260.578981,64157.6
1264.301776,64158
1268.019157,64157.8
1271.731133,64157.4
1275.437715,64158
1279.138915,64158.2
1282.834743,64158.6
1286.52521,64158.6
1290.210328,64158.2
1293.890106,64159.2
1297.564555,64159
1301.233688,64159.8
1304.897514,64160.2
1308.556044,64160.6
1312.209289,64160.4
1315.857261,64160.6
1319.499969,64160.2
1323.137425,64160.4
1326.769641,64160.4
1330.396626,64160.8
1334.018391,64160.6
1337.634948,64161
1341.246307,64160.6
1344.85248,64160.8
1348.453477,64160.2
1352.049309,64161.2
1355.639987,64160.6
1359.225522,64160.6
1362.805925,64160.2
1366.381207,64161
1369.951379,64159.8
1373.516452,64160
1377.076436,64159.4
1380.631343,64160
1384.181184,64159.8
1387.725969,64159.2
1391.26571,64159
1394.800417,64159.6
1398.330102,64160
1401.854776,64159.8
1405.374448,64159.4
1408.889132,64159.6
1412.398837,64159.6
1415.903574,64159
1419.403355,64159
1422.89819,64159
1426.388091,64158.8
1429.873069,64158.8
1433.353134,64158.8
1436.828298,64159
1440.298571,64159.8
1443.763965,64160.2
1447.224491,64160
1450.68016,64160.4
1454.130983,64161.2
1457.576971,64161.2
1461.018135,64160.6
1464.454486,64160.8
1467.886036,64160.6
1471.312794,64161.6
1474.734774,64162.4
1478.151985,64162.8
1481.564439,64163.4
1484.972146,64163.4
1488.375119,64164
1491.773368,64164
1495.166904,64163.6
1498.555739,64164.2
1501.939883,64164
1505.319349,64164.4
1508.694146,64164.4
1512.064286,64164
1515.429781,64163.6
1518.790642,64164
1522.146879,64163.2
1525.498505,64163.2
1528.845529,64162.6
1532.187965,64162.2
1535.525822,64162.4
1538.859112,64161.6
1542.187846,64161
1545.512036,64160.8
1548.831693,64159.6
1552.146829,64159.4
1555.457453,64159.4
1558.763579,64159.6
1562.065216,64159
1565.362377,64158
1568.655073,64158
1571.943315,64157.4
1575.227114,64157.8
1578.506482,64157.8
1581.781431,64157
1585.051971,64157.8
1588.318114,64158.2
1591.579872,64158.2
1594.837255,64159.4
1598.090275,64158.4
1601.338945,64159.8
1604.583274,64160.6
1607.823275,64161.2
1611.058959,64162
1614.290338,64162.2
1617.517422,64162.4
1620.740224,64163.2
1623.958755,64164.6
1627.173027,64171.2
1630.38305,64184.8
1633.588838,64213.6
1636.7904,64268.6
1639.987749,64366
1643.180896,63812.8
1646.369853,62497.6
1649.554632,62691.4
1652.735244,61302
1655.9117,60175.8
1659.084013,59716.4
1662.252193,59991.6
1665.416254,58707
1668.576205,58615.4
1671.732059,58259.2
1674.883828,58133.8
1678.031523,57332.8
1681.175157,56593.4
1684.314739,56767.8
1687.450284,55856.4
1690.581801,55414.6
1693.709304,55079.4
1696.832803,54884.6
1699.952311,54573
1703.067839,54367.4
1706.179399,54122.4
1709.287003,53972.6
1712.390663,53329.2
1715.49039,53001.6
1718.586197,53031.2
1721.678095,52724.4
1724.766096,52392.4
1727.850213,51397.2
1730.930456,51054.2
1734.006838,51129
1737.079372,50944.8
1740.148067,50181
1743.212938,50609
1746.273996,49617.6
1749.331252,49230.4
1752.384718,48952.8
1755.434408,48698.8
1758.480332,48210.6
1761.522503,47532.6
1764.560933,47286.6
1767.595634,46559.6
1770.626618,46909
1773.653896,46769.2
1776.677482,46102
1779.697388,46018.4
1782.713625,46522.6
1785.726205,46286
1788.735141,46122.8
1791.740445,45605.6
1794.742129,45278.2
1797.740206,45713.2
1800.734687,45616.8
1803.725585,45716.2
1806.712912,45207.6
1809.69668,44832.4
1812.676902,45072.8
1815.65359,44465.2
1818.626756,44463.8
1821.596413,44216.4
1824.562573,43859
1827.525247,43987
1830.48445,43943.6
1833.440192,43882.2
1836.392487,43497.8
1839.341347,43494.8
1842.286784,43389.2
1845.22881,42875
1848.167439,43270
1851.102682,42913.2
1854.034553,42707
1856.963063,42546.4
1859.888226,43097.2
1862.810053,42259.6
1865.728557,42114
1868.643751,41680.4
1871.555648,41843.2
1874.46426,41057.6
1877.369599,41670.4
1880.271679,41073
1883.170512,41018.6
1886.06611,41250
1888.958487,40941.4
1891.847655,40510
1894.733626,40772.2
1897.616414,40629.8
1900.496032,40021.8
1903.372491,40249.4
1906.245805,40434
1909.115987,40276.2
1911.983049,40020
1914.847004,39904
1917.707866,39752
1920.565646,39409.2
1923.420359,39066
1926.272016,39030.8
1929.120631,38847.8
1931.966216,38701.8
1934.808786,38519.4
1937.648351,38438.4
1940.484927,38203
1943.318525,38028.2
1946.149158,38279.6
1948.97684,38798.2
1951.801584,37735.2
1954.623403,37398.4
1957.44231,37580.8
1960.258318,36883.6
1963.071439,36854.6
1965.881688,37125.8
1968.689078,37278.4
1971.493621,36558
