Ramanshift[cm-1],Intensity
-93.47115107,12181.8
-87.69374369,11141.2
-81.9253076,11099.2
-76.16582701,11037.4
-70.41528615,11050.8
-64.67366933,10841.6
-58.94096086,10771
-53.21714512,10974
-47.50220652,11176.6
-41.79612954,11099.6
-36.09889866,11580.8
-30.41049843,11519.2
-24.73091343,11239.4
-19.0601283,11331
-13.39812769,11081.2
-7.744896327,10922.8
-2.100418946,10781.8
3.535319659,11347
9.162334658,10700.4
14.78064118,11115.6
20.39025432,10795.8
25.99118913,10811.6
31.58346061,11200.8
37.16708375,11050
42.74207347,10755
48.30844468,10886.8
53.86621222,10710.4
59.41539093,10493.6
64.95599558,10464.6
70.48804091,10818.4
76.01154164,10853.8
81.52651243,10307
87.03296792,10661.8
92.5309227,11010
98.02039134,10424.4
103.5013884,10667.2
108.9739282,10476.6
114.4380255,10551.6
119.8936944,10803
125.3409495,11454.2
130.779805,10534.2
136.2102753,10347.2
141.6323747,10375.4
147.0461174,10863.2
152.4515176,10503.8
157.8485895,10447.4
163.2373472,10399.2
168.6178049,10621
173.9899766,10911.6
179.3538764,10527.4
184.7095182,10534.2
190.0569161,10674.8
195.396084,10902.6
200.7270358,10420.4
206.0497854,10433
211.3643466,10231.6
216.6707333,10576.6
221.9689593,10250
227.2590382,10368
232.5409839,10379.4
237.8148101,10305
243.0805303,10410
248.3381582,10361.2
253.5877075,10213
258.8291917,10393.2
264.0626244,10539
269.288019,10683.4
274.5053891,10845
279.7147481,10668
284.9161094,10805.8
290.1094865,12324.6
295.2948927,16827.4
300.4723414,27118
305.6418459,40810
310.8034194,52908.8
315.9570752,59369.8
321.1028267,61579.2
326.2406869,62656.8
331.370669,63288.6
336.4927863,63693.4
341.6070517,64008.4
346.7134786,64175.2
351.8120798,64173.2
356.9028684,64171
361.9858576,64168.8
367.0610602,64165.6
372.1284892,64164.4
377.1881577,64162.8
382.2400784,64162.2
387.2842644,64161.4
392.3207284,64161.8
397.3494833,64162.4
402.370542,64161.8
407.3839172,64162
412.3896217,64162.8
417.3876683,64165.2
422.3780697,64170.8
427.3608386,64178.2
432.3359876,64199
437.3035295,64227.2
442.2634769,64208.8
447.2158423,63695
452.1606383,63411.4
457.0978776,63226.6
462.0275727,63269.6
466.9497361,63394.6
471.8643802,62678.4
476.7715176,62667.8
481.6711608,63064
486.5633221,63455.6
491.448014,63174.2
496.3252488,62751.2
501.195039,62641.2
506.0573969,62184.6
510.9123349,61006.2
515.7598651,60055.8
520.6,59696.2
525.4327518,59087.8
530.2581327,58855.4
535.076155,58384.2
539.8868309,58736.8
544.6901726,58359.2
549.4861922,57285.6
554.2749019,57290
559.0563139,56481.4
563.8304402,56336.8
568.597293,57209.8
573.3568844,56694.8
578.1092263,56192.8
582.8543308,56693.6
587.5922101,56817.2
592.322876,56171.8
597.0463405,56303.6
601.7626157,56464.4
606.4717135,56294.2
611.1736458,56249.6
615.8684246,55995
620.5560617,56226.8
625.2365691,56201.6
629.9099585,57176.8
634.5762419,57812
639.2354312,57659.8
643.887538,57247.2
648.5325743,56063.4
653.1705518,55346.2
657.8014823,54739
662.4253775,53932.2
667.0422493,53894.4
671.6521092,53856.8
676.2549691,53793.8
680.8508407,53803
685.4397355,53621.2
690.0216654,53587.6
694.5966419,53737.2
699.1646767,54591.6
703.7257814,54781
708.2799676,54846.8
712.827247,55792.2
717.367631,55368.2
721.9011314,54635.6
726.4277595,52933.4
730.9475271,52707.8
735.4604456,52221.8
739.9665264,52561.6
744.4657813,52382.8
748.9582215,51600.2
753.4438587,50733.8
757.9227042,50006.8
762.3947696,50260
766.8600662,49448.4
771.3186056,50457.4
775.770399,49582.6
780.215458,49430
784.6537939,48759.4
789.0854181,49043.6
793.510342,48778
797.9285769,49427.6
802.3401342,49255.4
806.7450253,50004.6
811.1432614,50054.4
815.5348538,49838
819.9198139,48984.4
824.2981531,48779.8
828.6698824,48421.8
833.0350133,47604.8
837.393557,46855.4
841.7455248,47188.2
846.0909278,46251.2
850.4297774,46609.6
854.7620848,46404.6
859.0878611,46505
863.4071176,45873.8
867.7198655,46282.2
872.026116,46618.4
876.3258802,46675
880.6191693,45983.2
884.9059946,46000.6
889.186367,46238
893.4602979,45054.4
897.7277982,44987.2
901.9888793,45671.2
906.2435521,46545
910.4918277,46356
914.7337174,46785.6
918.9692321,47089.8
923.1983831,47953.4
927.4211813,47241.4
931.6376378,48132.2
935.8477637,47751
940.0515701,48240.6
944.249068,48536.4
948.4402684,47487.6
952.6251825,47973.6
956.8038212,47744.2
960.9761955,48107.4
965.1423166,47836.2
969.3021953,47759.4
973.4558427,47792
977.6032699,47716.2
981.7444877,47473.2
985.8795072,47690.6
990.0083394,47716.8
994.1309953,47961.2
998.2474857,49799.8
1002.357822,51142.2
1006.462014,53736.6
1010.560075,52423.6
1014.652013,49875.4
1018.737841,48544.2
1022.81757,47627.4
1026.891209,47330.6
1030.958771,47178.4
1035.020266,47909
1039.075705,48420.8
1043.1251,49245.8
1047.16846,50527.2
1051.205797,52030.2
1055.237121,54485.2
1059.262444,58802
1063.281777,64162.4
1067.295131,64155.8
1071.302515,64155.4
1075.303942,64159
1079.299422,64175.8
1083.288966,64229.4
1087.272585,64397.6
1091.250289,61258.6
1095.222091,56000.6
1099.187999,52316.8
1103.148026,51512.6
1107.102183,51416
1111.050479,51819
1114.992927,52955.4
1118.929536,55248.6
1122.860318,59117.6
1126.785283,63741.4
1130.704443,64163.6
1134.617808,64163.6
1138.52539,64163.4
1142.427198,64164.2
1146.323244,64165
1150.213538,64166.4
1154.098093,64169.4
1157.976917,64170.2
1161.850023,64168.4
1165.717421,64174
1169.579121,64198.2
1173.435135,64271.4
1177.285474,64287
1181.130148,63816.4
1184.969169,63375.6
1188.802547,61012
1192.630292,58040.8
1196.452416,55101.4
1200.26893,53117
1204.079844,51628.2
1207.88517,50809.2
1211.684917,51231.2
1215.479098,50597.4
1219.267722,52069
1223.050801,50253.8
1226.828346,50209.8
1230.600366,49552.8
1234.366874,48919.4
1238.12788,48462.6
1241.883395,48116.4
1245.633429,47952
1249.377994,47960
1253.1171,47513
1256.850759,47580
1260.578981,47378
1264.301776,47552
1268.019157,47289
1271.731133,46761.8
1275.437715,46535.4
1279.138915,47150
1282.834743,47354
1286.52521,47144.2
1290.210328,47775.4
1293.890106,48755.4
1297.564555,50126
1301.233688,49855.6
1304.897514,49895
1308.556044,49398.8
1312.209289,48963.6
1315.857261,48377.6
1319.499969,48024.4
1323.137425,49022.4
1326.769641,48437.6
1330.396626,49104
1334.018391,48925.2
1337.634948,49403.2
1341.246307,49650.2
1344.85248,49686.2
1348.453477,49838.8
1352.049309,49826
1355.639987,49949.8
1359.225522,50469.4
1362.805925,50149.2
1366.381207,50433.8
1369.951379,51196.2
1373.516452,52129.8
1377.076436,53499.6
1380.631343,56008.2
1384.181184,59247.6
1387.725969,62786.2
1391.26571,63116.2
1394.800417,60256
1398.330102,55065
1401.854776,51208.4
1405.374448,48472.2
1408.889132,47695
1412.398837,47681.2
1415.903574,49015
1419.403355,52629.2
1422.89819,56607.2
1426.388091,61981.6
1429.873069,64168
1433.353134,64189.8
1436.828298,64261.8
1440.298571,64273.4
1443.763965,61922.2
1447.224491,56699.8
1450.68016,52670.6
1454.130983,49570.2
1457.576971,47348.8
1461.018135,46559
1464.454486,46305.2
1467.886036,46183
1471.312794,46416.2
1474.734774,45386
1478.151985,44943
1481.564439,43593
1484.972146,42892.8
1488.375119,42180.2
1491.773368,42460.2
1495.166904,42311.2
1498.555739,41657.6
1501.939883,41729.4
1505.319349,41351
1508.694146,42214
1512.064286,42428.4
1515.429781,42720.4
1518.790642,42730
1522.146879,43334.6
1525.498505,43572.2
1528.845529,44297.2
1532.187965,46363.4
1535.525822,47276
1538.859112,48622.8
1542.187846,50932.4
1545.512036,51691.2
1548.831693,54206
1552.146829,55125.4
1555.457453,55801.2
1558.763579,55713.8
1562.065216,56477.2
1565.362377,56530
1568.655073,56688.8
1571.943315,56720
1575.227114,56168.6
1578.506482,55254
1581.781431,53981.8
1585.051971,52316.4
1588.318114,50739.8
1591.579872,48670.6
1594.837255,45711.8
1598.090275,42809.8
1601.338945,40378.8
1604.583274,38682.4
1607.823275,37446.4
1611.058959,36095.2
1614.290338,35946.6
1617.517422,34250.6
1620.740224,33686.4
1623.958755,32693.2
1627.173027,31902.2
1630.38305,31048.4
1633.588838,30611
1636.7904,30093.2
1639.987749,29712
1643.180896,29209.2
1646.369853,28099.2
1649.554632,28679.6
1652.735244,27649
1655.9117,26854.2
1659.084013,26858.2
1662.252193,27132.4
1665.416254,26262.4
1668.576205,26318
1671.732059,26275.2
1674.883828,26247.2
1678.031523,25557.8
1681.175157,25513
1684.314739,25385.8
1687.450284,25123.6
1690.581801,24709.6
1693.709304,24731.8
1696.832803,24464.8
1699.952311,24659.4
1703.067839,24554.4
1706.179399,24363.2
1709.287003,24531.8
1712.390663,24190
1715.49039,24062.6
1718.586197,24218.8
1721.678095,24041.4
1724.766096,23788.2
1727.850213,23295.8
1730.930456,23381
1734.006838,23137.2
1737.079372,23208.8
1740.148067,22827.2
1743.212938,23545.8
1746.273996,22670
1749.331252,22588.6
1752.384718,22530.6
1755.434408,22478.6
1758.480332,22228.6
1761.522503,22095.6
1764.560933,21847.4
1767.595634,21389.2
1770.626618,22066.6
1773.653896,21987.4
1776.677482,21544.2
1779.697388,21349.6
1782.713625,21968.6
1785.726205,21753.2
1788.735141,21698
1791.740445,21283.8
1794.742129,21183.4
1797.740206,21652.8
1800.734687,21656
1803.725585,21544.6
1806.712912,21123.4
1809.69668,20983.4
1812.676902,21078.6
1815.65359,20811.8
1818.626756,20960.4
1821.596413,20897.4
1824.562573,20562
1827.525247,20933
1830.48445,20675.4
1833.440192,20762.8
1836.392487,20604.4
1839.341347,20641.2
1842.286784,20722.6
1845.22881,20191
1848.167439,20577.8
1851.102682,20444.2
1854.034553,20358
1856.963063,20180.4
1859.888226,20972
1862.810053,20413.4
1865.728557,20130.6
1868.643751,19944.4
1871.555648,19936
1874.46426,19547.8
1877.369599,20123.2
1880.271679,19752.6
1883.170512,19820.2
1886.06611,20140.8
1888.958487,19999.8
1891.847655,19684
1894.733626,19825.4
1897.616414,19767.4
1900.496032,19354
1903.372491,19655.4
1906.245805,19749
1909.115987,19795
1911.983049,19699.4
1914.847004,19563.6
1917.707866,19601.4
1920.565646,19462.2
1923.420359,19183.6
1926.272016,19272
1929.120631,19134
1931.966216,19052.8
1934.808786,19192.8
1937.648351,19170.2
1940.484927,19116.2
1943.318525,19078
1946.149158,19273.4
1948.97684,20097.8
1951.801584,19092.4
1954.623403,18955.2
1957.44231,18915.6
1960.258318,18451.8
1963.071439,18602
1965.881688,18697.6
1968.689078,18827.8
1971.493621,18342.2
