Ramanshift[cm-1],Intensity
-93.47115107,13826.8
-87.69374369,12584.2
-81.9253076,12395.4
-76.16582701,12488.4
-70.41528615,12494.2
-64.67366933,12240.6
-58.94096086,12271.8
-53.21714512,12511.4
-47.50220652,12603.2
-41.79612954,12597.8
-36.09889866,13091
-30.41049843,13125
-24.73091343,12728.4
-19.0601283,12927.4
-13.39812769,12704.4
-7.744896327,12373.4
-2.100418946,12207.2
3.535319659,12893.8
9.162334658,12202.8
14.78064118,12518.4
20.39025432,12233
25.99118913,12264.4
31.58346061,12804.2
37.16708375,12540.2
42.74207347,12194.4
48.30844468,12176.8
53.86621222,12123
59.41539093,11888.2
64.95599558,11783.2
70.48804091,12152
76.01154164,12270.4
81.52651243,11648.2
87.03296792,12275.4
92.5309227,12536.2
98.02039134,11898.6
103.5013884,12158.8
108.9739282,12008.6
114.4380255,11901
119.8936944,12103.6
125.3409495,13087.2
130.779805,11952.2
136.2102753,11596.2
141.6323747,11710.4
147.0461174,12397.8
152.4515176,11925
157.8485895,11939.8
163.2373472,11763
168.6178049,12102
173.9899766,12290.2
179.3538764,11844.4
184.7095182,11980.2
190.0569161,12207.4
195.396084,12379.4
200.7270358,11778.4
206.0497854,11775.8
211.3643466,11468.4
216.6707333,11933.4
221.9689593,11607
227.2590382,11784.4
232.5409839,11719.6
237.8148101,11590.8
243.0805303,11764.2
248.3381582,11751.4
253.5877075,11500.8
258.8291917,11737
264.0626244,11842
269.288019,11940
274.5053891,12168.2
279.7147481,11724
284.9161094,11669.2
290.1094865,12094.4
295.2948927,13428.8
300.4723414,16486.6
305.6418459,19882.2
310.8034194,23033
315.9570752,25206.8
321.1028267,25695.6
326.2406869,25958.6
331.370669,26304.8
336.4927863,26663.8
341.6070517,27000.8
346.7134786,27068.4
351.8120798,27632.8
356.9028684,27473.6
361.9858576,27357.8
367.0610602,27608.8
372.1284892,27312.2
377.1881577,27875.2
382.2400784,28554.4
387.2842644,29483.4
392.3207284,30668
397.3494833,30150
402.370542,29493.6
407.3839172,28467
412.3896217,27403.4
417.3876683,26757.4
422.3780697,26422.8
427.3608386,26171.8
432.3359876,26512.6
437.3035295,26273.4
442.2634769,26443
447.2158423,25454.8
452.1606383,25531.8
457.0978776,25714.8
462.0275727,25067
466.9497361,25388
471.8643802,24875
476.7715176,25484.4
481.6711608,25654.6
486.5633221,25865.6
491.448014,25688.6
496.3252488,25519
501.195039,25426.4
506.0573969,25715.8
510.9123349,25301.2
515.7598651,24693.8
520.6,25279
525.4327518,24954
530.2581327,24931.2
535.076155,24348.2
539.8868309,24735.6
544.6901726,24524.2
549.4861922,24276.4
554.2749019,25156.2
559.0563139,24284.6
563.8304402,23989.6
568.597293,25075.2
573.3568844,24643
578.1092263,24139.4
582.8543308,24623.4
587.5922101,24540.4
592.322876,24132.6
597.0463405,24381.8
601.7626157,24708.4
606.4717135,24088.8
611.1736458,24077
615.8684246,24251.4
620.5560617,24439.4
625.2365691,24109.8
629.9099585,24495.2
634.5762419,24647.8
639.2354312,23886.8
643.887538,24102.2
648.5325743,23983.2
653.1705518,23901.8
657.8014823,23833.8
662.4253775,23195
667.0422493,23626.8
671.6521092,23415
676.2549691,23859.8
680.8508407,23676.8
685.4397355,23561
690.0216654,23597
694.5966419,23246.2
699.1646767,23755
703.7257814,23479.6
708.2799676,23636.8
712.827247,23685.8
717.367631,23380.4
721.9011314,23346
726.4277595,22787.2
730.9475271,23268.8
735.4604456,23023.6
739.9665264,23572.4
744.4657813,22978.4
748.9582215,22908
753.4438587,22386.4
757.9227042,22000
762.3947696,22717
766.8600662,22041.8
771.3186056,23467.8
775.770399,22381.6
780.215458,22612.8
784.6537939,21913.6
789.0854181,21979.4
793.510342,22023.8
797.9285769,22431.2
802.3401342,21880.8
806.7450253,22050.4
811.1432614,21922.8
815.5348538,21680
819.9198139,21360.4
824.2981531,21576.2
828.6698824,21541.2
833.0350133,21289.6
837.393557,20953
841.7455248,21350.6
846.0909278,20980
850.4297774,21033.8
854.7620848,21125.2
859.0878611,21272.8
863.4071176,20792
867.7198655,21213
872.026116,21611.6
876.3258802,21925
880.6191693,21536.6
884.9059946,21284.4
889.186367,21762.2
893.4602979,20582.2
897.7277982,20585.4
901.9888793,21024.4
906.2435521,21415.2
910.4918277,20853.6
914.7337174,20903
918.9692321,20841.2
923.1983831,21447
927.4211813,21086.2
931.6376378,21759.6
935.8477637,21042.6
940.0515701,21388.4
944.249068,21450.2
948.4402684,20592
952.6251825,21448.2
956.8038212,21147
960.9761955,21654.4
965.1423166,21171.2
969.3021953,21170
973.4558427,21192.8
977.6032699,21015.2
981.7444877,21179.6
985.8795072,20962.2
990.0083394,21157.4
994.1309953,20680.6
998.2474857,21050.2
1002.357822,20343
1006.462014,20994.2
1010.560075,20610.4
1014.652013,20853.4
1018.737841,21107.6
1022.81757,20597.6
1026.891209,20563
1030.958771,20408.6
1035.020266,20676.6
1039.075705,20413.8
1043.1251,20163.6
1047.16846,20419.8
1051.205797,20298.6
1055.237121,20011.4
1059.262444,20151.4
1063.281777,20185.4
1067.295131,20802.8
1071.302515,22519
1075.303942,22717.8
1079.299422,23928.4
1083.288966,23064.6
1087.272585,21933.8
1091.250289,21070.6
1095.222091,20702.2
1099.187999,20071.4
1103.148026,20146.4
1107.102183,19958.2
1111.050479,19999
1114.992927,19962.6
1118.929536,19940.6
1122.860318,20173.2
1126.785283,19871
1130.704443,19900
1134.617808,20927.4
1138.52539,20732.8
1142.427198,20658.4
1146.323244,20524.6
1150.213538,19979.8
1154.098093,20524.6
1157.976917,19758.8
1161.850023,19618
1165.717421,20182.2
1169.579121,19980.2
1173.435135,20488.8
1177.285474,19616.4
1181.130148,20000
1184.969169,20202.8
1188.802547,19949.8
1192.630292,19527.2
1196.452416,18991.6
1200.26893,18971.4
1204.079844,18697.4
1207.88517,18316
1211.684917,19063.6
1215.479098,18538.6
1219.267722,20141.4
1223.050801,18674.8
1226.828346,18684
1230.600366,18960.2
1234.366874,18870.4
1238.12788,18737
1241.883395,18778.8
1245.633429,19132.6
1249.377994,19116.8
1253.1171,18311.2
1256.850759,18722.2
1260.578981,18607.6
1264.301776,18701.6
1268.019157,18592.6
1271.731133,18357.2
1275.437715,18206.8
1279.138915,18769
1282.834743,19057.2
1286.52521,18411.8
1290.210328,18279.2
1293.890106,18444
1297.564555,18967.4
1301.233688,18283.8
1304.897514,18594.8
1308.556044,18681.6
1312.209289,18709.6
1315.857261,18146.8
1319.499969,18284.6
1323.137425,19138
1326.769641,18477.8
1330.396626,19119.8
1334.018391,18443.8
1337.634948,18669.4
1341.246307,18320.4
1344.85248,18223.2
1348.453477,18220.8
1352.049309,18173
1355.639987,18062.6
1359.225522,18681.6
1362.805925,18244.4
1366.381207,18270.4
1369.951379,18328.2
1373.516452,18248.2
1377.076436,18636.6
1380.631343,18422
1384.181184,18279.4
1387.725969,18429
1391.26571,18087.2
1394.800417,17895.2
1398.330102,17947.8
1401.854776,18150.4
1405.374448,17863.2
1408.889132,17484.6
1412.398837,17191.6
1415.903574,17489.2
1419.403355,18154
1422.89819,17722
1426.388091,17669.4
1429.873069,18178.2
1433.353134,17604.4
1436.828298,17514.8
1440.298571,17570
1443.763965,17321.4
1447.224491,17118.6
1450.68016,17033.8
1454.130983,17511.6
1457.576971,17306.4
1461.018135,17500.4
1464.454486,17488.4
1467.886036,17072.2
1471.312794,17096.6
1474.734774,16762.6
1478.151985,17414.8
1481.564439,17158.4
1484.972146,16983.8
1488.375119,16492.6
1491.773368,16940.6
1495.166904,17318.8
1498.555739,16633.2
1501.939883,16753.8
1505.319349,16318.8
1508.694146,16643.2
1512.064286,16682.4
1515.429781,16656.2
1518.790642,16425.2
1522.146879,16655.2
1525.498505,16314.8
1528.845529,16136.4
1532.187965,16898.8
1535.525822,16425
1538.859112,16345.8
1542.187846,17062.4
1545.512036,16156.6
1548.831693,17439.6
1552.146829,16992.8
1555.457453,16356.6
1558.763579,15934.8
1562.065216,16527.8
1565.362377,16874.6
1568.655073,17176.8
1571.943315,17155.8
1575.227114,17034.8
1578.506482,17192.4
1581.781431,17800.4
1585.051971,17253.2
1588.318114,17270.2
1591.579872,17232.8
1594.837255,16674.8
1598.090275,16231.6
1601.338945,16146.8
1604.583274,16270.8
1607.823275,15868.6
1611.058959,15297.6
1614.290338,16025.4
1617.517422,15191.2
1620.740224,15526
1623.958755,15192.8
1627.173027,15105.8
1630.38305,14722.8
1633.588838,15114.8
1636.7904,14872.6
1639.987749,15045.6
1643.180896,15190
1646.369853,14576
1649.554632,15270.4
1652.735244,14756
1655.9117,14272.4
1659.084013,14530
1662.252193,15155.6
1665.416254,14254
1668.576205,14421.6
1671.732059,14670.4
1674.883828,14700.8
1678.031523,14233.4
1681.175157,14284
1684.314739,14234.8
1687.450284,14183.2
1690.581801,14014
1693.709304,13814.2
1696.832803,13960.6
1699.952311,14080.2
1703.067839,14073.2
1706.179399,13988
1709.287003,14463.4
1712.390663,13940.4
1715.49039,13993.8
1718.586197,14286.6
1721.678095,14124.8
1724.766096,14150.6
1727.850213,13581.4
1730.930456,13847.2
1734.006838,13663.8
1737.079372,13935.6
1740.148067,13550
1743.212938,14588.6
1746.273996,13787.4
1749.331252,13608.6
1752.384718,13719.6
1755.434408,13784.4
1758.480332,13618
1761.522503,13690.2
1764.560933,13445
1767.595634,13147.6
1770.626618,13863.6
1773.653896,13850.8
1776.677482,13455.6
1779.697388,13505
1782.713625,13987.8
1785.726205,13935.4
1788.735141,13817.4
1791.740445,13455.8
1794.742129,13245.4
1797.740206,13799.6
1800.734687,13772.4
1803.725585,13631.6
1806.712912,13535.2
1809.69668,13213
1812.676902,13372
1815.65359,13054
1818.626756,13185
1821.596413,13269.4
1824.562573,12983.8
1827.525247,13335.2
1830.48445,13127.4
1833.440192,13370
1836.392487,13158.6
1839.341347,13369
1842.286784,13345
1845.22881,12891
1848.167439,13402.2
1851.102682,13187.4
1854.034553,13225.2
1856.963063,13005.2
1859.888226,13866.6
1862.810053,13340.2
1865.728557,13120.4
1868.643751,12860.6
1871.555648,12912.4
1874.46426,12658.6
1877.369599,13262.4
1880.271679,13122.4
1883.170512,12904.4
1886.06611,13449.6
1888.958487,13133.2
1891.847655,13068.8
1894.733626,13276
1897.616414,13243.2
1900.496032,12783.4
1903.372491,12973
1906.245805,13413.6
1909.115987,13422.6
1911.983049,13316.8
1914.847004,13167
1917.707866,13419.2
1920.565646,13297
1923.420359,12822.8
1926.272016,13026.6
1929.120631,12774.2
1931.966216,13005.2
1934.808786,12945.4
1937.648351,13229.6
1940.484927,13072.2
1943.318525,13227.8
1946.149158,13368
1948.97684,14405.6
1951.801584,13239.4
1954.623403,13108.2
1957.44231,13309.2
1960.258318,12759.2
1963.071439,12799.6
1965.881688,12956.8
1968.689078,13125.6
1971.493621,12953.6
