Ramanshift[cm-1],Intensity
-93.47115107,12979
-87.69374369,11761.2
-81.9253076,11681.6
-76.16582701,11708.4
-70.41528615,11713.2
-64.67366933,11447.8
-58.94096086,11442
-53.21714512,11698.4
-47.50220652,11849.8
-41.79612954,11841.8
-36.09889866,12279
-30.41049843,12374.4
-24.73091343,11910.2
-19.0601283,11970
-13.39812769,11893.6
-7.744896327,11634.6
-2.100418946,11395.8
3.535319659,12102.6
9.162334658,11508.2
14.78064118,11823.2
20.39025432,11446.8
25.99118913,11554.8
31.58346061,12023.2
37.16708375,11738.8
42.74207347,11488.2
48.30844468,11499
53.86621222,11439
59.41539093,11077.6
64.95599558,11147.2
70.48804091,11406.4
76.01154164,11452.2
81.52651243,11004.4
87.03296792,11473.6
92.5309227,11708.2
98.02039134,11068
103.5013884,11363.6
108.9739282,11236
114.4380255,11293.6
119.8936944,11375
125.3409495,12293.6
130.779805,11162
136.2102753,10973
141.6323747,11039.6
147.0461174,11585.2
152.4515176,11154
157.8485895,11140
163.2373472,11011.4
168.6178049,11268.8
173.9899766,11581.8
179.3538764,11147.2
184.7095182,11227.4
190.0569161,11457.8
195.396084,11508
200.7270358,11097
206.0497854,11153.4
211.3643466,10838.8
216.6707333,11175.2
221.9689593,10781.4
227.2590382,11116.4
232.5409839,10992.8
237.8148101,10982
243.0805303,11021
248.3381582,11053.8
253.5877075,10911
258.8291917,11031
264.0626244,11130
269.288019,11268.6
274.5053891,11472.4
279.7147481,11292.8
284.9161094,11315.8
290.1094865,12801.8
295.2948927,17038.4
300.4723414,26602.6
305.6418459,39021.4
310.8034194,49512.6
315.9570752,55347
321.1028267,56544
326.2406869,57446
331.370669,58287.6
336.4927863,60141
341.6070517,61298
346.7134786,62488.6
351.8120798,63215.2
356.9028684,63238
361.9858576,62840.6
367.0610602,62828
372.1284892,62899.8
377.1881577,63723.6
382.2400784,64164.6
387.2842644,64161.6
392.3207284,64166.6
397.3494833,64185
402.370542,64238
407.3839172,64372.4
412.3896217,62933.8
417.3876683,61279.2
422.3780697,60556.8
427.3608386,59517.6
432.3359876,59334.6
437.3035295,58502.4
442.2634769,58452.4
447.2158423,57097.2
452.1606383,57148
457.0978776,57065.2
462.0275727,56549.8
466.9497361,56703.2
471.8643802,56488.8
476.7715176,57699.4
481.6711608,58411.8
486.5633221,58979.2
491.448014,58290.8
496.3252488,57598.4
501.195039,57095.6
506.0573969,57002.8
510.9123349,56087.6
515.7598651,55487.4
520.6,55450.6
525.4327518,54773.4
530.2581327,54862
535.076155,54199.2
539.8868309,54794.4
544.6901726,54526.6
549.4861922,53361.6
554.2749019,53769.6
559.0563139,52915.4
563.8304402,52681.8
568.597293,53344.2
573.3568844,53021.6
578.1092263,52435.8
582.8543308,52927
587.5922101,53183.6
592.322876,52285.4
597.0463405,52875.2
601.7626157,53164
606.4717135,52585.6
611.1736458,52426.6
615.8684246,52082.4
620.5560617,52311.4
625.2365691,51964.8
629.9099585,52582.4
634.5762419,52301.6
639.2354312,51512.8
643.887538,51183.2
648.5325743,50935.8
653.1705518,51077.6
657.8014823,50939.6
662.4253775,50104.4
667.0422493,50501.4
671.6521092,50249.4
676.2549691,50212.2
680.8508407,50005.6
685.4397355,49985
690.0216654,50151.4
694.5966419,50176.4
699.1646767,50701.4
703.7257814,50761.8
708.2799676,50820.8
712.827247,51365.2
717.367631,50582.8
721.9011314,50166.2
726.4277595,49018.8
730.9475271,48851.2
735.4604456,48646.8
739.9665264,48973.2
744.4657813,48541.8
748.9582215,47872
753.4438587,47240.2
757.9227042,46429
762.3947696,46912.4
766.8600662,45987
771.3186056,47084.8
775.770399,46157.8
780.215458,46149.8
784.6537939,45155.8
789.0854181,45133.8
793.510342,45068.2
797.9285769,45417
802.3401342,44804.2
806.7450253,44876.2
811.1432614,44313.4
815.5348538,43832.6
819.9198139,43085.4
824.2981531,42920.8
828.6698824,42738.2
833.0350133,42201.2
837.393557,41489.8
841.7455248,41973.4
846.0909278,41430
850.4297774,41778.8
854.7620848,41919.4
859.0878611,41858.6
863.4071176,41279.8
867.7198655,41793.4
872.026116,42260.8
876.3258802,42293.6
880.6191693,41908.4
884.9059946,41978.4
889.186367,42002.4
893.4602979,40929.6
897.7277982,40788.8
901.9888793,41680.8
906.2435521,42061.8
910.4918277,41806
914.7337174,42186.6
918.9692321,41961.6
923.1983831,42676
927.4211813,41816
931.6376378,42718
935.8477637,42024.4
940.0515701,42503.6
944.249068,42770
948.4402684,41787
952.6251825,42332.4
956.8038212,42151
960.9761955,42819.4
965.1423166,42342
969.3021953,42447.8
973.4558427,42246.8
977.6032699,42107.4
981.7444877,41697
985.8795072,41833.4
990.0083394,41636.2
994.1309953,41630.8
998.2474857,42356.4
1002.357822,41715.8
1006.462014,42450.4
1010.560075,41728.4
1014.652013,41214.6
1018.737841,41184.8
1022.81757,40637.4
1026.891209,40461.4
1030.958771,40147.8
1035.020266,40392
1039.075705,40142.8
1043.1251,39836.4
1047.16846,40300.6
1051.205797,40846.6
1055.237121,41689
1059.262444,43545
1063.281777,46301.6
1067.295131,50108.8
1071.302515,54082.4
1075.303942,53890.4
1079.299422,53225
1083.288966,49007.8
1087.272585,44831.8
1091.250289,42158
1095.222091,41199.8
1099.187999,39894
1103.148026,40114.6
1107.102183,40004.4
1111.050479,40320.8
1114.992927,40756
1118.929536,41206.2
1122.860318,42894.8
1126.785283,44349.8
1130.704443,47519
1134.617808,51184.2
1138.52539,52503.6
1142.427198,50641.4
1146.323244,47637.8
1150.213538,44024.2
1154.098093,42706.2
1157.976917,40945.4
1161.850023,40649.8
1165.717421,40958.6
1169.579121,40672.4
1173.435135,40969.8
1177.285474,40486.6
1181.130148,40964.4
1184.969169,41480.2
1188.802547,40893.6
1192.630292,40162.4
1196.452416,39095.4
1200.26893,38413
1204.079844,37575.6
1207.88517,37189.8
1211.684917,37625.6
1215.479098,36856.4
1219.267722,38508.2
1223.050801,36900.4
1226.828346,37118.8
1230.600366,37135.2
1234.366874,36958.2
1238.12788,36928.6
1241.883395,37008.2
1245.633429,36998.4
1249.377994,37143.2
1253.1171,36550.4
1256.850759,36716.6
1260.578981,36542.4
1264.301776,36630.2
1268.019157,36249.8
1271.731133,36127.6
1275.437715,35858.8
1279.138915,36427.2
1282.834743,36627.2
1286.52521,36169
1290.210328,35956.8
1293.890106,35800.6
1297.564555,36850.6
1301.233688,36394
1304.897514,37092
1308.556044,36947.8
1312.209289,36470.2
1315.857261,35810.2
1319.499969,35614.4
1323.137425,36342.8
1326.769641,35606.8
1330.396626,36246.8
1334.018391,35666
1337.634948,36036
1341.246307,35721
1344.85248,35631.4
1348.453477,35557.8
1352.049309,35348.6
1355.639987,35507.2
1359.225522,36339.2
1362.805925,35855.2
1366.381207,35837.6
1369.951379,36400.4
1373.516452,36661.8
1377.076436,37323.4
1380.631343,38438.2
1384.181184,39234.6
1387.725969,40056.6
1391.26571,39628.6
1394.800417,37954
1398.330102,36100.6
1401.854776,35291.2
1405.374448,34271.6
1408.889132,34015.6
1412.398837,34014
1415.903574,35163
1419.403355,37322.8
1422.89819,38930.8
1426.388091,40307
1429.873069,41235.6
1433.353134,39952.4
1436.828298,38429.2
1440.298571,36501.8
1443.763965,34982.2
1447.224491,33832
1450.68016,32963.6
1454.130983,32922.2
1457.576971,32310.2
1461.018135,32479
1464.454486,32314.4
1467.886036,31940.6
1471.312794,31770
1474.734774,31250
1478.151985,31679.4
1481.564439,31112.2
1484.972146,30616.4
1488.375119,30033.8
1491.773368,30211.8
1495.166904,30526.8
1498.555739,29928.2
1501.939883,29798
1505.319349,29257.6
1508.694146,29636.4
1512.064286,29654
1515.429781,29369.4
1518.790642,29398
1522.146879,29421.6
1525.498505,29136.8
1528.845529,28894.8
1532.187965,29778.6
1535.525822,29396.4
1538.859112,29365
1542.187846,30072.6
1545.512036,29273
1548.831693,30509
1552.146829,30201.8
1555.457453,29915.6
1558.763579,29677.8
1562.065216,30747.6
1565.362377,31388.8
1568.655073,32088.6
1571.943315,32182.6
1575.227114,32123.6
1578.506482,32112.6
1581.781431,32179.4
1585.051971,31635.4
1588.318114,31176.4
1591.579872,30387.4
1594.837255,28929.2
1598.090275,27612
1601.338945,27026.8
1604.583274,26655.6
1607.823275,25949.4
1611.058959,25201.8
1614.290338,25808.8
1617.517422,24665
1620.740224,24805
1623.958755,24252
1627.173027,23845
1630.38305,23471.2
1633.588838,23577.8
1636.7904,23287.6
1639.987749,23253.6
1643.180896,23296.6
1646.369853,22256
1649.554632,23049
1652.735244,22287.8
1655.9117,21802
1659.084013,21848.2
1662.252193,22300.8
1665.416254,21389.8
1668.576205,21613.8
1671.732059,21603.6
1674.883828,21597.8
1678.031523,21117.4
1681.175157,20959.2
1684.314739,20890.4
1687.450284,20687.4
1690.581801,20495.8
1693.709304,20203.6
1696.832803,20205.2
1699.952311,20398.2
1703.067839,20245.4
1706.179399,20129.2
1709.287003,20551.8
1712.390663,20037.6
1715.49039,20079.4
1718.586197,20132.4
1721.678095,19986.2
1724.766096,19911
1727.850213,19386.2
1730.930456,19498.4
1734.006838,19404.6
1737.079372,19460
1740.148067,19063.8
1743.212938,20001
1746.273996,18966.2
1749.331252,18986
1752.384718,18943.2
1755.434408,18885
1758.480332,18809.4
1761.522503,18707.4
1764.560933,18517.4
1767.595634,17915.8
1770.626618,18614.4
1773.653896,18593.2
1776.677482,18182
1779.697388,18230.2
1782.713625,18621.2
1785.726205,18652.2
1788.735141,18486
1791.740445,18128.8
1794.742129,17846
1797.740206,18247.4
1800.734687,18395.4
1803.725585,18134.6
1806.712912,18110.8
1809.69668,17703.6
1812.676902,17889.2
1815.65359,17600.2
1818.626756,17675
1821.596413,17669.6
1824.562573,17307.8
1827.525247,17696.8
1830.48445,17495.6
1833.440192,17641.8
1836.392487,17382.4
1839.341347,17619.8
1842.286784,17557
1845.22881,17082.2
1848.167439,17600.4
1851.102682,17408.4
1854.034553,17379.4
1856.963063,17194
1859.888226,17985
1862.810053,17405
1865.728557,17218.6
1868.643751,16926.2
1871.555648,17011.4
1874.46426,16602.8
1877.369599,17220.4
1880.271679,16983.2
1883.170512,16900.2
1886.06611,17217.6
1888.958487,16917
1891.847655,16906
1894.733626,16949
1897.616414,17042.4
1900.496032,16525.8
1903.372491,16777.4
1906.245805,17036.2
1909.115987,17073.2
1911.983049,16857.6
1914.847004,16809
1917.707866,16950.6
1920.565646,16767.6
1923.420359,16502.8
1926.272016,16562.2
1929.120631,16390.8
1931.966216,16500.4
1934.808786,16435.6
1937.648351,16656.4
1940.484927,16442.2
1943.318525,16453.4
1946.149158,16675.8
1948.97684,17697.8
1951.801584,16529.2
1954.623403,16489.6
1957.44231,16580.6
1960.258318,15983.4
1963.071439,16123.2
1965.881688,16110.4
1968.689078,16328.4
1971.493621,15993.8
