Ramanshift[cm-1],Intensity
-93.47115107,14314.4
-87.69374369,12915
-81.9253076,12769.2
-76.16582701,12915.2
-70.41528615,12936.6
-64.67366933,12647.4
-58.94096086,12713.6
-53.21714512,12818.4
-47.50220652,12905.8
-41.79612954,12975.6
-36.09889866,13401.6
-30.41049843,13614.4
-24.73091343,13132.2
-19.0601283,13136.2
-13.39812769,12940.8
-7.744896327,12627.6
-2.100418946,12470.8
3.535319659,13131.6
9.162334658,12526.8
14.78064118,12857.2
20.39025432,12499.4
25.99118913,12539.8
31.58346061,13090.2
37.16708375,12933.6
42.74207347,12525.4
48.30844468,12574
53.86621222,12422.4
59.41539093,12093.8
64.95599558,12073.8
70.48804091,12462.8
76.01154164,12600.8
81.52651243,11963.4
87.03296792,12517.2
92.5309227,12765
98.02039134,12159.6
103.5013884,12460.4
108.9739282,12215.2
114.4380255,12269.4
119.8936944,12504.2
125.3409495,13344
130.779805,12234.8
136.2102753,11901.6
141.6323747,12034
147.0461174,12609.2
152.4515176,12230.8
157.8485895,12251.4
163.2373472,12023.6
168.6178049,12359.6
173.9899766,12737.2
179.3538764,12199.2
184.7095182,12275
190.0569161,12420.4
195.396084,12683.2
200.7270358,12050.4
206.0497854,12065.6
211.3643466,11815.8
216.6707333,12259.6
221.9689593,11816.2
227.2590382,11971
232.5409839,12018.2
237.8148101,11888.8
243.0805303,12075.8
248.3381582,12015.4
253.5877075,11846.6
258.8291917,11982.2
264.0626244,12112.4
269.288019,12321.6
274.5053891,12387.4
279.7147481,12036
284.9161094,11760.8
290.1094865,12135.8
295.2948927,12827.2
300.4723414,14543.8
305.6418459,15900.6
310.8034194,17366.2
315.9570752,18744.6
321.1028267,19153.8
326.2406869,19215.4
331.370669,19391.6
336.4927863,19600.6
341.6070517,19719.4
346.7134786,19577.6
351.8120798,20005.4
356.9028684,19620.4
361.9858576,19716.2
367.0610602,20002.4
372.1284892,19814.6
377.1881577,20050.6
382.2400784,19940.4
387.2842644,20083
392.3207284,21076.6
397.3494833,21057.2
402.370542,21579.4
407.3839172,20925.8
412.3896217,20119.2
417.3876683,19494.2
422.3780697,19454.6
427.3608386,19368.6
432.3359876,19498.6
437.3035295,19505.2
442.2634769,19744.8
447.2158423,18821.2
452.1606383,18884.8
457.0978776,19185
462.0275727,18389
466.9497361,19053.2
471.8643802,18365.2
476.7715176,18752
481.6711608,18755.6
486.5633221,19047.4
491.448014,18936
496.3252488,18837
501.195039,18854.4
506.0573969,19279
510.9123349,18795
515.7598651,18286
520.6,18887.8
525.4327518,18735.2
530.2581327,18680
535.076155,18106.4
539.8868309,18558
544.6901726,18716
549.4861922,18369.6
554.2749019,19235.6
559.0563139,18221
563.8304402,18115.2
568.597293,19173
573.3568844,18806.2
578.1092263,18305.6
582.8543308,18827
587.5922101,18731.6
592.322876,18424
597.0463405,18424.6
601.7626157,18675.2
606.4717135,18333.8
611.1736458,18203.6
615.8684246,18404.4
620.5560617,18651.2
625.2365691,18297.2
629.9099585,18669.4
634.5762419,18931.6
639.2354312,18332
643.887538,18419
648.5325743,18247
653.1705518,18175.2
657.8014823,18404.6
662.4253775,17651.8
667.0422493,18124.6
671.6521092,18084.4
676.2549691,18186.2
680.8508407,18242.8
685.4397355,18087.8
690.0216654,18167.6
694.5966419,17904.6
699.1646767,18480.4
703.7257814,18063.2
708.2799676,18208.8
712.827247,18408.6
717.367631,18187.4
721.9011314,18122
726.4277595,17598
730.9475271,18143
735.4604456,17992.8
739.9665264,18471.2
744.4657813,18071
748.9582215,17856.6
753.4438587,17415.8
757.9227042,17274.8
762.3947696,17828.4
766.8600662,17355.6
771.3186056,18724.2
775.770399,17639.4
780.215458,18096.2
784.6537939,17292.6
789.0854181,17277.8
793.510342,17327.2
797.9285769,17927.2
802.3401342,17362.6
806.7450253,17653.2
811.1432614,17450.2
815.5348538,17225.6
819.9198139,16966
824.2981531,17317
828.6698824,17304.2
833.0350133,17218
837.393557,16926.2
841.7455248,17208.2
846.0909278,17053
850.4297774,16999.6
854.7620848,17009.8
859.0878611,17240.2
863.4071176,16627.8
867.7198655,17025.4
872.026116,17470.2
876.3258802,17769.2
880.6191693,17285.6
884.9059946,17260.6
889.186367,17685
893.4602979,16660.2
897.7277982,16640.6
901.9888793,16993.4
906.2435521,17436.6
910.4918277,16859.2
914.7337174,16679.8
918.9692321,16756
923.1983831,17227.6
927.4211813,16857
931.6376378,17656.6
935.8477637,17043
940.0515701,17269.8
944.249068,17269.8
948.4402684,16469.6
952.6251825,17426.4
956.8038212,16907.6
960.9761955,17647
965.1423166,17028.2
969.3021953,17200.4
973.4558427,17114.6
977.6032699,16778.2
981.7444877,17007.8
985.8795072,16966
990.0083394,17102.6
994.1309953,16699
998.2474857,17077.6
1002.357822,16160
1006.462014,16867.8
1010.560075,16696.6
1014.652013,17048.2
1018.737841,17337.4
1022.81757,16715.4
1026.891209,16559.8
1030.958771,16584.2
1035.020266,16846
1039.075705,16544.4
1043.1251,16341.4
1047.16846,16669.6
1051.205797,16460.6
1055.237121,16198
1059.262444,16009
1063.281777,15818.2
1067.295131,15991.6
1071.302515,16986.4
1075.303942,16694.4
1079.299422,17941.4
1083.288966,17961.8
1087.272585,17866.6
1091.250289,17622.8
1095.222091,17232.2
1099.187999,16525.4
1103.148026,16488.4
1107.102183,16356
1111.050479,16522.4
1114.992927,16276.2
1118.929536,16142.8
1122.860318,16575.4
1126.785283,15966.6
1130.704443,15813.4
1134.617808,16729.2
1138.52539,16487.6
1142.427198,16562.2
1146.323244,16684.8
1150.213538,16334.4
1154.098093,16677.6
1157.976917,15984.4
1161.850023,15791.8
1165.717421,16319.6
1169.579121,16072.8
1173.435135,16415.4
1177.285474,15357.2
1181.130148,15758.2
1184.969169,16192
1188.802547,16340.2
1192.630292,15948.6
1196.452416,15640
1200.26893,15624.2
1204.079844,15351.2
1207.88517,14904
1211.684917,15547.8
1215.479098,15117.2
1219.267722,16685.8
1223.050801,15082.2
1226.828346,15213.8
1230.600366,15598.4
1234.366874,15374.2
1238.12788,15219.8
1241.883395,15278.6
1245.633429,15610.4
1249.377994,15636.4
1253.1171,14758
1256.850759,15380.2
1260.578981,15173.2
1264.301776,15127
1268.019157,15106
1271.731133,14953.6
1275.437715,14709.6
1279.138915,15357.6
1282.834743,15528.8
1286.52521,15168.8
1290.210328,14884.2
1293.890106,15026.2
1297.564555,15492.2
1301.233688,14824
1304.897514,15281.2
1308.556044,15352.2
1312.209289,15249.6
1315.857261,14834
1319.499969,14836
1323.137425,15773.6
1326.769641,15176.2
1330.396626,15711.2
1334.018391,15131.8
1337.634948,15275.6
1341.246307,14924.4
1344.85248,14839.4
1348.453477,14763.2
1352.049309,14717.6
1355.639987,14776.6
1359.225522,15461.4
1362.805925,14922
1366.381207,14964
1369.951379,15007.8
1373.516452,15191.4
1377.076436,15180.4
1380.631343,15034.2
1384.181184,14883.4
1387.725969,15014.6
1391.26571,14791.8
1394.800417,14661.2
1398.330102,14856.8
1401.854776,15094.4
1405.374448,14849.2
1408.889132,14428.4
1412.398837,14033.6
1415.903574,14345.2
1419.403355,14883.6
1422.89819,14537
1426.388091,14428
1429.873069,15117
1433.353134,14466
1436.828298,14568.4
1440.298571,14725.6
1443.763965,14480.8
1447.224491,14394
1450.68016,14320.2
1454.130983,14814.8
1457.576971,14631.6
1461.018135,14873.6
1464.454486,14971.8
1467.886036,14468
1471.312794,14490.2
1474.734774,14152.8
1478.151985,14861.2
1481.564439,14518
1484.972146,14483.4
1488.375119,13990.6
1491.773368,14388.6
1495.166904,14995
1498.555739,14237.2
1501.939883,14337.2
1505.319349,13884.2
1508.694146,14313
1512.064286,14171.8
1515.429781,14191.8
1518.790642,14025.6
1522.146879,14356
1525.498505,13670
1528.845529,13714.6
1532.187965,14481
1535.525822,14101.8
1538.859112,14151
1542.187846,14652.2
1545.512036,13794.8
1548.831693,15172.4
1552.146829,14432.4
1555.457453,13816.6
1558.763579,13393.4
1562.065216,14012.2
1565.362377,14145
1568.655073,14479.6
1571.943315,14267.8
1575.227114,14198
1578.506482,14125.4
1581.781431,14723.8
1585.051971,14309.8
1588.318114,14469.6
1591.579872,14544.8
1594.837255,14434
1598.090275,14370.2
1601.338945,14315.2
1604.583274,14534.2
1607.823275,14086.6
1611.058959,13531.6
1614.290338,14373.6
1617.517422,13451
1620.740224,13694
1623.958755,13506.6
1627.173027,13490.2
1630.38305,13079
1633.588838,13645.8
1636.7904,13339.2
1639.987749,13607.8
1643.180896,13805.8
1646.369853,13203.8
1649.554632,14045.8
1652.735244,13311.2
1655.9117,12903
1659.084013,13442.8
1662.252193,13885.2
1665.416254,13032.8
1668.576205,13366.8
1671.732059,13623.2
1674.883828,13670.2
1678.031523,13152.6
1681.175157,13347
1684.314739,13259.2
1687.450284,13269.4
1690.581801,13216
1693.709304,12981.6
1696.832803,13056.6
1699.952311,13200
1703.067839,13149
1706.179399,13148.2
1709.287003,13591.2
1712.390663,13068.4
1715.49039,13167.2
1718.586197,13450.6
1721.678095,13424
1724.766096,13349.4
1727.850213,12694.6
1730.930456,13158.6
1734.006838,12934.8
1737.079372,13330
1740.148067,12837.6
1743.212938,13968
1746.273996,13148.8
1749.331252,13039.4
1752.384718,13063.2
1755.434408,13070.4
1758.480332,13169
1761.522503,13053.4
1764.560933,12793
1767.595634,12559
1770.626618,13282.4
1773.653896,13240.8
1776.677482,12876.4
1779.697388,12877.4
1782.713625,13486.8
1785.726205,13302.6
1788.735141,13383.6
1791.740445,12827.6
1794.742129,12802.4
1797.740206,13325.6
1800.734687,13361.6
1803.725585,13012.2
1806.712912,13078.4
1809.69668,12738
1812.676902,12778.8
1815.65359,12555.6
1818.626756,12636.6
1821.596413,12785.8
1824.562573,12408
1827.525247,12775.6
1830.48445,12602.6
1833.440192,12734.4
1836.392487,12623
1839.341347,12907.2
1842.286784,12929.4
1845.22881,12448
1848.167439,12956.8
1851.102682,12773.4
1854.034553,12768.4
1856.963063,12606
1859.888226,13521.6
1862.810053,12948
1865.728557,12727.8
1868.643751,12523.4
1871.555648,12579.6
1874.46426,12225
1877.369599,12890.6
1880.271679,12605.8
1883.170512,12607.8
1886.06611,13059.6
1888.958487,12673.6
1891.847655,12667.6
1894.733626,12832
1897.616414,12867.4
1900.496032,12414
1903.372491,12634.8
1906.245805,13023.8
1909.115987,13037.8
1911.983049,12897.4
1914.847004,12814
1917.707866,12954
1920.565646,12937.4
1923.420359,12504.6
1926.272016,12771.2
1929.120631,12421
1931.966216,12707.4
1934.808786,12586.4
1937.648351,12941
1940.484927,12723.4
1943.318525,12834.4
1946.149158,13110
1948.97684,14142.2
1951.801584,13124.6
1954.623403,12804.6
1957.44231,13016.8
1960.258318,12480.4
1963.071439,12569
1965.881688,12757.4
1968.689078,12887.4
1971.493621,12544.6
