Ramanshift[cm-1],Intensity
-93.47115107,14171
-87.69374369,12975.6
-81.9253076,12703.4
-76.16582701,12896.8
-70.41528615,12835.4
-64.67366933,12569.4
-58.94096086,12619.8
-53.21714512,12781.6
-47.50220652,12878.8
-41.79612954,12939.6
-36.09889866,13399.2
-30.41049843,13451
-24.73091343,13191.2
-19.0601283,13174.2
-13.39812769,12941.6
-7.744896327,12667.4
-2.100418946,12547.6
3.535319659,13138
9.162334658,12517.2
14.78064118,12970.4
20.39025432,12572.8
25.99118913,12601.6
31.58346061,13051.4
37.16708375,12969
42.74207347,12475.2
48.30844468,12565.6
53.86621222,12413.4
59.41539093,12094.4
64.95599558,12041.4
70.48804091,12550.2
76.01154164,12552.2
81.52651243,11936.4
87.03296792,12543.2
92.5309227,12844.8
98.02039134,12041.8
103.5013884,12460.2
108.9739282,12196.8
114.4380255,12246.6
119.8936944,12466
125.3409495,13319.8
130.779805,12237.4
136.2102753,12027.8
141.6323747,12033.8
147.0461174,12567
152.4515176,12109
157.8485895,12095.6
163.2373472,12106.4
168.6178049,12347.6
173.9899766,12676.2
179.3538764,12141.2
184.7095182,12195.6
190.0569161,12460.4
195.396084,12651.6
200.7270358,12026.8
206.0497854,12049.8
211.3643466,11813.6
216.6707333,12179
221.9689593,11814.2
227.2590382,12008.8
232.5409839,12029.8
237.8148101,11926
243.0805303,11965
248.3381582,12005.8
253.5877075,11794
258.8291917,12111.4
264.0626244,12086.2
269.288019,12256
274.5053891,12443.4
279.7147481,12209.4
284.9161094,11801
290.1094865,12273
295.2948927,13387.2
300.4723414,16054.6
305.6418459,18764.8
310.8034194,21249.4
315.9570752,23297
321.1028267,23723.8
326.2406869,23948.6
331.370669,24380.6
336.4927863,24476
341.6070517,24855.4
346.7134786,24982
351.8120798,25322.6
356.9028684,25191.4
361.9858576,25040.4
367.0610602,25247.4
372.1284892,25108.2
377.1881577,25412.4
382.2400784,25832.4
387.2842644,26507.6
392.3207284,27237
397.3494833,26748.4
402.370542,26478.8
407.3839172,25660.4
412.3896217,24828.2
417.3876683,24366.8
422.3780697,24298.2
427.3608386,24065.2
432.3359876,24507.4
437.3035295,24477.6
442.2634769,24512.6
447.2158423,23569
452.1606383,23532.4
457.0978776,23731.4
462.0275727,23081
466.9497361,23581.2
471.8643802,22923.4
476.7715176,23507.2
481.6711608,23418
486.5633221,23875.6
491.448014,23687.8
496.3252488,23397.2
501.195039,23671
506.0573969,23793.4
510.9123349,23301
515.7598651,22821.8
520.6,23261.2
525.4327518,23042.6
530.2581327,23053
535.076155,22463.4
539.8868309,22943.2
544.6901726,23030.8
549.4861922,22695.6
554.2749019,23767.4
559.0563139,22846.2
563.8304402,22625.6
568.597293,23699.2
573.3568844,23291.2
578.1092263,22640.4
582.8543308,22995.2
587.5922101,22843.4
592.322876,22542.4
597.0463405,22620.4
601.7626157,22821.8
606.4717135,22415.8
611.1736458,22375.6
615.8684246,22320.2
620.5560617,22722.2
625.2365691,22404.8
629.9099585,22732.2
634.5762419,23006.6
639.2354312,22293.4
643.887538,22669
648.5325743,22331.8
653.1705518,22085.8
657.8014823,22373.2
662.4253775,21613.8
667.0422493,22084.4
671.6521092,21980.4
676.2549691,22216.6
680.8508407,21950
685.4397355,21913
690.0216654,22048
694.5966419,21570.8
699.1646767,22273.8
703.7257814,22055.6
708.2799676,22150.4
712.827247,22057.4
717.367631,21830.4
721.9011314,21761
726.4277595,21153
730.9475271,21722.4
735.4604456,21579
739.9665264,21913.2
744.4657813,21537.4
748.9582215,21413.6
753.4438587,21078.6
757.9227042,20680.6
762.3947696,21284.4
766.8600662,20718
771.3186056,22178.4
775.770399,21092.6
780.215458,21410
784.6537939,20646
789.0854181,20477.8
793.510342,20521
797.9285769,21202.4
802.3401342,20633
806.7450253,20776.6
811.1432614,20557
815.5348538,20328.4
819.9198139,19982
824.2981531,20144
828.6698824,20318.6
833.0350133,20112.2
837.393557,19844.2
841.7455248,20216.6
846.0909278,19789.4
850.4297774,19904.4
854.7620848,19995
859.0878611,20248.2
863.4071176,19645
867.7198655,20015.6
872.026116,20381.8
876.3258802,20771.6
880.6191693,20220.8
884.9059946,20202.4
889.186367,20678.6
893.4602979,19424.8
897.7277982,19335
901.9888793,19941.4
906.2435521,20380.4
910.4918277,19679.8
914.7337174,19740.6
918.9692321,19609.6
923.1983831,20235.8
927.4211813,19864.2
931.6376378,20666.2
935.8477637,20066.8
940.0515701,20143.8
944.249068,20271.8
948.4402684,19362.2
952.6251825,20177.4
956.8038212,19895.6
960.9761955,20515.6
965.1423166,20019.6
969.3021953,19990.6
973.4558427,20131
977.6032699,19751
981.7444877,19975.4
985.8795072,19778.6
990.0083394,19882.8
994.1309953,19599.6
998.2474857,20014.6
1002.357822,19079.2
1006.462014,19755.4
1010.560075,19437.4
1014.652013,19776.4
1018.737841,20095.2
1022.81757,19548
1026.891209,19469.2
1030.958771,19301.8
1035.020266,19679.6
1039.075705,19343.4
1043.1251,19038.2
1047.16846,19294.6
1051.205797,19255.4
1055.237121,18989.4
1059.262444,18992.8
1063.281777,18999.2
1067.295131,19413.2
1071.302515,21132.8
1075.303942,20901.2
1079.299422,21946.4
1083.288966,21105.2
1087.272585,20157.2
1091.250289,19716.4
1095.222091,19650
1099.187999,19054.6
1103.148026,19188
1107.102183,19062.4
1111.050479,19198.2
1114.992927,19182.8
1118.929536,19027.8
1122.860318,19394.6
1126.785283,18909.8
1130.704443,18925.8
1134.617808,19853.4
1138.52539,19793.8
1142.427198,19760.4
1146.323244,19582.2
1150.213538,19108.8
1154.098093,19613.2
1157.976917,18835.2
1161.850023,18732
1165.717421,19334.6
1169.579121,19040.4
1173.435135,19467.6
1177.285474,18600.6
1181.130148,18884
1184.969169,19190
1188.802547,18927.8
1192.630292,18441.4
1196.452416,18086.4
1200.26893,18252.6
1204.079844,17946
1207.88517,17422.6
1211.684917,18208
1215.479098,17836.2
1219.267722,19436.6
1223.050801,17761.2
1226.828346,17891
1230.600366,18055
1234.366874,18003
1238.12788,17860.4
1241.883395,17973.6
1245.633429,18325
1249.377994,18292.4
1253.1171,17660
1256.850759,17855
1260.578981,17750.4
1264.301776,17910.2
1268.019157,17857.6
1271.731133,17557.2
1275.437715,17342
1279.138915,17858.4
1282.834743,18197.8
1286.52521,17601.6
1290.210328,17408
1293.890106,17579
1297.564555,18148
1301.233688,17393.2
1304.897514,17836.2
1308.556044,17874.8
1312.209289,17944.2
1315.857261,17366
1319.499969,17508.4
1323.137425,18291.4
1326.769641,17610
1330.396626,18466.8
1334.018391,17671.2
1337.634948,17803.6
1341.246307,17503.8
1344.85248,17595.4
1348.453477,17394.2
1352.049309,17338.2
1355.639987,17386.2
1359.225522,18030.6
1362.805925,17517.6
1366.381207,17668
1369.951379,17704.2
1373.516452,17774.6
1377.076436,17975.4
1380.631343,17876.8
1384.181184,17649.2
1387.725969,17761.2
1391.26571,17326.2
1394.800417,17267
1398.330102,17338
1401.854776,17393
1405.374448,17088
1408.889132,16803.6
1412.398837,16398.4
1415.903574,16689.2
1419.403355,17323.8
1422.89819,16836.2
1426.388091,16917.6
1429.873069,17453.2
1433.353134,16932.4
1436.828298,17011.4
1440.298571,17015.6
1443.763965,16695.4
1447.224491,16462.6
1450.68016,16538.4
1454.130983,16953
1457.576971,16736.6
1461.018135,16847
1464.454486,16967.8
1467.886036,16505.6
1471.312794,16622
1474.734774,16181
1478.151985,16959.8
1481.564439,16661
1484.972146,16482.2
1488.375119,15986.4
1491.773368,16368.8
1495.166904,17052.6
1498.555739,16192.2
1501.939883,16229.4
1505.319349,15942.2
1508.694146,16233.4
1512.064286,16208.6
1515.429781,16153.4
1518.790642,16032
1522.146879,16302.6
1525.498505,15714.4
1528.845529,15707
1532.187965,16383.2
1535.525822,16086.6
1538.859112,15950.4
1542.187846,16556.6
1545.512036,15652.4
1548.831693,16996.4
1552.146829,16457
1555.457453,15771
1558.763579,15352.2
1562.065216,15743
1565.362377,16180.4
1568.655073,16518.4
1571.943315,16298.8
1575.227114,16377
1578.506482,16465.6
1581.781431,16849.8
1585.051971,16424
1588.318114,16452.4
1591.579872,16364.2
1594.837255,15982.6
1598.090275,15743.6
1601.338945,15555.8
1604.583274,15786.4
1607.823275,15473.6
1611.058959,14892.2
1614.290338,15736.6
1617.517422,14728.6
1620.740224,15103
1623.958755,14770.4
1627.173027,14813.4
1630.38305,14461.6
1633.588838,14754.8
1636.7904,14613.8
1639.987749,14764
1643.180896,14906
1646.369853,14345.6
1649.554632,15072.8
1652.735244,14357.8
1655.9117,14036.4
1659.084013,14323.2
1662.252193,14895
1665.416254,14118
1668.576205,14267.2
1671.732059,14547.2
1674.883828,14600.2
1678.031523,14084.8
1681.175157,14129.4
1684.314739,14087
1687.450284,14056.2
1690.581801,13905.8
1693.709304,13779.4
1696.832803,13865.4
1699.952311,14009.8
1703.067839,14005
1706.179399,13921.2
1709.287003,14383
1712.390663,13821
1715.49039,13878.8
1718.586197,14136
1721.678095,13980
1724.766096,14028
1727.850213,13456.4
1730.930456,13759.2
1734.006838,13600.6
1737.079372,14017
1740.148067,13570.6
1743.212938,14581.6
1746.273996,13739.6
1749.331252,13728.6
1752.384718,13767
1755.434408,13722.6
1758.480332,13558.6
1761.522503,13671.8
1764.560933,13494
1767.595634,13136.8
1770.626618,13870.8
1773.653896,13812.6
1776.677482,13425.6
1779.697388,13472.8
1782.713625,13953.2
1785.726205,13875.6
1788.735141,13820.6
1791.740445,13430.6
1794.742129,13309.6
1797.740206,13763.6
1800.734687,13830.2
1803.725585,13604
1806.712912,13624.8
1809.69668,13352.6
1812.676902,13393.8
1815.65359,13120.6
1818.626756,13124.2
1821.596413,13184.2
1824.562573,12940.2
1827.525247,13324.2
1830.48445,13140
1833.440192,13220.8
1836.392487,13176
1839.341347,13354.8
1842.286784,13386
1845.22881,12918
1848.167439,13452.2
1851.102682,13163.4
1854.034553,13262.2
1856.963063,13011.4
1859.888226,13901.8
1862.810053,13329.6
1865.728557,13201.2
1868.643751,12963
1871.555648,13019.2
1874.46426,12637.2
1877.369599,13311.2
1880.271679,12993.8
1883.170512,13069.6
1886.06611,13478.8
1888.958487,13035.4
1891.847655,13162
1894.733626,13131.2
1897.616414,13291
1900.496032,12780
1903.372491,13098
1906.245805,13320.4
1909.115987,13463.8
1911.983049,13420.6
1914.847004,13299
1917.707866,13439
1920.565646,13404.4
1923.420359,12899.8
1926.272016,13124
1929.120631,12830.4
1931.966216,13059
1934.808786,13025.6
1937.648351,13240
1940.484927,13226.2
1943.318525,13243
1946.149158,13412.4
1948.97684,14534.4
1951.801584,13459
1954.623403,13292.6
1957.44231,13360.2
1960.258318,12933.6
1963.071439,12892.4
1965.881688,13059
1968.689078,13174.8
1971.493621,12906.8
