Ramanshift[cm-1],Intensity
-93.47115107,14241.8
-87.69374369,12933
-81.9253076,12727
-76.16582701,12792.8
-70.41528615,12923.4
-64.67366933,12631.8
-58.94096086,12506.2
-53.21714512,12838.8
-47.50220652,13034.2
-41.79612954,13028.6
-36.09889866,13378.2
-30.41049843,13463.8
-24.73091343,13113.2
-19.0601283,13218.4
-13.39812769,13088.4
-7.744896327,12634.8
-2.100418946,12528.2
3.535319659,13222
9.162334658,12564.6
14.78064118,12841
20.39025432,12550.4
25.99118913,12583.2
31.58346061,13075.2
37.16708375,12944.8
42.74207347,12513
48.30844468,12649.2
53.86621222,12423
59.41539093,12111.8
64.95599558,12070.8
70.48804091,12602.6
76.01154164,12582.4
81.52651243,12061.2
87.03296792,12541.4
92.5309227,12873.6
98.02039134,12184
103.5013884,12527.8
108.9739282,12247.2
114.4380255,12266.4
119.8936944,12537.8
125.3409495,13469.6
130.779805,12238.6
136.2102753,11929
141.6323747,12012.6
147.0461174,12668.4
152.4515176,12205.4
157.8485895,12220.8
163.2373472,12081.4
168.6178049,12431.4
173.9899766,12683.8
179.3538764,12204.2
184.7095182,12239.8
190.0569161,12486.4
195.396084,12665
200.7270358,12061.8
206.0497854,12128.2
211.3643466,11733.8
216.6707333,12280.2
221.9689593,11863.4
227.2590382,12053.4
232.5409839,11997.4
237.8148101,11898.6
243.0805303,12080.6
248.3381582,12033.8
253.5877075,11904.6
258.8291917,12010.2
264.0626244,12092
269.288019,12291.6
274.5053891,12473.8
279.7147481,12174.6
284.9161094,12044
290.1094865,12942.8
295.2948927,15573.8
300.4723414,21422.8
305.6418459,28489.2
310.8034194,34892.4
315.9570752,38768.8
321.1028267,39717
326.2406869,40075.6
331.370669,40849.6
336.4927863,41701.4
341.6070517,42248.4
346.7134786,42981
351.8120798,43587.8
356.9028684,43367.6
361.9858576,43160.4
367.0610602,43506.6
372.1284892,42931.2
377.1881577,43584
382.2400784,44101
387.2842644,45039.6
392.3207284,45919.2
397.3494833,45218.4
402.370542,44813
407.3839172,43717.4
412.3896217,42590.2
417.3876683,41907
422.3780697,41831.2
427.3608386,41564.6
432.3359876,41586.4
437.3035295,41269.6
442.2634769,41469.6
447.2158423,40250.2
452.1606383,40270.2
457.0978776,40411.2
462.0275727,39693.4
466.9497361,40116
471.8643802,39486
476.7715176,40201.2
481.6711608,40263.4
486.5633221,40665
491.448014,40126
496.3252488,40139
501.195039,40043.4
506.0573969,40077.6
510.9123349,39529.8
515.7598651,39068.8
520.6,39151
525.4327518,38866.4
530.2581327,38916.2
535.076155,38154.8
539.8868309,38523
544.6901726,38352.6
549.4861922,37961
554.2749019,38839
559.0563139,38140
563.8304402,37823.2
568.597293,38624.8
573.3568844,38380.6
578.1092263,37683.8
582.8543308,38209
587.5922101,38337.4
592.322876,37620.6
597.0463405,37867.4
601.7626157,38387.8
606.4717135,37651
611.1736458,37667.4
615.8684246,37593.6
620.5560617,37921.2
625.2365691,37510.6
629.9099585,38043.8
634.5762419,37884
639.2354312,37051.6
643.887538,37217.2
648.5325743,37029.4
653.1705518,36714.6
657.8014823,37122.4
662.4253775,36147.6
667.0422493,36792.8
671.6521092,36651.2
676.2549691,36653.4
680.8508407,36572
685.4397355,36331.6
690.0216654,36517.2
694.5966419,36372
699.1646767,36899
703.7257814,36600.8
708.2799676,36640.2
712.827247,36681.2
717.367631,36306.2
721.9011314,36328.4
726.4277595,35432.2
730.9475271,36180.2
735.4604456,35958.6
739.9665264,36293
744.4657813,35848.6
748.9582215,35420.8
753.4438587,34866.2
757.9227042,34589.4
762.3947696,34886.2
766.8600662,34060.8
771.3186056,35431.4
775.770399,34206
780.215458,34403.8
784.6537939,33675.6
789.0854181,33511
793.510342,33319.8
797.9285769,33909.2
802.3401342,33372.6
806.7450253,33283
811.1432614,33069.4
815.5348538,32743.2
819.9198139,32279.6
824.2981531,32421.2
828.6698824,32231.4
833.0350133,31940.8
837.393557,31578.4
841.7455248,32211
846.0909278,31730.4
850.4297774,31680.8
854.7620848,31754
859.0878611,32008
863.4071176,31294
867.7198655,31839.8
872.026116,31982.4
876.3258802,32501.8
880.6191693,32021.8
884.9059946,31860.6
889.186367,32360.8
893.4602979,30846.2
897.7277982,30839.4
901.9888793,31427.4
906.2435521,31829.2
910.4918277,31416.6
914.7337174,31433.6
918.9692321,31531.2
923.1983831,32056.2
927.4211813,31406.2
931.6376378,32269
935.8477637,31620.2
940.0515701,32079.2
944.249068,32024.2
948.4402684,31041.6
952.6251825,32037
956.8038212,31552.6
960.9761955,32301.6
965.1423166,31969.6
969.3021953,31802.8
973.4558427,31882
977.6032699,31593.4
981.7444877,31559.8
985.8795072,31599.8
990.0083394,31502
994.1309953,31241.6
998.2474857,31616.6
1002.357822,30743
1006.462014,31307.8
1010.560075,31109.8
1014.652013,31099.2
1018.737841,31538.8
1022.81757,30989.8
1026.891209,30751.4
1030.958771,30462.2
1035.020266,30910.4
1039.075705,30732.8
1043.1251,30244.2
1047.16846,30553.4
1051.205797,30365.8
1055.237121,30186.2
1059.262444,30457.8
1063.281777,30617
1067.295131,31302.4
1071.302515,33110.4
1075.303942,33089.8
1079.299422,33949.4
1083.288966,32786
1087.272585,31696.8
1091.250289,31036
1095.222091,30933.6
1099.187999,30070.8
1103.148026,30541.6
1107.102183,30326.6
1111.050479,30506.2
1114.992927,30298.6
1118.929536,30416.2
1122.860318,30893.2
1126.785283,30456
1130.704443,30557.2
1134.617808,31755
1138.52539,31741.4
1142.427198,31434.6
1146.323244,31262.8
1150.213538,30851.6
1154.098093,31246.2
1157.976917,30369.6
1161.850023,30358.8
1165.717421,30792.4
1169.579121,30549.2
1173.435135,31024.8
1177.285474,30189.2
1181.130148,30399.2
1184.969169,30535.2
1188.802547,30344
1192.630292,29792.2
1196.452416,29416.6
1200.26893,29633.4
1204.079844,29059.4
1207.88517,28713
1211.684917,29598
1215.479098,28918.4
1219.267722,30758.4
1223.050801,28955
1226.828346,29184.8
1230.600366,29362
1234.366874,29450.6
1238.12788,29213.6
1241.883395,29442
1245.633429,29529
1249.377994,29766.6
1253.1171,29107.2
1256.850759,29268.8
1260.578981,29459.6
1264.301776,29402.4
1268.019157,29461.2
1271.731133,29141.4
1275.437715,28894.6
1279.138915,29402.4
1282.834743,29634.4
1286.52521,28999.2
1290.210328,28836.4
1293.890106,28891.8
1297.564555,29561.8
1301.233688,28840.4
1304.897514,29165
1308.556044,29354.6
1312.209289,29433
1315.857261,28787.6
1319.499969,28847.4
1323.137425,29674.4
1326.769641,29051.2
1330.396626,29841.8
1334.018391,29068
1337.634948,29153.2
1341.246307,28960.2
1344.85248,28663.2
1348.453477,28378.4
1352.049309,28366.6
1355.639987,28346.6
1359.225522,28815.8
1362.805925,28220.4
1366.381207,28233.6
1369.951379,28414.6
1373.516452,28396.8
1377.076436,28623.2
1380.631343,28422
1384.181184,28355.4
1387.725969,28413.2
1391.26571,27913
1394.800417,27733.8
1398.330102,27673.2
1401.854776,27704.4
1405.374448,27318.6
1408.889132,26988
1412.398837,26450.8
1415.903574,26964.2
1419.403355,27558.4
1422.89819,27205.2
1426.388091,27139.8
1429.873069,27698.4
1433.353134,27029
1436.828298,26864
1440.298571,26876
1443.763965,26348.8
1447.224491,26173.8
1450.68016,26001.4
1454.130983,26404.8
1457.576971,26139.6
1461.018135,26308.4
1464.454486,26217.4
1467.886036,25830.8
1471.312794,25653.6
1474.734774,25382.8
1478.151985,25905.8
1481.564439,25651.2
1484.972146,25458.4
1488.375119,24924
1491.773368,25216.2
1495.166904,25652.4
1498.555739,24967.6
1501.939883,24909.4
1505.319349,24313.4
1508.694146,24848.6
1512.064286,24814.4
1515.429781,24449
1518.790642,24524.4
1522.146879,24645.6
1525.498505,24124.4
1528.845529,23871.4
1532.187965,24690.2
1535.525822,24323.2
1538.859112,24344
1542.187846,24667.6
1545.512036,23937.4
1548.831693,24978.4
1552.146829,24572.2
1555.457453,23946.6
1558.763579,23558.6
1562.065216,24046.6
1565.362377,24430.2
1568.655073,24479.4
1571.943315,24359.4
1575.227114,24145.6
1578.506482,24287.8
1581.781431,24602.6
1585.051971,24374.8
1588.318114,24120.6
1591.579872,23868.8
1594.837255,23256.8
1598.090275,22715.4
1601.338945,22410.8
1604.583274,22632.8
1607.823275,22003.2
1611.058959,21381.8
1614.290338,22075.4
1617.517422,21122.6
1620.740224,21255.8
1623.958755,20817
1627.173027,20684.4
1630.38305,20131
1633.588838,20559.6
1636.7904,20354.2
1639.987749,20343
1643.180896,20476.2
1646.369853,19617.2
1649.554632,20441.2
1652.735244,19477.8
1655.9117,19076.6
1659.084013,19305.8
1662.252193,20032.6
1665.416254,18983.6
1668.576205,19184.4
1671.732059,19336
1674.883828,19436.6
1678.031523,18638.6
1681.175157,18891.8
1684.314739,18707.6
1687.450284,18630
1690.581801,18359.6
1693.709304,18134.6
1696.832803,18123.8
1699.952311,18449.2
1703.067839,18239.8
1706.179399,18180.4
1709.287003,18663.6
1712.390663,18110
1715.49039,18126
1718.586197,18413.2
1721.678095,18304.6
1724.766096,18191.4
1727.850213,17554
1730.930456,17835.2
1734.006838,17659.2
1737.079372,17746.4
1740.148067,17453.4
1743.212938,18409.6
1746.273996,17555.2
1749.331252,17438.2
1752.384718,17561.4
1755.434408,17497
1758.480332,17377
1761.522503,17363.2
1764.560933,17053
1767.595634,16605
1770.626618,17428
1773.653896,17530.6
1776.677482,16907.8
1779.697388,16949
1782.713625,17469.4
1785.726205,17398
1788.735141,17344.8
1791.740445,16784.2
1794.742129,16827.4
1797.740206,17195.2
1800.734687,17259.2
1803.725585,16965.8
1806.712912,16975.8
1809.69668,16598.8
1812.676902,16940.6
1815.65359,16415.6
1818.626756,16509
1821.596413,16637
1824.562573,16253.6
1827.525247,16488.8
1830.48445,16412
1833.440192,16594
1836.392487,16370.2
1839.341347,16577.4
1842.286784,16625
1845.22881,16073.2
1848.167439,16611
1851.102682,16483
1854.034553,16389.8
1856.963063,16207.4
1859.888226,17074.6
1862.810053,16403
1865.728557,16286.6
1868.643751,15942.6
1871.555648,16098.2
1874.46426,15679.2
1877.369599,16408.2
1880.271679,15999.6
1883.170512,15835
1886.06611,16475.8
1888.958487,16198.6
1891.847655,16081.6
1894.733626,16114.8
1897.616414,16257.4
1900.496032,15796
1903.372491,15990
1906.245805,16361.6
1909.115987,16278
1911.983049,16153.2
1914.847004,16051.6
1917.707866,16317.6
1920.565646,16084.6
1923.420359,15672.4
1926.272016,15948.8
1929.120631,15599.8
1931.966216,15839.2
1934.808786,15704.2
1937.648351,16063.2
1940.484927,15863.6
1943.318525,15924
1946.149158,16137.4
1948.97684,17170.4
1951.801584,16121.2
1954.623403,15853.6
1957.44231,15955.2
1960.258318,15480.6
1963.071439,15444.2
1965.881688,15593.8
1968.689078,15784.6
1971.493621,15500.6
