Ramanshift[cm-1],Intensity
-93.47115107,13332
-87.69374369,12137
-81.9253076,11961.8
-76.16582701,12095.8
-70.41528615,12140.2
-64.67366933,11778.4
-58.94096086,11863.6
-53.21714512,12134.8
-47.50220652,12249.8
-41.79612954,12159.6
-36.09889866,12633
-30.41049843,12710
-24.73091343,12303.8
-19.0601283,12453.6
-13.39812769,12218
-7.744896327,11992.6
-2.100418946,11761.4
3.535319659,12504.6
9.162334658,11814.2
14.78064118,12145.6
20.39025432,11757.8
25.99118913,11866.6
31.58346061,12313.2
37.16708375,12111.2
42.74207347,11863
48.30844468,11883
53.86621222,11689
59.41539093,11406.4
64.95599558,11364.8
70.48804091,11771.8
76.01154164,11934.6
81.52651243,11277
87.03296792,11775.8
92.5309227,12018.2
98.02039134,11422.2
103.5013884,11772.8
108.9739282,11576.2
114.4380255,11524.4
119.8936944,11731.6
125.3409495,12626.8
130.779805,11484.2
136.2102753,11224.4
141.6323747,11314.8
147.0461174,11923.4
152.4515176,11500.6
157.8485895,11441
163.2373472,11307
168.6178049,11644.4
173.9899766,12005.6
179.3538764,11433.4
184.7095182,11639.8
190.0569161,11732.2
195.396084,11933.6
200.7270358,11361.4
206.0497854,11397.4
211.3643466,11186.2
216.6707333,11518.4
221.9689593,11160.2
227.2590382,11248.4
232.5409839,11308.6
237.8148101,11212
243.0805303,11379.2
248.3381582,11319.2
253.5877075,11212.2
258.8291917,11264.8
264.0626244,11275.2
269.288019,11541.6
274.5053891,11634
279.7147481,11432.4
284.9161094,11225
290.1094865,11662.4
295.2948927,12804.8
300.4723414,15673
305.6418459,18557.8
310.8034194,21057.8
315.9570752,23144
321.1028267,23788.8
326.2406869,23995
331.370669,24314
336.4927863,24452.2
341.6070517,24764
346.7134786,24764.2
351.8120798,25413.6
356.9028684,25085
361.9858576,24982.4
367.0610602,25075.6
372.1284892,24897.6
377.1881577,25363
382.2400784,25586.6
387.2842644,26243.8
392.3207284,26789.2
397.3494833,26046.6
402.370542,25814
407.3839172,25301.2
412.3896217,24682.4
417.3876683,24245.4
422.3780697,24338.6
427.3608386,23973.2
432.3359876,24344.2
437.3035295,24463
442.2634769,24650.8
447.2158423,23742
452.1606383,23601.4
457.0978776,23684.4
462.0275727,23034.8
466.9497361,23653
471.8643802,23123.2
476.7715176,23602.6
481.6711608,23629.6
486.5633221,23687.8
491.448014,23698.6
496.3252488,23655.2
501.195039,23615.4
506.0573969,23950.2
510.9123349,23512
515.7598651,23065
520.6,23240.2
525.4327518,23236.8
530.2581327,23440.2
535.076155,22768.8
539.8868309,22972
544.6901726,23070.8
549.4861922,22822.8
554.2749019,23843
559.0563139,22990.8
563.8304402,22785
568.597293,23779.2
573.3568844,23185.2
578.1092263,22573.4
582.8543308,22970.8
587.5922101,23072.6
592.322876,22805.6
597.0463405,22799.8
601.7626157,23087.6
606.4717135,22585.8
611.1736458,22548.2
615.8684246,22701.8
620.5560617,22926.8
625.2365691,22696.6
629.9099585,22836
634.5762419,22917.8
639.2354312,22405.8
643.887538,22566.4
648.5325743,22392
653.1705518,22237
657.8014823,22324.6
662.4253775,21723.6
667.0422493,22000.2
671.6521092,22071
676.2549691,22230.8
680.8508407,22154.6
685.4397355,21964
690.0216654,22076.2
694.5966419,21722.6
699.1646767,22291.8
703.7257814,22124.4
708.2799676,22272.2
712.827247,22398
717.367631,21985.2
721.9011314,21822.4
726.4277595,21287
730.9475271,21889.8
735.4604456,21765.8
739.9665264,22165.8
744.4657813,21624
748.9582215,21622.6
753.4438587,20900
757.9227042,20826.8
762.3947696,21374.8
766.8600662,20839.2
771.3186056,22128.2
775.770399,21212.2
780.215458,21304.4
784.6537939,20720.4
789.0854181,20508.2
793.510342,20679
797.9285769,21271
802.3401342,20666.8
806.7450253,20724
811.1432614,20517.6
815.5348538,20297
819.9198139,20054.4
824.2981531,20339.8
828.6698824,20446
833.0350133,20106.6
837.393557,19712.8
841.7455248,20083.2
846.0909278,19873.6
850.4297774,19923.2
854.7620848,19997
859.0878611,20134.4
863.4071176,19613.8
867.7198655,19923
872.026116,20199.2
876.3258802,20672.8
880.6191693,20132.4
884.9059946,20130.2
889.186367,20576.6
893.4602979,19347.8
897.7277982,19248.2
901.9888793,19604
906.2435521,20107.6
910.4918277,19711.8
914.7337174,19650
918.9692321,19445.2
923.1983831,20129.6
927.4211813,19600.6
931.6376378,20416.6
935.8477637,19870.8
940.0515701,20174.4
944.249068,20238.6
948.4402684,19381.8
952.6251825,20117.6
956.8038212,19718
960.9761955,20335.2
965.1423166,19977
969.3021953,19906.6
973.4558427,19936.8
977.6032699,19715.6
981.7444877,19687.4
985.8795072,19528.8
990.0083394,19594.2
994.1309953,19380.6
998.2474857,19817
1002.357822,19073.6
1006.462014,19703.8
1010.560075,19298.8
1014.652013,19445.2
1018.737841,19792.8
1022.81757,19169.8
1026.891209,19243
1030.958771,19127.2
1035.020266,19430
1039.075705,19157.4
1043.1251,18813
1047.16846,19017.4
1051.205797,18801.4
1055.237121,18658.4
1059.262444,18703
1063.281777,18696.2
1067.295131,18954.2
1071.302515,20420.4
1075.303942,20159.8
1079.299422,20970.6
1083.288966,20427.2
1087.272585,19806.2
1091.250289,19270.8
1095.222091,19219.2
1099.187999,18740.4
1103.148026,18791.4
1107.102183,18540.8
1111.050479,18773.8
1114.992927,18869.2
1118.929536,18802
1122.860318,19153
1126.785283,18658.8
1130.704443,18617.8
1134.617808,19673.2
1138.52539,19550.4
1142.427198,19409
1146.323244,19349.2
1150.213538,18784
1154.098093,19275.8
1157.976917,18308.8
1161.850023,18193.2
1165.717421,18787.4
1169.579121,18384.8
1173.435135,18848.8
1177.285474,18083.2
1181.130148,18357.2
1184.969169,18789.2
1188.802547,18448.6
1192.630292,18052.6
1196.452416,17655.8
1200.26893,17936
1204.079844,17596
1207.88517,17190.8
1211.684917,17908.2
1215.479098,17301.4
1219.267722,18858.2
1223.050801,17382.6
1226.828346,17362.2
1230.600366,17783.2
1234.366874,17628.6
1238.12788,17528.2
1241.883395,17667
1245.633429,17828.8
1249.377994,17712.8
1253.1171,17107.2
1256.850759,17314.2
1260.578981,17304.8
1264.301776,17425
1268.019157,17419.2
1271.731133,17128
1275.437715,16864
1279.138915,17443.8
1282.834743,17597.2
1286.52521,17225.8
1290.210328,17112
1293.890106,17186.2
1297.564555,17689.2
1301.233688,16989.4
1304.897514,17400.4
1308.556044,17300.2
1312.209289,17229.2
1315.857261,16697.4
1319.499969,16923.6
1323.137425,17832.4
1326.769641,17230.2
1330.396626,17889
1334.018391,17081.2
1337.634948,17219.8
1341.246307,16939.6
1344.85248,16918.6
1348.453477,16816.6
1352.049309,16820.6
1355.639987,16955.2
1359.225522,17437
1362.805925,16992.4
1366.381207,16908.8
1369.951379,17156
1373.516452,17152.8
1377.076436,17498.2
1380.631343,17337
1384.181184,17136.2
1387.725969,17291.4
1391.26571,16869.8
1394.800417,16709
1398.330102,16614.8
1401.854776,16705.6
1405.374448,16615
1408.889132,16223.8
1412.398837,15856.4
1415.903574,16199.8
1419.403355,16832
1422.89819,16468.2
1426.388091,16454
1429.873069,16979.2
1433.353134,16367.8
1436.828298,16348.2
1440.298571,16450.6
1443.763965,16162.8
1447.224491,16001.8
1450.68016,15948.8
1454.130983,16366.8
1457.576971,16161.8
1461.018135,16434.4
1464.454486,16341.8
1467.886036,15947.8
1471.312794,16017.4
1474.734774,15740.2
1478.151985,16358.2
1481.564439,16047.6
1484.972146,15821.4
1488.375119,15458
1491.773368,15800
1495.166904,16347
1498.555739,15750.8
1501.939883,15899.2
1505.319349,15355.4
1508.694146,15630
1512.064286,15691.4
1515.429781,15606.6
1518.790642,15473
1522.146879,15627.2
1525.498505,15233.8
1528.845529,15154.6
1532.187965,15909.2
1535.525822,15532
1538.859112,15510.2
1542.187846,16036.6
1545.512036,15081.6
1548.831693,16278.8
1552.146829,15854
1555.457453,15214.8
1558.763579,14877.4
1562.065216,15326.2
1565.362377,15625.4
1568.655073,15776.6
1571.943315,15587.4
1575.227114,15514.8
1578.506482,15604.2
1581.781431,16055.2
1585.051971,15730
1588.318114,15895
1591.579872,15829.4
1594.837255,15485.8
1598.090275,15292.2
1601.338945,15035.6
1604.583274,15220.2
1607.823275,14855
1611.058959,14409.8
1614.290338,15146.6
1617.517422,14338.6
1620.740224,14702.4
1623.958755,14425.4
1627.173027,14322.2
1630.38305,13923.8
1633.588838,14396.2
1636.7904,14109.2
1639.987749,14217.4
1643.180896,14402.6
1646.369853,13773.6
1649.554632,14696.8
1652.735244,13973.2
1655.9117,13640
1659.084013,13862
1662.252193,14490.4
1665.416254,13593.6
1668.576205,13913.6
1671.732059,14217.8
1674.883828,14217
1678.031523,13809.8
1681.175157,13771.2
1684.314739,13666
1687.450284,13695.6
1690.581801,13567.2
1693.709304,13317
1696.832803,13482.6
1699.952311,13699.2
1703.067839,13648.8
1706.179399,13516.4
1709.287003,13956.6
1712.390663,13574.6
1715.49039,13556.2
1718.586197,13940.8
1721.678095,13639.8
1724.766096,13721.2
1727.850213,13153.8
1730.930456,13487.2
1734.006838,13220.4
1737.079372,13517.8
1740.148067,13277.2
1743.212938,14244.8
1746.273996,13420
1749.331252,13250.2
1752.384718,13312
1755.434408,13368.6
1758.480332,13324.2
1761.522503,13404.8
1764.560933,13100
1767.595634,12890
1770.626618,13457.8
1773.653896,13488
1776.677482,13080.4
1779.697388,12971.8
1782.713625,13605.8
1785.726205,13474.2
1788.735141,13512.6
1791.740445,13013.2
1794.742129,12938
1797.740206,13521.6
1800.734687,13415
1803.725585,13255.6
1806.712912,13202.8
1809.69668,12842.6
1812.676902,12959.2
1815.65359,12694.6
1818.626756,12883.4
1821.596413,12945.2
1824.562573,12594.8
1827.525247,12972.2
1830.48445,12762
1833.440192,12943.8
1836.392487,12776.2
1839.341347,13029.8
1842.286784,13043.2
1845.22881,12457.4
1848.167439,13140.6
1851.102682,12805.2
1854.034553,12829
1856.963063,12745.8
1859.888226,13496.4
1862.810053,13087.4
1865.728557,12778.6
1868.643751,12597.4
1871.555648,12684.2
1874.46426,12326
1877.369599,12893
1880.271679,12754
1883.170512,12567
1886.06611,13038.8
1888.958487,12796
1891.847655,12722.2
1894.733626,12739
1897.616414,12832
1900.496032,12434.6
1903.372491,12722.4
1906.245805,13021.2
1909.115987,12963.8
1911.983049,13036.8
1914.847004,12827
1917.707866,13069.8
1920.565646,12892.6
1923.420359,12454.4
1926.272016,12708.8
1929.120631,12473.2
1931.966216,12614.4
1934.808786,12490.6
1937.648351,12800.8
1940.484927,12754.4
1943.318525,12871.4
1946.149158,13060
1948.97684,14059.6
1951.801584,12988.6
1954.623403,12752
1957.44231,12924.4
1960.258318,12330.4
1963.071439,12482
1965.881688,12615
1968.689078,12765
1971.493621,12546
