Ramanshift[cm-1],Intensity
-93.47115107,12354
-87.69374369,11194.8
-81.9253076,11134.8
-76.16582701,11140
-70.41528615,11199.4
-64.67366933,10962.4
-58.94096086,11011
-53.21714512,11098
-47.50220652,11258.6
-41.79612954,11245.6
-36.09889866,11712
-30.41049843,11779.4
-24.73091343,11392.6
-19.0601283,11373.6
-13.39812769,11306.4
-7.744896327,11012.8
-2.100418946,10882.4
3.535319659,11418.4
9.162334658,10880.6
14.78064118,11179.8
20.39025432,10834.4
25.99118913,10927.8
31.58346061,11366.6
37.16708375,11139.2
42.74207347,10932.2
48.30844468,10932.8
53.86621222,10779.6
59.41539093,10518
64.95599558,10558.6
70.48804091,10855.2
76.01154164,10906.4
81.52651243,10350.4
87.03296792,10891.4
92.5309227,11159.8
98.02039134,10535.8
103.5013884,10776
108.9739282,10667.6
114.4380255,10703.8
119.8936944,10870
125.3409495,11631.2
130.779805,10521.2
136.2102753,10266.2
141.6323747,10494.4
147.0461174,10975.4
152.4515176,10560.6
157.8485895,10493.8
163.2373472,10476.6
168.6178049,10808.6
173.9899766,11020.8
179.3538764,10520.4
184.7095182,10596.8
190.0569161,10826.4
195.396084,10931.6
200.7270358,10437.6
206.0497854,10439.4
211.3643466,10216
216.6707333,10694.8
221.9689593,10237.6
227.2590382,10494.2
232.5409839,10411.6
237.8148101,10347.8
243.0805303,10409.2
248.3381582,10442.6
253.5877075,10310.2
258.8291917,10452
264.0626244,10572.4
269.288019,10682.2
274.5053891,10767.4
279.7147481,10535.2
284.9161094,10311.2
290.1094865,10712.8
295.2948927,12036.4
300.4723414,14688.8
305.6418459,17513.6
310.8034194,20359.2
315.9570752,22503
321.1028267,23195.4
326.2406869,23703
331.370669,24114.6
336.4927863,24478
341.6070517,24798
346.7134786,24941.2
351.8120798,25634.2
356.9028684,25387.2
361.9858576,25532
367.0610602,26265.4
372.1284892,26916.4
377.1881577,29824.8
382.2400784,34176.2
387.2842644,39282.4
392.3207284,40794.4
397.3494833,37948
402.370542,34400.2
407.3839172,31403.4
412.3896217,28915.2
417.3876683,26845.8
422.3780697,25956.4
427.3608386,25265.4
432.3359876,25709.2
437.3035295,25608.8
442.2634769,25282.6
447.2158423,23856.8
452.1606383,23499.4
457.0978776,23348.4
462.0275727,22856.6
466.9497361,23028.2
471.8643802,22242.4
476.7715176,22949.8
481.6711608,23223.6
486.5633221,23701.2
491.448014,23141.2
496.3252488,22904.8
501.195039,22683.4
506.0573969,22809.4
510.9123349,22242.6
515.7598651,21620.8
520.6,21880.6
525.4327518,21466.6
530.2581327,21526
535.076155,20931.8
539.8868309,21580.4
544.6901726,21350.2
549.4861922,20727.2
554.2749019,21251.6
559.0563139,20218.2
563.8304402,20119.4
568.597293,21047.6
573.3568844,20532.2
578.1092263,20276.8
582.8543308,20584
587.5922101,20547.8
592.322876,20148
597.0463405,20162.2
601.7626157,20640
606.4717135,20104.4
611.1736458,20065.4
615.8684246,20022
620.5560617,20162.4
625.2365691,20251
629.9099585,21176
634.5762419,21638.8
639.2354312,21197.6
643.887538,21082.8
648.5325743,20451.2
653.1705518,19887.8
657.8014823,19904.2
662.4253775,19030.8
667.0422493,19476.2
671.6521092,19430.8
676.2549691,19671
680.8508407,19552.6
685.4397355,19322.4
690.0216654,19623
694.5966419,19688
699.1646767,20508.2
703.7257814,20490.8
708.2799676,20686
712.827247,20945.2
717.367631,20632.6
721.9011314,20041.2
726.4277595,19089.4
730.9475271,19378.6
735.4604456,19254.4
739.9665264,19567
744.4657813,19255.2
748.9582215,19059.6
753.4438587,18428.8
757.9227042,18126.8
762.3947696,18740.8
766.8600662,18237.6
771.3186056,19476.2
775.770399,18693.2
780.215458,18819.2
784.6537939,18249.4
789.0854181,18347.6
793.510342,18709.2
797.9285769,19643.4
802.3401342,19475.2
806.7450253,19666
811.1432614,19494.8
815.5348538,19218.8
819.9198139,18826
824.2981531,18816
828.6698824,18567.2
833.0350133,18100.4
837.393557,17717
841.7455248,17861.4
846.0909278,17559.4
850.4297774,17540.6
854.7620848,17592.2
859.0878611,17732.6
863.4071176,17063
867.7198655,17581.6
872.026116,17853.4
876.3258802,18262.4
880.6191693,17781
884.9059946,17804.8
889.186367,18324
893.4602979,17350.6
897.7277982,17312.6
901.9888793,17761
906.2435521,18276.8
910.4918277,18001.8
914.7337174,18290.6
918.9692321,18367.6
923.1983831,18890.8
927.4211813,18664.2
931.6376378,19147.6
935.8477637,18830.4
940.0515701,19092.2
944.249068,19277.6
948.4402684,18555.6
952.6251825,19343.2
956.8038212,18992.4
960.9761955,19678
965.1423166,19246.2
969.3021953,19343.8
973.4558427,19300
977.6032699,19198.8
981.7444877,19210.8
985.8795072,19067
990.0083394,19268.4
994.1309953,19233.2
998.2474857,20562.6
1002.357822,20929.4
1006.462014,21808.6
1010.560075,20512.6
1014.652013,19417.6
1018.737841,18765.8
1022.81757,18229.2
1026.891209,17987.8
1030.958771,17907.8
1035.020266,18405
1039.075705,18331
1043.1251,18252
1047.16846,19021.4
1051.205797,19550.6
1055.237121,20502.2
1059.262444,22824
1063.281777,26785.8
1067.295131,32860.4
1071.302515,40726.8
1075.303942,44053.2
1079.299422,43650.2
1083.288966,36626.8
1087.272585,28444.6
1091.250289,23084.2
1095.222091,20592
1099.187999,18943.2
1103.148026,18695.2
1107.102183,18522.8
1111.050479,18771.4
1114.992927,19005
1118.929536,19549
1122.860318,21091.8
1126.785283,22908
1130.704443,26472.8
1134.617808,31455.2
1138.52539,34496.8
1142.427198,34078.4
1146.323244,30710.4
1150.213538,26702.2
1154.098093,24563.4
1157.976917,22927.4
1161.850023,22823.4
1165.717421,23707.8
1169.579121,23933.4
1173.435135,24429.8
1177.285474,23802.4
1181.130148,23965.8
1184.969169,23807.4
1188.802547,22639
1192.630292,21135.8
1196.452416,19733.2
1200.26893,18901
1204.079844,18267.2
1207.88517,17489
1211.684917,18123.6
1215.479098,17746.2
1219.267722,19092
1223.050801,17665.6
1226.828346,17690.4
1230.600366,17696.2
1234.366874,17651.8
1238.12788,17398.4
1241.883395,17439.8
1245.633429,17688.2
1249.377994,17514.8
1253.1171,16790.6
1256.850759,17181.4
1260.578981,16845.4
1264.301776,16887.4
1268.019157,16979.4
1271.731133,16581.8
1275.437715,16442.2
1279.138915,17116.6
1282.834743,17182.6
1286.52521,16863.8
1290.210328,16800.4
1293.890106,17201.6
1297.564555,18024.4
1301.233688,17568.6
1304.897514,18005.6
1308.556044,17962
1312.209289,17788.6
1315.857261,17076.2
1319.499969,17162.4
1323.137425,17679
1326.769641,17231.4
1330.396626,17793.2
1334.018391,17232.6
1337.634948,17439.2
1341.246307,17416.6
1344.85248,17512
1348.453477,17507.2
1352.049309,17553
1355.639987,17695.2
1359.225522,18489.6
1362.805925,18192.2
1366.381207,18389.6
1369.951379,18651.8
1373.516452,19118.6
1377.076436,19938.4
1380.631343,21151
1384.181184,22568.8
1387.725969,24168.2
1391.26571,23839
1394.800417,21888.2
1398.330102,19825
1401.854776,18606.6
1405.374448,17479.4
1408.889132,16926.2
1412.398837,16912
1415.903574,18084
1419.403355,20218
1422.89819,22091.8
1426.388091,24619.2
1429.873069,26766.8
1433.353134,26490.8
1436.828298,25432
1440.298571,23775.8
1443.763965,21506
1447.224491,19806.8
1450.68016,18568
1454.130983,17952.4
1457.576971,17335.6
1461.018135,17344.2
1464.454486,17435.8
1467.886036,17281.8
1471.312794,17321.6
1474.734774,16832.2
1478.151985,17414.6
1481.564439,17080
1484.972146,17051.6
1488.375119,16575.4
1491.773368,16708.2
1495.166904,16950.8
1498.555739,16148.8
1501.939883,16028.4
1505.319349,15633.8
1508.694146,16047.6
1512.064286,16131.6
1515.429781,16113.2
1518.790642,16060
1522.146879,16226.2
1525.498505,15893.4
1528.845529,16180.8
1532.187965,17097.4
1535.525822,17293.4
1538.859112,17800
1542.187846,18744
1545.512036,18502.2
1548.831693,20051.2
1552.146829,20167.8
1555.457453,20092.6
1558.763579,19971
1562.065216,21023.2
1565.362377,21674.8
1568.655073,22393.2
1571.943315,22719.4
1575.227114,23044
1578.506482,23270.6
1581.781431,23580
1585.051971,23389.2
1588.318114,23382.6
1591.579872,22522.4
1594.837255,21060.8
1598.090275,18976.4
1601.338945,17465.2
1604.583274,16708
1607.823275,15746.8
1611.058959,14924.6
1614.290338,15362.8
1617.517422,14306
1620.740224,14564.8
1623.958755,13964.4
1627.173027,13958
1630.38305,13411.2
1633.588838,13733
1636.7904,13416.8
1639.987749,13385.8
1643.180896,13402.4
1646.369853,12769.8
1649.554632,13456
1652.735244,12818
1655.9117,12364.2
1659.084013,12687.6
1662.252193,13201.6
1665.416254,12435
1668.576205,12656.2
1671.732059,12720.8
1674.883828,12828.4
1678.031523,12289.4
1681.175157,12351.4
1684.314739,12399
1687.450284,12277.6
1690.581801,12052.8
1693.709304,12076
1696.832803,12073.8
1699.952311,12153
1703.067839,12180.4
1706.179399,12164.6
1709.287003,12514.4
1712.390663,12122.8
1715.49039,12111.4
1718.586197,12397.6
1721.678095,12290.4
1724.766096,12196
1727.850213,11693.8
1730.930456,12051.6
1734.006838,11775.2
1737.079372,12005.2
1740.148067,11711.6
1743.212938,12593
1746.273996,11860.6
1749.331252,11849.6
1752.384718,11867
1755.434408,11936.4
1758.480332,11835.6
1761.522503,11901.6
1764.560933,11603.6
1767.595634,11441
1770.626618,12097.8
1773.653896,12020
1776.677482,11666.2
1779.697388,11588.4
1782.713625,12036.2
1785.726205,11934.4
1788.735141,12064.2
1791.740445,11563.4
1794.742129,11498.4
1797.740206,12068.6
1800.734687,11972.8
1803.725585,11799.6
1806.712912,11741.4
1809.69668,11454.8
1812.676902,11535.6
1815.65359,11341.8
1818.626756,11397.6
1821.596413,11494.6
1824.562573,11241
1827.525247,11559.2
1830.48445,11299.2
1833.440192,11531
1836.392487,11430.8
1839.341347,11512.4
1842.286784,11512.4
1845.22881,11145.4
1848.167439,11707.6
1851.102682,11379
1854.034553,11492.2
1856.963063,11249.8
1859.888226,12056
1862.810053,11613.4
1865.728557,11313.6
1868.643751,11190
1871.555648,11188.2
1874.46426,11035
1877.369599,11496.6
1880.271679,11346.8
1883.170512,11244.8
1886.06611,11666.6
1888.958487,11326.4
1891.847655,11334
1894.733626,11467.4
1897.616414,11554.6
1900.496032,11116.6
1903.372491,11358
1906.245805,11614.8
1909.115987,11618.2
1911.983049,11500.2
1914.847004,11448.2
1917.707866,11615.2
1920.565646,11580.6
1923.420359,11208
1926.272016,11366.6
1929.120631,11217
1931.966216,11244.4
1934.808786,11263
1937.648351,11469.8
1940.484927,11371.6
1943.318525,11477.6
1946.149158,11683.4
1948.97684,12586.6
1951.801584,11677.4
1954.623403,11520.2
1957.44231,11545.6
1960.258318,11030.2
1963.071439,11171.2
1965.881688,11372.8
1968.689078,11423.4
1971.493621,11277.2
