Ramanshift[cm-1],Intensity
-93.47115107,13707
-87.69374369,12453.2
-81.9253076,12269.6
-76.16582701,12479.4
-70.41528615,12437.8
-64.67366933,12123
-58.94096086,12197
-53.21714512,12333.6
-47.50220652,12506.4
-41.79612954,12559.8
-36.09889866,13011.2
-30.41049843,13092.6
-24.73091343,12675.6
-19.0601283,12661
-13.39812769,12517.2
-7.744896327,12258.8
-2.100418946,12080.8
3.535319659,12761.8
9.162334658,12137.2
14.78064118,12524.4
20.39025432,12105.4
25.99118913,12149.6
31.58346061,12612
37.16708375,12536.8
42.74207347,12049.4
48.30844468,12186.4
53.86621222,12003.4
59.41539093,11699
64.95599558,11756.2
70.48804091,12001.6
76.01154164,12166.8
81.52651243,11504.2
87.03296792,11992.8
92.5309227,12416.8
98.02039134,11775.8
103.5013884,12049.8
108.9739282,11817.6
114.4380255,11883
119.8936944,12027.6
125.3409495,12909.8
130.779805,11798.2
136.2102753,11471.6
141.6323747,11596.2
147.0461174,12132.8
152.4515176,11800.8
157.8485895,11744
163.2373472,11573
168.6178049,11941.8
173.9899766,12310.2
179.3538764,11713.4
184.7095182,11943.4
190.0569161,12018.4
195.396084,12274.8
200.7270358,11611.6
206.0497854,11694.4
211.3643466,11360.4
216.6707333,11832.8
221.9689593,11440.4
227.2590382,11604.2
232.5409839,11587.4
237.8148101,11470.8
243.0805303,11564.6
248.3381582,11582.2
253.5877075,11404.4
258.8291917,11665.2
264.0626244,11605.4
269.288019,11841.4
274.5053891,11988
279.7147481,11658.8
284.9161094,11496.2
290.1094865,11822.6
295.2948927,12905.2
300.4723414,15417.4
305.6418459,17660.2
310.8034194,19867.2
315.9570752,21810.6
321.1028267,22213.6
326.2406869,22443
331.370669,22542.8
336.4927863,22822.4
341.6070517,23067.8
346.7134786,23337
351.8120798,23675.4
356.9028684,23441.2
361.9858576,23145.4
367.0610602,23673.6
372.1284892,23426.2
377.1881577,24159.2
382.2400784,24828.4
387.2842644,26128.6
392.3207284,27221.6
397.3494833,26612.6
402.370542,25714.6
407.3839172,24279
412.3896217,23314.4
417.3876683,22525
422.3780697,22404
427.3608386,22272.2
432.3359876,22582
437.3035295,22407.2
442.2634769,22547.6
447.2158423,21673.4
452.1606383,21714
457.0978776,21811.2
462.0275727,21181
466.9497361,21665
471.8643802,21041
476.7715176,21675
481.6711608,21633.2
486.5633221,21848.2
491.448014,21673.4
496.3252488,21804.4
501.195039,21740.2
506.0573969,21985.4
510.9123349,21664.6
515.7598651,20996.2
520.6,21332
525.4327518,21344.6
530.2581327,21319.6
535.076155,20767.6
539.8868309,21003
544.6901726,21232
549.4861922,20789.8
554.2749019,21564.6
559.0563139,20654
563.8304402,20349.6
568.597293,21300.4
573.3568844,21102.6
578.1092263,20418.6
582.8543308,20997.8
587.5922101,20893.6
592.322876,20409.8
597.0463405,20678.8
601.7626157,20924.6
606.4717135,20541
611.1736458,20567.4
615.8684246,20503
620.5560617,20724.8
625.2365691,20657
629.9099585,21005.2
634.5762419,21203.4
639.2354312,20594.8
643.887538,20707
648.5325743,20480.2
653.1705518,20352.8
657.8014823,20556.6
662.4253775,19967
667.0422493,20276.4
671.6521092,20188.8
676.2549691,20368.8
680.8508407,20260
685.4397355,20194
690.0216654,20352
694.5966419,20068.8
699.1646767,20656.8
703.7257814,20319
708.2799676,20299.2
712.827247,20366.2
717.367631,20108
721.9011314,20131.6
726.4277595,19324.2
730.9475271,19997.6
735.4604456,19840.6
739.9665264,20302.4
744.4657813,19816.4
748.9582215,19690.2
753.4438587,19165
757.9227042,18911.4
762.3947696,19492.8
766.8600662,19051.6
771.3186056,20464.6
775.770399,19440.4
780.215458,19692.6
784.6537939,18989.2
789.0854181,18917.4
793.510342,19015.4
797.9285769,19663.4
802.3401342,19187.2
806.7450253,19213.4
811.1432614,19147.4
815.5348538,18896.4
819.9198139,18669.6
824.2981531,18679
828.6698824,18798
833.0350133,18611.8
837.393557,18323.2
841.7455248,18664.6
846.0909278,18321.2
850.4297774,18368.8
854.7620848,18410.8
859.0878611,18657.8
863.4071176,17997.4
867.7198655,18524.2
872.026116,18802.2
876.3258802,19241
880.6191693,18628.4
884.9059946,18754.8
889.186367,19153.2
893.4602979,17953.8
897.7277982,17942
901.9888793,18466
906.2435521,18899.2
910.4918277,18181.6
914.7337174,18295.4
918.9692321,18287.4
923.1983831,18778.2
927.4211813,18470
931.6376378,19008.2
935.8477637,18596.8
940.0515701,18714
944.249068,18766.6
948.4402684,17965.2
952.6251825,18882.6
956.8038212,18406.2
960.9761955,19111
965.1423166,18460
969.3021953,18642.4
973.4558427,18653.6
977.6032699,18534.8
981.7444877,18412.8
985.8795072,18434.8
990.0083394,18477.4
994.1309953,18075.8
998.2474857,18521.4
1002.357822,17689.4
1006.462014,18326.2
1010.560075,17932.8
1014.652013,18340.6
1018.737841,18484.8
1022.81757,17979.2
1026.891209,17991
1030.958771,17866.8
1035.020266,18120.8
1039.075705,17842
1043.1251,17597.4
1047.16846,17845.8
1051.205797,17787.4
1055.237121,17463
1059.262444,17561.8
1063.281777,17526
1067.295131,18083.4
1071.302515,19770.4
1075.303942,19955
1079.299422,21094.2
1083.288966,20193.4
1087.272585,19146
1091.250289,18406.2
1095.222091,18074
1099.187999,17403
1103.148026,17541.4
1107.102183,17418
1111.050479,17480.8
1114.992927,17398
1118.929536,17214.8
1122.860318,17607.6
1126.785283,17153
1130.704443,17151.2
1134.617808,18026.6
1138.52539,17880.2
1142.427198,17722
1146.323244,17702.2
1150.213538,17298.4
1154.098093,17820
1157.976917,17174.2
1161.850023,17031.4
1165.717421,17672.8
1169.579121,17371.2
1173.435135,17916.2
1177.285474,17120.2
1181.130148,17409.6
1184.969169,17737.8
1188.802547,17422
1192.630292,16977.4
1196.452416,16525
1200.26893,16619
1204.079844,16332.4
1207.88517,15994.2
1211.684917,16711.2
1215.479098,16212
1219.267722,17790
1223.050801,16340.4
1226.828346,16177.2
1230.600366,16614.8
1234.366874,16684.2
1238.12788,16513
1241.883395,16531.2
1245.633429,16895
1249.377994,16848
1253.1171,15923
1256.850759,16432.4
1260.578981,16272.6
1264.301776,16414.8
1268.019157,16276.2
1271.731133,15990.6
1275.437715,15721
1279.138915,16476
1282.834743,16649.8
1286.52521,16229.2
1290.210328,16039.8
1293.890106,16197.2
1297.564555,16667
1301.233688,15949.2
1304.897514,16299.2
1308.556044,16420.4
1312.209289,16310
1315.857261,15788
1319.499969,15836.4
1323.137425,16810
1326.769641,16209
1330.396626,16960.8
1334.018391,16272
1337.634948,16510.8
1341.246307,16187.2
1344.85248,16060.4
1348.453477,15888
1352.049309,15870.2
1355.639987,15958
1359.225522,16498
1362.805925,16109
1366.381207,16040.4
1369.951379,16167.6
1373.516452,16358.6
1377.076436,16365.2
1380.631343,16155.4
1384.181184,15908.4
1387.725969,16082.6
1391.26571,15771.8
1394.800417,15719.2
1398.330102,15921.4
1401.854776,15963
1405.374448,15795
1408.889132,15331.4
1412.398837,15034.6
1415.903574,15274.4
1419.403355,15890
1422.89819,15592
1426.388091,15514.2
1429.873069,15999.8
1433.353134,15502.4
1436.828298,15385
1440.298571,15564
1443.763965,15239
1447.224491,15213.2
1450.68016,15148.6
1454.130983,15579.4
1457.576971,15480.2
1461.018135,15492.6
1464.454486,15554.6
1467.886036,15092.2
1471.312794,15161
1474.734774,14694.8
1478.151985,15558.2
1481.564439,15173
1484.972146,15048.2
1488.375119,14631.6
1491.773368,15049.6
1495.166904,15591.8
1498.555739,14830.4
1501.939883,14905.8
1505.319349,14462.2
1508.694146,14885.4
1512.064286,14912.8
1515.429781,14884.6
1518.790642,14740
1522.146879,14863.2
1525.498505,14443.8
1528.845529,14391
1532.187965,14974.2
1535.525822,14725.4
1538.859112,14779.2
1542.187846,15329.2
1545.512036,14590.6
1548.831693,15721
1552.146829,15360.6
1555.457453,14682
1558.763579,14180.6
1562.065216,14729
1565.362377,15040.6
1568.655073,15487
1571.943315,15292.4
1575.227114,15344.4
1578.506482,15306.2
1581.781431,16019.4
1585.051971,15634.4
1588.318114,15693.4
1591.579872,15521.2
1594.837255,15062
1598.090275,14746.6
1601.338945,14548.2
1604.583274,14774.6
1607.823275,14427.4
1611.058959,13950.6
1614.290338,14460.6
1617.517422,13703.8
1620.740224,14076.6
1623.958755,13706
1627.173027,13785
1630.38305,13396.2
1633.588838,13908.4
1636.7904,13533.2
1639.987749,13810.2
1643.180896,13823.4
1646.369853,13264.4
1649.554632,14113.6
1652.735244,13482
1655.9117,12959.8
1659.084013,13469.2
1662.252193,13937.6
1665.416254,13094.8
1668.576205,13343.2
1671.732059,13575.4
1674.883828,13702.4
1678.031523,13116.6
1681.175157,13256.8
1684.314739,13201.6
1687.450284,13095
1690.581801,13066.2
1693.709304,12914.8
1696.832803,12845
1699.952311,13132.2
1703.067839,13031
1706.179399,12981.4
1709.287003,13392.4
1712.390663,13032.4
1715.49039,13031.2
1718.586197,13262.8
1721.678095,13214.2
1724.766096,13218
1727.850213,12676
1730.930456,13000.6
1734.006838,12828.2
1737.079372,13008.6
1740.148067,12617.2
1743.212938,13688.8
1746.273996,12861.6
1749.331252,12817.2
1752.384718,12940.2
1755.434408,12864
1758.480332,12934.6
1761.522503,12937.4
1764.560933,12782
1767.595634,12382.8
1770.626618,13088.8
1773.653896,12985.6
1776.677482,12650.2
1779.697388,12558
1782.713625,13098.2
1785.726205,13122.2
1788.735141,13062
1791.740445,12605.2
1794.742129,12514.6
1797.740206,12958.8
1800.734687,13020.8
1803.725585,12790
1806.712912,12814.2
1809.69668,12453.4
1812.676902,12523.2
1815.65359,12257.8
1818.626756,12322.4
1821.596413,12504.6
1824.562573,12284
1827.525247,12560.8
1830.48445,12341.2
1833.440192,12535.8
1836.392487,12339.2
1839.341347,12597
1842.286784,12675
1845.22881,12140.6
1848.167439,12663
1851.102682,12380.8
1854.034553,12426.6
1856.963063,12355.8
1859.888226,13153.2
1862.810053,12604.8
1865.728557,12462.2
1868.643751,12267.2
1871.555648,12269.6
1874.46426,11941.2
1877.369599,12591.4
1880.271679,12411
1883.170512,12258.4
1886.06611,12692.8
1888.958487,12398.8
1891.847655,12428.6
1894.733626,12554
1897.616414,12624.2
1900.496032,12127.6
1903.372491,12468.2
1906.245805,12701.8
1909.115987,12742.8
1911.983049,12600
1914.847004,12504.2
1917.707866,12690.2
1920.565646,12655.8
1923.420359,12247.8
1926.272016,12389.8
1929.120631,12214.6
1931.966216,12375.6
1934.808786,12266.8
1937.648351,12554
1940.484927,12360.4
1943.318525,12578.2
1946.149158,12778.2
1948.97684,13847.2
1951.801584,12867.4
1954.623403,12555
1957.44231,12658.8
1960.258318,12196.6
1963.071439,12143.6
1965.881688,12354.2
1968.689078,12571.2
1971.493621,12281.6
