Ramanshift[cm-1],Intensity
-93.47115107,13701.4
-87.69374369,12423.4
-81.9253076,12247.4
-76.16582701,12355.4
-70.41528615,12401.6
-64.67366933,12191.8
-58.94096086,12122.2
-53.21714512,12410.4
-47.50220652,12473.8
-41.79612954,12512.6
-36.09889866,12942.6
-30.41049843,13062.4
-24.73091343,12631.2
-19.0601283,12650.2
-13.39812769,12453.6
-7.744896327,12198.4
-2.100418946,12034.2
3.535319659,12718.8
9.162334658,12030.2
14.78064118,12452.2
20.39025432,12078.6
25.99118913,12143.2
31.58346061,12634.2
37.16708375,12338.2
42.74207347,12021
48.30844468,12081.8
53.86621222,11944.6
59.41539093,11587.2
64.95599558,11516.8
70.48804091,11983
76.01154164,12135.4
81.52651243,11541
87.03296792,12011.8
92.5309227,12334.4
98.02039134,11736.4
103.5013884,11937
108.9739282,11784.6
114.4380255,11810.2
119.8936944,11990.8
125.3409495,12930.6
130.779805,11746.2
136.2102753,11527.6
141.6323747,11597.2
147.0461174,12114.8
152.4515176,11707.2
157.8485895,11719.2
163.2373472,11666.2
168.6178049,11906
173.9899766,12256
179.3538764,11751.6
184.7095182,11818.4
190.0569161,11960.8
195.396084,12159.8
200.7270358,11591.2
206.0497854,11631
211.3643466,11351.6
216.6707333,11808.4
221.9689593,11476.2
227.2590382,11679.2
232.5409839,11491.8
237.8148101,11474.4
243.0805303,11544.4
248.3381582,11560.6
253.5877075,11416.2
258.8291917,11593.4
264.0626244,11688.6
269.288019,11834
274.5053891,11984
279.7147481,11618.4
284.9161094,11474.6
290.1094865,11974.8
295.2948927,13208
300.4723414,16352.8
305.6418459,19713.4
310.8034194,22792
315.9570752,25030.8
321.1028267,25383.2
326.2406869,25648.6
331.370669,26087.2
336.4927863,26432
341.6070517,26647.4
346.7134786,26751.2
351.8120798,27118
356.9028684,26705.2
361.9858576,26748.2
367.0610602,27048
372.1284892,26787.2
377.1881577,27368.4
382.2400784,27430
387.2842644,28043.2
392.3207284,28636.6
397.3494833,27940.2
402.370542,27945.8
407.3839172,27100.8
412.3896217,26431.4
417.3876683,25837.2
422.3780697,25862.2
427.3608386,25680.2
432.3359876,25970.2
437.3035295,25904.6
442.2634769,25995.4
447.2158423,25064.8
452.1606383,25129.8
457.0978776,25198.2
462.0275727,24654.4
466.9497361,25173.6
471.8643802,24508.2
476.7715176,25165.8
481.6711608,25083.6
486.5633221,25149.4
491.448014,25196.6
496.3252488,25221
501.195039,25112.8
506.0573969,25263
510.9123349,24898
515.7598651,24393.8
520.6,24747.4
525.4327518,24505
530.2581327,24515.6
535.076155,23958.2
539.8868309,24387.2
544.6901726,24344.8
549.4861922,23981.2
554.2749019,24769.6
559.0563139,23884
563.8304402,23593.4
568.597293,24530
573.3568844,24147.8
578.1092263,23761.6
582.8543308,24097.4
587.5922101,24242
592.322876,23648.8
597.0463405,23985.6
601.7626157,24244.2
606.4717135,23742.6
611.1736458,23651.6
615.8684246,23507.8
620.5560617,23974
625.2365691,23539
629.9099585,23999.4
634.5762419,24144.6
639.2354312,23444.2
643.887538,23450
648.5325743,23196.4
653.1705518,23224.2
657.8014823,23385.4
662.4253775,22646.4
667.0422493,23035.8
671.6521092,23103.2
676.2549691,23269.4
680.8508407,23186.2
685.4397355,23083.8
690.0216654,23111
694.5966419,23003.2
699.1646767,23284.2
703.7257814,22990.6
708.2799676,23117.6
712.827247,23199
717.367631,23002
721.9011314,22826.6
726.4277595,22220.2
730.9475271,22847
735.4604456,22578.2
739.9665264,23109.2
744.4657813,22702.6
748.9582215,22353.2
753.4438587,21979.6
757.9227042,21658
762.3947696,22200.6
766.8600662,21590.4
771.3186056,22893.6
775.770399,21885.2
780.215458,22162.8
784.6537939,21418.2
789.0854181,21245.8
793.510342,21340
797.9285769,21674.6
802.3401342,21238.8
806.7450253,21181.4
811.1432614,21300.2
815.5348538,20819.6
819.9198139,20627.2
824.2981531,21026.4
828.6698824,21074.4
833.0350133,20665.8
837.393557,20302.6
841.7455248,20749.6
846.0909278,20521.4
850.4297774,20612.8
854.7620848,20599.2
859.0878611,20844.6
863.4071176,20151.4
867.7198655,20642
872.026116,20851.4
876.3258802,21159
880.6191693,20734.6
884.9059946,20691.6
889.186367,21135.6
893.4602979,19995
897.7277982,19980.8
901.9888793,20408
906.2435521,20738
910.4918277,20109.6
914.7337174,20143.2
918.9692321,20122.6
923.1983831,20719.4
927.4211813,20287
931.6376378,20863
935.8477637,20414.2
940.0515701,20698.2
944.249068,20717
948.4402684,19830.8
952.6251825,20744.8
956.8038212,20243.8
960.9761955,20966.2
965.1423166,20330.6
969.3021953,20258.2
973.4558427,20377
977.6032699,20202.6
981.7444877,20260.4
985.8795072,20268.4
990.0083394,20181.4
994.1309953,19909.2
998.2474857,20263.4
1002.357822,19463
1006.462014,20103.8
1010.560075,19701.4
1014.652013,20192.6
1018.737841,20325
1022.81757,19919.2
1026.891209,19868.8
1030.958771,19715.8
1035.020266,20000.2
1039.075705,19789.4
1043.1251,19457.6
1047.16846,19577.8
1051.205797,19560.6
1055.237121,19346.4
1059.262444,19348.4
1063.281777,19474.8
1067.295131,19780.2
1071.302515,21485.6
1075.303942,21054
1079.299422,21917.6
1083.288966,21191.2
1087.272585,20384
1091.250289,19874.2
1095.222091,19713.6
1099.187999,19328.2
1103.148026,19478.2
1107.102183,19259
1111.050479,19428.8
1114.992927,19262
1118.929536,19194
1122.860318,19483.8
1126.785283,19052.6
1130.704443,19127.2
1134.617808,19972.2
1138.52539,19955.8
1142.427198,19905.4
1146.323244,19789.2
1150.213538,19175.2
1154.098093,19543.6
1157.976917,18938.6
1161.850023,18941
1165.717421,19315.2
1169.579121,19130.2
1173.435135,19529.6
1177.285474,18739.6
1181.130148,18989.8
1184.969169,19180.8
1188.802547,19004.4
1192.630292,18564.4
1196.452416,18333
1200.26893,18344.6
1204.079844,18149.6
1207.88517,17875
1211.684917,18411.8
1215.479098,17945.6
1219.267722,19518.2
1223.050801,18075
1226.828346,18127.6
1230.600366,18411.8
1234.366874,18280.6
1238.12788,18105.4
1241.883395,18192
1245.633429,18492.4
1249.377994,18522.6
1253.1171,17596.8
1256.850759,18037.4
1260.578981,17864.2
1264.301776,18037.6
1268.019157,17922.8
1271.731133,17648
1275.437715,17556.4
1279.138915,18077.2
1282.834743,18305.4
1286.52521,17833.6
1290.210328,17698
1293.890106,17833.6
1297.564555,18229.8
1301.233688,17608
1304.897514,17903.4
1308.556044,17954.6
1312.209289,18017.2
1315.857261,17533.2
1319.499969,17585.8
1323.137425,18405.8
1326.769641,17940.8
1330.396626,18428.2
1334.018391,17918.2
1337.634948,18136.6
1341.246307,17735
1344.85248,17587.2
1348.453477,17401
1352.049309,17468
1355.639987,17443.4
1359.225522,18002.2
1362.805925,17574.4
1366.381207,17530.8
1369.951379,17535.8
1373.516452,17645.4
1377.076436,17789
1380.631343,17633.4
1384.181184,17465.4
1387.725969,17705.8
1391.26571,17400
1394.800417,17275.2
1398.330102,17281
1401.854776,17480
1405.374448,17279
1408.889132,16891.2
1412.398837,16631.6
1415.903574,16752
1419.403355,17501.4
1422.89819,17089.4
1426.388091,17135.8
1429.873069,17580.6
1433.353134,17008
1436.828298,17014.8
1440.298571,16986.4
1443.763965,16664.2
1447.224491,16486.6
1450.68016,16441.6
1454.130983,16986
1457.576971,16675.4
1461.018135,16842.6
1464.454486,16765.8
1467.886036,16378.4
1471.312794,16365
1474.734774,16103
1478.151985,16703.4
1481.564439,16382.6
1484.972146,16297.6
1488.375119,15802.8
1491.773368,16133
1495.166904,16758.4
1498.555739,15968.4
1501.939883,16274
1505.319349,15583
1508.694146,16043.4
1512.064286,16092.4
1515.429781,15986.6
1518.790642,15785
1522.146879,15950.2
1525.498505,15544.6
1528.845529,15517.6
1532.187965,16222
1535.525822,15886.8
1538.859112,15919.8
1542.187846,16399.6
1545.512036,15492.6
1548.831693,16806.2
1552.146829,16215.4
1555.457453,15635.8
1558.763579,15242.4
1562.065216,15715.4
1565.362377,16061.4
1568.655073,16299
1571.943315,16070.4
1575.227114,16074.2
1578.506482,16134.4
1581.781431,16491
1585.051971,15973.4
1588.318114,16127.8
1591.579872,15919.8
1594.837255,15620
1598.090275,15374.6
1601.338945,15343
1604.583274,15583.2
1607.823275,15106.6
1611.058959,14813
1614.290338,15438.2
1617.517422,14582.6
1620.740224,14867.2
1623.958755,14577.4
1627.173027,14667.2
1630.38305,14281.8
1633.588838,14680.2
1636.7904,14310.2
1639.987749,14497
1643.180896,14712
1646.369853,14036.6
1649.554632,14831
1652.735244,14171.2
1655.9117,13847.8
1659.084013,14107.2
1662.252193,14759.4
1665.416254,13819.4
1668.576205,14083.6
1671.732059,14345.4
1674.883828,14328.2
1678.031523,13802.8
1681.175157,13877.8
1684.314739,13893.8
1687.450284,13779.8
1690.581801,13663.8
1693.709304,13421
1696.832803,13549
1699.952311,13777.2
1703.067839,13771.8
1706.179399,13750.4
1709.287003,14031.2
1712.390663,13609
1715.49039,13703.2
1718.586197,14018.6
1721.678095,13861.6
1724.766096,13759.8
1727.850213,13229.6
1730.930456,13589.2
1734.006838,13346.4
1737.079372,13588.6
1740.148067,13299.8
1743.212938,14295.8
1746.273996,13464.2
1749.331252,13432.4
1752.384718,13514.6
1755.434408,13422.4
1758.480332,13341
1761.522503,13382.6
1764.560933,13142.4
1767.595634,12906.4
1770.626618,13580
1773.653896,13503.2
1776.677482,13133.4
1779.697388,13157.4
1782.713625,13684.4
1785.726205,13643.2
1788.735141,13601
1791.740445,13130.4
1794.742129,13049.4
1797.740206,13588.4
1800.734687,13555.2
1803.725585,13249
1806.712912,13328.6
1809.69668,13013.8
1812.676902,13122.8
1815.65359,12790
1818.626756,12813.4
1821.596413,13015.8
1824.562573,12638.6
1827.525247,12987.2
1830.48445,12903.4
1833.440192,12982.8
1836.392487,12864.2
1839.341347,13007.8
1842.286784,13112.2
1845.22881,12585
1848.167439,13293
1851.102682,12861
1854.034553,12917.4
1856.963063,12798.4
1859.888226,13613
1862.810053,13116.8
1865.728557,12989.6
1868.643751,12661.8
1871.555648,12772.4
1874.46426,12397.8
1877.369599,13082.2
1880.271679,12795.8
1883.170512,12696.4
1886.06611,13148.6
1888.958487,12796.8
1891.847655,12828.2
1894.733626,12921
1897.616414,13038
1900.496032,12533.2
1903.372491,12838.4
1906.245805,13134.8
1909.115987,13115.4
1911.983049,13123.8
1914.847004,12936.4
1917.707866,13047.8
1920.565646,13069
1923.420359,12592.2
1926.272016,12855.2
1929.120631,12680
1931.966216,12812.4
1934.808786,12690
1937.648351,12982.4
1940.484927,12820.2
1943.318525,12999
1946.149158,13167
1948.97684,14312.2
1951.801584,13081.4
1954.623403,12949
1957.44231,12945.8
1960.258318,12544.6
1963.071439,12597
1965.881688,12712.6
1968.689078,12928
1971.493621,12628.6
