Ramanshift[cm-1],Intensity
-93.47115107,12748
-87.69374369,11552
-81.9253076,11443.8
-76.16582701,11458.4
-70.41528615,11516.4
-64.67366933,11291
-58.94096086,11243.2
-53.21714512,11479.2
-47.50220652,11579.8
-41.79612954,11631
-36.09889866,12040.2
-30.41049843,12127
-24.73091343,11791.4
-19.0601283,11834.2
-13.39812769,11561.2
-7.744896327,11457.2
-2.100418946,11253.4
3.535319659,11777.6
9.162334658,11233.4
14.78064118,11519.8
20.39025432,11174
25.99118913,11336
31.58346061,11782.8
37.16708375,11554.2
42.74207347,11165.8
48.30844468,11263.6
53.86621222,11246.8
59.41539093,10822.8
64.95599558,10880.4
70.48804091,11182.8
76.01154164,11343.8
81.52651243,10760.2
87.03296792,11321.2
92.5309227,11517
98.02039134,10963.8
103.5013884,11263.4
108.9739282,11087
114.4380255,11052.6
119.8936944,11242
125.3409495,11972.8
130.779805,10944.2
136.2102753,10773
141.6323747,10859.6
147.0461174,11403.6
152.4515176,11040.6
157.8485895,11002.2
163.2373472,10804
168.6178049,11164
173.9899766,11363.4
179.3538764,11032
184.7095182,11088.8
190.0569161,11229.8
195.396084,11450.8
200.7270358,10905
206.0497854,10951.4
211.3643466,10700.6
216.6707333,11108.6
221.9689593,10712.4
227.2590382,10902.4
232.5409839,10932.2
237.8148101,10832.8
243.0805303,11027.4
248.3381582,10959.2
253.5877075,10802.2
258.8291917,11035
264.0626244,11044.4
269.288019,11218.6
274.5053891,11466.2
279.7147481,11528.6
284.9161094,12492
290.1094865,16869.6
295.2948927,29853.2
300.4723414,58302.4
305.6418459,64158.8
310.8034194,64158.2
315.9570752,64158.6
321.1028267,64157.6
326.2406869,64158.4
331.370669,64157.8
336.4927863,64158
341.6070517,64157.8
346.7134786,64157.8
351.8120798,64157.4
356.9028684,64158.2
361.9858576,64158.2
367.0610602,64158.2
372.1284892,64158.4
377.1881577,64158.4
382.2400784,64158.8
387.2842644,64158.4
392.3207284,64158.6
397.3494833,64158.8
402.370542,64158.4
407.3839172,64159.2
412.3896217,64159
417.3876683,64158.8
422.3780697,64158.4
427.3608386,64158.4
432.3359876,64158.4
437.3035295,64159
442.2634769,64158.8
447.2158423,64159
452.1606383,64159.2
457.0978776,64157.8
462.0275727,64158.4
466.9497361,64158.6
471.8643802,64158.8
476.7715176,64158.4
481.6711608,64159
486.5633221,64158.2
491.448014,64159.4
496.3252488,64159.2
501.195039,64159
506.0573969,64159.2
510.9123349,64158.2
515.7598651,64158.8
520.6,64158.6
525.4327518,64158.4
530.2581327,64159
535.076155,64159
539.8868309,64159
544.6901726,64158.4
549.4861922,64158.4
554.2749019,64158.6
559.0563139,64158
563.8304402,64158.4
568.597293,64158.6
573.3568844,64158.6
578.1092263,64158.8
582.8543308,64158.8
587.5922101,64158.4
592.322876,64158.6
597.0463405,64157.8
601.7626157,64158.6
606.4717135,64158.8
611.1736458,64159
615.8684246,64158.6
620.5560617,64159
625.2365691,64159.4
629.9099585,64159
634.5762419,64159
639.2354312,64158.8
643.887538,64158.4
648.5325743,64159.8
653.1705518,64159
657.8014823,64159.2
662.4253775,64158.8
667.0422493,64159.8
671.6521092,64159.2
676.2549691,64159.6
680.8508407,64159.2
685.4397355,64159.4
690.0216654,64159
694.5966419,64158.6
699.1646767,64158.6
703.7257814,64159
708.2799676,64157.6
712.827247,64159
717.367631,64158.6
721.9011314,64158.2
726.4277595,64158.4
730.9475271,64158.6
735.4604456,64158.2
739.9665264,64158
744.4657813,64158
748.9582215,64159.2
753.4438587,64158.4
757.9227042,64158.8
762.3947696,64159.4
766.8600662,64159
771.3186056,64159.6
775.770399,64159.4
780.215458,64159.4
784.6537939,64159.4
789.0854181,64159.4
793.510342,64159.4
797.9285769,64159.6
802.3401342,64159.6
806.7450253,64159.6
811.1432614,64158.8
815.5348538,64159.2
819.9198139,64159
824.2981531,64159.6
828.6698824,64159.4
833.0350133,64159.2
837.393557,64158.8
841.7455248,64159.2
846.0909278,64158.6
850.4297774,64158.6
854.7620848,64158.4
859.0878611,64157.8
863.4071176,64157.4
867.7198655,64157.4
872.026116,64157.6
876.3258802,64158
880.6191693,64157.8
884.9059946,64156.6
889.186367,64157.4
893.4602979,64158
897.7277982,64158.2
901.9888793,64158
906.2435521,64157
910.4918277,64158.2
914.7337174,64158.2
918.9692321,64158.6
923.1983831,64158.8
927.4211813,64158
931.6376378,64158.8
935.8477637,64158.8
940.0515701,64159
944.249068,64159.4
948.4402684,64159.6
952.6251825,64160
956.8038212,64160.2
960.9761955,64160
965.1423166,64160
969.3021953,64160
973.4558427,64159.4
977.6032699,64160.4
981.7444877,64160
985.8795072,64160.4
990.0083394,64159.6
994.1309953,64160.2
998.2474857,64159.4
1002.357822,64159.4
1006.462014,64159.8
1010.560075,64160.4
1014.652013,64159.8
1018.737841,64159.8
1022.81757,64160
1026.891209,64159.4
1030.958771,64160
1035.020266,64159.4
1039.075705,64159.6
1043.1251,64159.8
1047.16846,64159.4
1051.205797,64158.8
1055.237121,64159.4
1059.262444,64158.2
1063.281777,64158
1067.295131,64158.2
1071.302515,64158
1075.303942,64157.6
1079.299422,64157.8
1083.288966,64157.8
1087.272585,64157.8
1091.250289,64157.2
1095.222091,64157.4
1099.187999,64157.8
1103.148026,64158.2
1107.102183,64158.2
1111.050479,64159
1114.992927,64159.2
1118.929536,64158.6
1122.860318,64158.2
1126.785283,64158
1130.704443,64157.8
1134.617808,64158.4
1138.52539,64159.2
1142.427198,64159
1146.323244,64159
1150.213538,64159
1154.098093,64158.8
1157.976917,64159.4
1161.850023,64158.8
1165.717421,64159
1169.579121,64159
1173.435135,64159
1177.285474,64158.8
1181.130148,64159.2
1184.969169,64158.6
1188.802547,64159.2
1192.630292,64159.2
1196.452416,64158.6
1200.26893,64159
1204.079844,64159.2
1207.88517,64159
1211.684917,64159
1215.479098,64158.6
1219.267722,64158.8
1223.050801,64158.2
1226.828346,64158.4
1230.600366,64158.8
1234.366874,64158.6
1238.12788,64158.6
1241.883395,64159.2
1245.633429,64159
1249.377994,64159.6
1253.1171,64159
1256.850759,64159.2
1260.578981,64158.8
1264.301776,64159.4
1268.019157,64159.2
1271.731133,64160.2
1275.437715,64159.4
1279.138915,64160.6
1282.834743,64160
1286.52521,64160.2
1290.210328,64160.6
1293.890106,64160.6
1297.564555,64160.2
1301.233688,64161.4
1304.897514,64161.4
1308.556044,64161.4
1312.209289,64161.8
1315.857261,64161.6
1319.499969,64160.6
1323.137425,64161
1326.769641,64161.4
1330.396626,64160.8
1334.018391,64161.2
1337.634948,64160.2
1341.246307,64160.6
1344.85248,64161
1348.453477,64160.6
1352.049309,64160.8
1355.639987,64161
1359.225522,64161
1362.805925,64160.2
1366.381207,64161
1369.951379,64160.4
1373.516452,64160.6
1377.076436,64160.8
1380.631343,64160.2
1384.181184,64160.2
1387.725969,64160.2
1391.26571,64160.2
1394.800417,64160
1398.330102,64159.8
1401.854776,64160
1405.374448,64160
1408.889132,64159.6
1412.398837,64159
1415.903574,64159.4
1419.403355,64158.8
1422.89819,64159
1426.388091,64158.4
1429.873069,64158.6
1433.353134,64158.4
1436.828298,64159
1440.298571,64159.2
1443.763965,64159.6
1447.224491,64159.2
1450.68016,64159.4
1454.130983,64160
1457.576971,64160.2
1461.018135,64160.6
1464.454486,64160.2
1467.886036,64160.2
1471.312794,64161.2
1474.734774,64160.4
1478.151985,64162
1481.564439,64162.8
1484.972146,64162.8
1488.375119,64163.2
1491.773368,64163.8
1495.166904,64163.4
1498.555739,64164
1501.939883,64164.4
1505.319349,64164.2
1508.694146,64164.4
1512.064286,64164.8
1515.429781,64165
1518.790642,64164.2
1522.146879,64164
1525.498505,64164
1528.845529,64164.6
1532.187965,64163.8
1535.525822,64163.4
1538.859112,64163
1542.187846,64162.6
1545.512036,64162
1548.831693,64161.8
1552.146829,64161
1555.457453,64159.6
1558.763579,64160.2
1562.065216,64159.4
1565.362377,64158.6
1568.655073,64158.2
1571.943315,64158
1575.227114,64157.6
1578.506482,64157.4
1581.781431,64156.8
1585.051971,64157.6
1588.318114,64156.8
1591.579872,64157
1594.837255,64157.8
1598.090275,64158.2
1601.338945,64157.8
1604.583274,64157.8
1607.823275,64158
1611.058959,64159.2
1614.290338,64159.4
1617.517422,64159.8
1620.740224,64161
1623.958755,64161.6
1627.173027,64162.2
1630.38305,64163.2
1633.588838,64163.6
1636.7904,64164.2
1639.987749,64165.2
1643.180896,64166
1646.369853,64167
1649.554632,64167.4
1652.735244,64168.4
1655.9117,64168.8
1659.084013,64169.2
1662.252193,64170.2
1665.416254,64171.4
1668.576205,64171.4
1671.732059,64172.6
1674.883828,64174.2
1678.031523,64175.4
1681.175157,64176.2
1684.314739,64179.4
1687.450284,64182
1690.581801,64183
1693.709304,64184.6
1696.832803,64188.6
1699.952311,64201.8
1703.067839,64229.4
1706.179399,64296.8
1709.287003,64363.4
1712.390663,64032
1715.49039,63755.6
1718.586197,63811
1721.678095,63390
1724.766096,63111.4
1727.850213,62263.6
1730.930456,61579.6
1734.006838,61732.2
1737.079372,61531.8
1740.148067,60794.2
1743.212938,61320.6
1746.273996,59934
1749.331252,59770.8
1752.384718,59059
1755.434408,58789.8
1758.480332,58466.4
1761.522503,57709.6
1764.560933,57445.8
1767.595634,56643.8
1770.626618,57193.4
1773.653896,56656
1776.677482,56017.2
1779.697388,55854.8
1782.713625,56317.4
1785.726205,56168.2
1788.735141,55938.8
1791.740445,55612.2
1794.742129,55250.6
1797.740206,55766.6
1800.734687,55510.8
1803.725585,55663.8
1806.712912,55040.4
1809.69668,54976
1812.676902,54889.8
1815.65359,54491.4
1818.626756,54277
1821.596413,54154.6
1824.562573,53646.8
1827.525247,53681
1830.48445,53396.8
1833.440192,53534.8
1836.392487,53221.8
1839.341347,53376.2
1842.286784,53133
1845.22881,52378.4
1848.167439,52966.4
1851.102682,52716.6
1854.034553,52402.6
1856.963063,52264.8
1859.888226,52703.8
1862.810053,51930.2
1865.728557,51381.4
1868.643751,51302.8
1871.555648,51255.4
1874.46426,50245
1877.369599,51027.6
1880.271679,50483
1883.170512,50630.6
1886.06611,50693.2
1888.958487,50457.2
1891.847655,50182.6
1894.733626,50109.6
1897.616414,49891.8
1900.496032,49125.8
1903.372491,49339
1906.245805,49541.2
1909.115987,49565.8
1911.983049,49025.6
1914.847004,49008
1917.707866,48955.2
1920.565646,48590.2
1923.420359,48164.6
1926.272016,48186.8
1929.120631,47946
1931.966216,47646.4
1934.808786,47621.4
1937.648351,47346.2
1940.484927,47183.8
1943.318525,46787.6
1946.149158,47166.6
1948.97684,47882.4
1951.801584,46634.8
1954.623403,46406.4
1957.44231,46207.8
1960.258318,45713
1963.071439,45733.6
1965.881688,45846.6
1968.689078,45591.8
1971.493621,44990
