Ramanshift[cm-1],Intensity
-93.47115107,13929.2
-87.69374369,12552.2
-81.9253076,12352.4
-76.16582701,12517.2
-70.41528615,12540.2
-64.67366933,12168.8
-58.94096086,12293
-53.21714512,12495
-47.50220652,12643.4
-41.79612954,12660.2
-36.09889866,13070.2
-30.41049843,13205
-24.73091343,12698.4
-19.0601283,12807.8
-13.39812769,12586
-7.744896327,12320.8
-2.100418946,12208.4
3.535319659,12868.4
9.162334658,12227
14.78064118,12609.6
20.39025432,12181
25.99118913,12285.2
31.58346061,12645.2
37.16708375,12567.6
42.74207347,12180
48.30844468,12229.8
53.86621222,12077.4
59.41539093,11758.8
64.95599558,11795
70.48804091,12079
76.01154164,12235.8
81.52651243,11625.8
87.03296792,12244
92.5309227,12509.4
98.02039134,11837.2
103.5013884,12110.6
108.9739282,11874
114.4380255,11981.2
119.8936944,12163.8
125.3409495,12958.4
130.779805,11912.4
136.2102753,11706.6
141.6323747,11718.6
147.0461174,12345.2
152.4515176,11896
157.8485895,11909.4
163.2373472,11755.4
168.6178049,12034.4
173.9899766,12320.8
179.3538764,11848.2
184.7095182,11971.4
190.0569161,12101.2
195.396084,12319.6
200.7270358,11639.4
206.0497854,11775.4
211.3643466,11588.6
216.6707333,11861.6
221.9689593,11525.4
227.2590382,11748.4
232.5409839,11742
237.8148101,11606
243.0805303,11732
248.3381582,11652.6
253.5877075,11504.8
258.8291917,11701
264.0626244,11836.6
269.288019,11927
274.5053891,12124.6
279.7147481,11823.2
284.9161094,11596.4
290.1094865,12140
295.2948927,13228.8
300.4723414,15982.2
305.6418459,18852.8
310.8034194,21560.4
315.9570752,23539.6
321.1028267,23947.6
326.2406869,24226.8
331.370669,24537.8
336.4927863,24785.8
341.6070517,25033.6
346.7134786,25204
351.8120798,25724.2
356.9028684,25448.4
361.9858576,25428.6
367.0610602,25664.4
372.1284892,25502
377.1881577,26233.8
382.2400784,27023
387.2842644,28445.2
392.3207284,29434.2
397.3494833,28709.6
402.370542,27772
407.3839172,26554.6
412.3896217,25526
417.3876683,24734.2
422.3780697,24534
427.3608386,24309.4
432.3359876,24705.6
437.3035295,24495.8
442.2634769,24526.4
447.2158423,23482.2
452.1606383,23611.2
457.0978776,23740
462.0275727,23104.2
466.9497361,23672.6
471.8643802,23108.8
476.7715176,23648.2
481.6711608,23590.2
486.5633221,23890
491.448014,23648.6
496.3252488,23600.4
501.195039,23464.8
506.0573969,23964.2
510.9123349,23609.4
515.7598651,23051.8
520.6,23371
525.4327518,23210.6
530.2581327,23233.6
535.076155,22777
539.8868309,22933.6
544.6901726,23025.2
549.4861922,22803.2
554.2749019,23516.2
559.0563139,22653.2
563.8304402,22409.2
568.597293,23326.6
573.3568844,22964
578.1092263,22460.2
582.8543308,23047.6
587.5922101,22973.6
592.322876,22529.2
597.0463405,22683.2
601.7626157,22992.6
606.4717135,22522.6
611.1736458,22533.4
615.8684246,22623.2
620.5560617,22881
625.2365691,22644.6
629.9099585,22887.2
634.5762419,23186.4
639.2354312,22386.2
643.887538,22582.2
648.5325743,22447.6
653.1705518,22336.6
657.8014823,22426.8
662.4253775,21633.6
667.0422493,22076.2
671.6521092,21993.2
676.2549691,22283.8
680.8508407,22233.2
685.4397355,21970.8
690.0216654,22064
694.5966419,21935.4
699.1646767,22572
703.7257814,22089.6
708.2799676,22258.4
712.827247,22226.8
717.367631,21929
721.9011314,21982.2
726.4277595,21151
730.9475271,21919.6
735.4604456,21702.8
739.9665264,22208.8
744.4657813,21630.6
748.9582215,21561.8
753.4438587,21015
757.9227042,20802.8
762.3947696,21408.2
766.8600662,20838.8
771.3186056,22343.2
775.770399,21154
780.215458,21389.4
784.6537939,20711.2
789.0854181,20805.8
793.510342,20851.2
797.9285769,21314.2
802.3401342,20872.2
806.7450253,20882.6
811.1432614,20845
815.5348538,20547.2
819.9198139,20292.8
824.2981531,20418.8
828.6698824,20419.2
833.0350133,20183
837.393557,19766.8
841.7455248,20261.4
846.0909278,20015.8
850.4297774,19967.8
854.7620848,20060.2
859.0878611,20329
863.4071176,19604.4
867.7198655,20075.2
872.026116,20391.6
876.3258802,20812.6
880.6191693,20332.6
884.9059946,20468.2
889.186367,20708.6
893.4602979,19647
897.7277982,19634.2
901.9888793,19989.6
906.2435521,20326.4
910.4918277,19914.6
914.7337174,19936.8
918.9692321,19778.6
923.1983831,20311.6
927.4211813,20123.2
931.6376378,20645.2
935.8477637,20159.4
940.0515701,20308.6
944.249068,20474
948.4402684,19549.6
952.6251825,20449.6
956.8038212,20066.6
960.9761955,20581
965.1423166,20125.2
969.3021953,20259.8
973.4558427,20229
977.6032699,19932.6
981.7444877,20012.8
985.8795072,19993.6
990.0083394,19954.4
994.1309953,19759
998.2474857,20131.4
1002.357822,19365.2
1006.462014,19857.4
1010.560075,19570
1014.652013,19730.2
1018.737841,20133.8
1022.81757,19661.2
1026.891209,19378.4
1030.958771,19340.4
1035.020266,19534.6
1039.075705,19196.4
1043.1251,19002.2
1047.16846,19303.4
1051.205797,19246.6
1055.237121,18763.2
1059.262444,19036.2
1063.281777,19062.6
1067.295131,19823.8
1071.302515,21721
1075.303942,21852.6
1079.299422,23081.6
1083.288966,22040
1087.272585,20747.2
1091.250289,19879.8
1095.222091,19483.2
1099.187999,18830.6
1103.148026,19002
1107.102183,18780.6
1111.050479,18840.6
1114.992927,18813.6
1118.929536,18493.4
1122.860318,19069.6
1126.785283,18598.6
1130.704443,18567.6
1134.617808,19456.2
1138.52539,19403.8
1142.427198,19270.8
1146.323244,19155.2
1150.213538,18757.8
1154.098093,19226.4
1157.976917,18578.2
1161.850023,18486.2
1165.717421,18963
1169.579121,18759
1173.435135,19231.4
1177.285474,18557.6
1181.130148,18846.6
1184.969169,19068.4
1188.802547,18792.4
1192.630292,18247
1196.452416,17881.6
1200.26893,17777
1204.079844,17621.4
1207.88517,17196.4
1211.684917,17889.2
1215.479098,17435.8
1219.267722,19068
1223.050801,17571
1226.828346,17644.4
1230.600366,17884.4
1234.366874,17794
1238.12788,17601.2
1241.883395,17607
1245.633429,17901.6
1249.377994,17871.8
1253.1171,17119.6
1256.850759,17536.4
1260.578981,17464.6
1264.301776,17589
1268.019157,17401.4
1271.731133,17076.2
1275.437715,16912
1279.138915,17455.4
1282.834743,17732.2
1286.52521,17224.6
1290.210328,17015.2
1293.890106,17148
1297.564555,17728
1301.233688,17000.4
1304.897514,17404.2
1308.556044,17418.8
1312.209289,17426.8
1315.857261,16838.8
1319.499969,17103.2
1323.137425,17684.4
1326.769641,17260.8
1330.396626,17832.2
1334.018391,17225.4
1337.634948,17372.4
1341.246307,17053.6
1344.85248,17089
1348.453477,16855.8
1352.049309,16790.8
1355.639987,16879
1359.225522,17440.6
1362.805925,17029.4
1366.381207,17052.8
1369.951379,17057.4
1373.516452,17093.4
1377.076436,17358.6
1380.631343,17209.8
1384.181184,17058.4
1387.725969,17184
1391.26571,16945.4
1394.800417,16686.2
1398.330102,16750.6
1401.854776,16973.2
1405.374448,16655
1408.889132,16244.2
1412.398837,15895.6
1415.903574,16306.2
1419.403355,17099.6
1422.89819,16655.4
1426.388091,16577.6
1429.873069,17015.8
1433.353134,16502
1436.828298,16444.4
1440.298571,16515.8
1443.763965,16289.4
1447.224491,16076.4
1450.68016,16028.2
1454.130983,16417.6
1457.576971,16228.4
1461.018135,16406.6
1464.454486,16560.4
1467.886036,16005.4
1471.312794,16030.8
1474.734774,15662
1478.151985,16380.8
1481.564439,16108
1484.972146,15942.8
1488.375119,15408
1491.773368,15903.2
1495.166904,16488.2
1498.555739,15627.8
1501.939883,15821.8
1505.319349,15286.2
1508.694146,15685.6
1512.064286,15804.4
1515.429781,15660.8
1518.790642,15527.6
1522.146879,15715
1525.498505,15280.8
1528.845529,15274.8
1532.187965,15909.2
1535.525822,15601.6
1538.859112,15579.4
1542.187846,16202
1545.512036,15364
1548.831693,16635.8
1552.146829,16119.8
1555.457453,15415.8
1558.763579,15084.8
1562.065216,15661
1565.362377,16083.8
1568.655073,16280.6
1571.943315,16311.8
1575.227114,16363.4
1578.506482,16295
1581.781431,17052.4
1585.051971,16725.2
1588.318114,16790.2
1591.579872,16434
1594.837255,16058.6
1598.090275,15511.8
1601.338945,15346.6
1604.583274,15497
1607.823275,15261.6
1611.058959,14662
1614.290338,15453.8
1617.517422,14474.8
1620.740224,14931.6
1623.958755,14515.6
1627.173027,14575.8
1630.38305,14176.2
1633.588838,14675
1636.7904,14350.8
1639.987749,14535.4
1643.180896,14639.2
1646.369853,14042.6
1649.554632,14915.8
1652.735244,14123.8
1655.9117,13768.2
1659.084013,14017.2
1662.252193,14764.2
1665.416254,13888.4
1668.576205,14068.2
1671.732059,14377.6
1674.883828,14272.4
1678.031523,13785.6
1681.175157,13935.2
1684.314739,13854
1687.450284,13821
1690.581801,13699.8
1693.709304,13513.8
1696.832803,13620.8
1699.952311,13748
1703.067839,13665.6
1706.179399,13672.2
1709.287003,14157.8
1712.390663,13599.4
1715.49039,13712
1718.586197,14023.6
1721.678095,13872.8
1724.766096,13882.8
1727.850213,13221.2
1730.930456,13610.4
1734.006838,13342.6
1737.079372,13637.8
1740.148067,13280.8
1743.212938,14289.6
1746.273996,13554.2
1749.331252,13482.6
1752.384718,13413.2
1755.434408,13551.6
1758.480332,13379.8
1761.522503,13393.4
1764.560933,13176.8
1767.595634,12889.2
1770.626618,13641.2
1773.653896,13542.2
1776.677482,13257.4
1779.697388,13154.2
1782.713625,13735.4
1785.726205,13608.2
1788.735141,13636.6
1791.740445,13065.6
1794.742129,13042.4
1797.740206,13553.6
1800.734687,13623.8
1803.725585,13223.4
1806.712912,13318
1809.69668,13034.2
1812.676902,13163
1815.65359,12811.4
1818.626756,12798.6
1821.596413,13045.2
1824.562573,12739.2
1827.525247,13081.8
1830.48445,12886.6
1833.440192,13083.2
1836.392487,12955.2
1839.341347,13173.8
1842.286784,13213.4
1845.22881,12621.8
1848.167439,13275.8
1851.102682,13014.8
1854.034553,12969.4
1856.963063,12764.6
1859.888226,13638.4
1862.810053,13258.8
1865.728557,12966.4
1868.643751,12718.8
1871.555648,12737.4
1874.46426,12483
1877.369599,13122.6
1880.271679,12876.2
1883.170512,12707
1886.06611,13175.2
1888.958487,12954.2
1891.847655,12919
1894.733626,12912.8
1897.616414,13081.4
1900.496032,12645
1903.372491,12917.2
1906.245805,13230.6
1909.115987,13195.6
1911.983049,13164.4
1914.847004,13032.8
1917.707866,13262.6
1920.565646,13126.6
1923.420359,12695.6
1926.272016,12978.8
1929.120631,12619.2
1931.966216,12821.6
1934.808786,12760.2
1937.648351,13035.2
1940.484927,13026.4
1943.318525,13071.6
1946.149158,13187.4
1948.97684,14259.8
1951.801584,13178.4
1954.623403,12987.4
1957.44231,13186.2
1960.258318,12551.6
1963.071439,12574.6
1965.881688,12740.8
1968.689078,12873
1971.493621,12649.6
