Ramanshift[cm-1],Intensity
-93.47115107,13972.6
-87.69374369,12715.6
-81.9253076,12481
-76.16582701,12667.8
-70.41528615,12651.2
-64.67366933,12411.8
-58.94096086,12416.6
-53.21714512,12538.6
-47.50220652,12753.6
-41.79612954,12719.8
-36.09889866,13204.2
-30.41049843,13280.4
-24.73091343,12917.6
-19.0601283,12994.4
-13.39812769,12794.6
-7.744896327,12525.2
-2.100418946,12351
3.535319659,12913.2
9.162334658,12365.4
14.78064118,12698.8
20.39025432,12370.2
25.99118913,12439.2
31.58346061,12882.4
37.16708375,12735
42.74207347,12377.4
48.30844468,12383.4
53.86621222,12250.4
59.41539093,11885.6
64.95599558,11874.8
70.48804091,12332.6
76.01154164,12394.2
81.52651243,11767.2
87.03296792,12312.4
92.5309227,12627.2
98.02039134,11912.6
103.5013884,12203.4
108.9739282,12087
114.4380255,12146.4
119.8936944,12248.6
125.3409495,13128.4
130.779805,11955
136.2102753,11793.6
141.6323747,11802.6
147.0461174,12420.2
152.4515176,12009.8
157.8485895,11930.8
163.2373472,11852.8
168.6178049,12144.4
173.9899766,12453
179.3538764,12023
184.7095182,12088.8
190.0569161,12280.4
195.396084,12463.4
200.7270358,11879
206.0497854,11850.8
211.3643466,11599.6
216.6707333,12007.4
221.9689593,11627.4
227.2590382,11907.4
232.5409839,11849.2
237.8148101,11751.2
243.0805303,11825.8
248.3381582,11796
253.5877075,11673.2
258.8291917,11802.6
264.0626244,11868.8
269.288019,12034.8
274.5053891,12250.6
279.7147481,11832.6
284.9161094,11628.2
290.1094865,12010.6
295.2948927,12674.8
300.4723414,14450.8
305.6418459,15800.2
310.8034194,17145.6
315.9570752,18470.6
321.1028267,18889
326.2406869,18975.6
331.370669,19225.6
336.4927863,19342.6
341.6070517,19438.8
346.7134786,19274.8
351.8120798,19755
356.9028684,19311.6
361.9858576,19460.8
367.0610602,19890.8
372.1284892,19595
377.1881577,19999.4
382.2400784,20391
387.2842644,21027.8
392.3207284,21840.2
397.3494833,21038
402.370542,20837
407.3839172,20061.2
412.3896217,19366.6
417.3876683,18912.4
422.3780697,18870.2
427.3608386,18757.8
432.3359876,19099.8
437.3035295,19350.8
442.2634769,19384
447.2158423,18481
452.1606383,18586.6
457.0978776,18687.4
462.0275727,17994.2
466.9497361,18657.6
471.8643802,17988.2
476.7715176,18457.2
481.6711608,18334.6
486.5633221,18584.6
491.448014,18591.4
496.3252488,18302.4
501.195039,18439.6
506.0573969,18613.8
510.9123349,18350.2
515.7598651,17764.6
520.6,18400.2
525.4327518,18338.6
530.2581327,18229.6
535.076155,17741.4
539.8868309,18061.4
544.6901726,18250.4
549.4861922,17894.4
554.2749019,18774.4
559.0563139,17900.8
563.8304402,17613.8
568.597293,18741.2
573.3568844,18311.4
578.1092263,17742
582.8543308,18346.2
587.5922101,18247.8
592.322876,17754.4
597.0463405,17888.2
601.7626157,18217.2
606.4717135,17741.2
611.1736458,17865.8
615.8684246,17822.8
620.5560617,18056.4
625.2365691,17801.2
629.9099585,18252.8
634.5762419,18442.4
639.2354312,17723.8
643.887538,18012
648.5325743,17665.4
653.1705518,17721.8
657.8014823,17813.2
662.4253775,17176.4
667.0422493,17488
671.6521092,17502
676.2549691,17588.4
680.8508407,17640
685.4397355,17506.6
690.0216654,17554.6
694.5966419,17384
699.1646767,17900
703.7257814,17541.6
708.2799676,17686.4
712.827247,17901.2
717.367631,17525.8
721.9011314,17600.8
726.4277595,16798.6
730.9475271,17454.8
735.4604456,17399.4
739.9665264,17887.8
744.4657813,17351.2
748.9582215,17358
753.4438587,16827.8
757.9227042,16675.4
762.3947696,17165
766.8600662,16706.4
771.3186056,18137.6
775.770399,17077.8
780.215458,17454.6
784.6537939,16610
789.0854181,16623.2
793.510342,16708.6
797.9285769,17229.4
802.3401342,16833.6
806.7450253,16900.2
811.1432614,16832.6
815.5348538,16645.8
819.9198139,16328
824.2981531,16576.6
828.6698824,16713.2
833.0350133,16586.8
837.393557,16138.2
841.7455248,16556
846.0909278,16287.2
850.4297774,16149.4
854.7620848,16383.2
859.0878611,16673.6
863.4071176,15868.2
867.7198655,16439.6
872.026116,16822.8
876.3258802,17217.4
880.6191693,16767.6
884.9059946,16629.4
889.186367,17084
893.4602979,15970.8
897.7277982,15945.8
901.9888793,16348
906.2435521,16658.6
910.4918277,16147.4
914.7337174,16041
918.9692321,15999.8
923.1983831,16569.6
927.4211813,16162.8
931.6376378,16883
935.8477637,16284.8
940.0515701,16553.2
944.249068,16518.4
948.4402684,15805.4
952.6251825,16789.4
956.8038212,16203.4
960.9761955,16803.4
965.1423166,16364.6
969.3021953,16426.2
973.4558427,16323.8
977.6032699,16133.6
981.7444877,16229
985.8795072,16169.6
990.0083394,16367.2
994.1309953,15880.4
998.2474857,16332
1002.357822,15601.8
1006.462014,16222.2
1010.560075,15904.8
1014.652013,16170.4
1018.737841,16587
1022.81757,16032.4
1026.891209,15880.2
1030.958771,15820.8
1035.020266,16108
1039.075705,15805.6
1043.1251,15668.8
1047.16846,15861
1051.205797,15860
1055.237121,15515.2
1059.262444,15454.6
1063.281777,15350.6
1067.295131,15654
1071.302515,17185.2
1075.303942,16972.2
1079.299422,18208
1083.288966,17517
1087.272585,16843.4
1091.250289,16344
1095.222091,16032
1099.187999,15622.4
1103.148026,15684.4
1107.102183,15597.2
1111.050479,15701.2
1114.992927,15609.6
1118.929536,15430.8
1122.860318,15606.6
1126.785283,15335.2
1130.704443,15163.8
1134.617808,16038.6
1138.52539,15950.8
1142.427198,15889.4
1146.323244,15943.6
1150.213538,15549
1154.098093,15688.4
1157.976917,15234
1161.850023,15034.6
1165.717421,15764
1169.579121,15284.2
1173.435135,15805.2
1177.285474,14893
1181.130148,15236.8
1184.969169,15548.4
1188.802547,15611.4
1192.630292,15204
1196.452416,14754.8
1200.26893,14908.4
1204.079844,14590.8
1207.88517,14246.8
1211.684917,14845
1215.479098,14400.6
1219.267722,16026.8
1223.050801,14478.2
1226.828346,14455.6
1230.600366,14820
1234.366874,14754
1238.12788,14608.8
1241.883395,14720.8
1245.633429,14925.6
1249.377994,14837.4
1253.1171,14202.4
1256.850759,14540.4
1260.578981,14545.8
1264.301776,14548.6
1268.019157,14520.4
1271.731133,14161.6
1275.437715,14143.6
1279.138915,14687.6
1282.834743,14867.4
1286.52521,14414.2
1290.210328,14218.8
1293.890106,14335
1297.564555,14860.4
1301.233688,14216.6
1304.897514,14513.2
1308.556044,14597.6
1312.209289,14592.6
1315.857261,14017.6
1319.499969,14193.8
1323.137425,14946.8
1326.769641,14349.4
1330.396626,15042.2
1334.018391,14482.8
1337.634948,14524.8
1341.246307,14234.6
1344.85248,14305.6
1348.453477,14008
1352.049309,13997.8
1355.639987,14069.4
1359.225522,14679.4
1362.805925,14293
1366.381207,14223.4
1369.951379,14326.6
1373.516452,14442
1377.076436,14583.2
1380.631343,14425.6
1384.181184,14312
1387.725969,14382
1391.26571,14053.2
1394.800417,13788.2
1398.330102,14115
1401.854776,14262
1405.374448,14082
1408.889132,13717
1412.398837,13368.2
1415.903574,13708.6
1419.403355,14369.6
1422.89819,13942.4
1426.388091,14042.4
1429.873069,14496.2
1433.353134,13813
1436.828298,13848.2
1440.298571,14038.8
1443.763965,13678.4
1447.224491,13529.4
1450.68016,13529.8
1454.130983,14077.8
1457.576971,13872.8
1461.018135,14122.6
1464.454486,14154
1467.886036,13750
1471.312794,13869.8
1474.734774,13440.4
1478.151985,14155.6
1481.564439,13833.4
1484.972146,13809
1488.375119,13361.6
1491.773368,13751.8
1495.166904,14370
1498.555739,13590.4
1501.939883,13630.8
1505.319349,13182.8
1508.694146,13570.8
1512.064286,13646.2
1515.429781,13503.8
1518.790642,13415.2
1522.146879,13726.8
1525.498505,13130.8
1528.845529,13108.2
1532.187965,13873.8
1535.525822,13467.4
1538.859112,13567.8
1542.187846,14113.2
1545.512036,13173.2
1548.831693,14456.2
1552.146829,13939.4
1555.457453,13223.2
1558.763579,12862
1562.065216,13395.6
1565.362377,13702.2
1568.655073,13969.4
1571.943315,13798
1575.227114,13760.4
1578.506482,13758.4
1581.781431,14440.2
1585.051971,14038
1588.318114,14214.2
1591.579872,14095.2
1594.837255,13841
1598.090275,13506.4
1601.338945,13398.4
1604.583274,13705
1607.823275,13314
1611.058959,12800
1614.290338,13609.6
1617.517422,12786.4
1620.740224,13177.4
1623.958755,12781.6
1627.173027,12949.8
1630.38305,12591
1633.588838,12994.4
1636.7904,12672.8
1639.987749,13025.6
1643.180896,13200.4
1646.369853,12499.6
1649.554632,13392.6
1652.735244,12739.8
1655.9117,12338.4
1659.084013,12665.4
1662.252193,13441.8
1665.416254,12538.4
1668.576205,12825.6
1671.732059,13028.4
1674.883828,13078.2
1678.031523,12490.2
1681.175157,12696.8
1684.314739,12681
1687.450284,12580.4
1690.581801,12562.6
1693.709304,12277
1696.832803,12437.6
1699.952311,12633
1703.067839,12514.6
1706.179399,12487.6
1709.287003,12864.6
1712.390663,12631.6
1715.49039,12556.4
1718.586197,12885.8
1721.678095,12724.6
1724.766096,12827.4
1727.850213,12225
1730.930456,12591.4
1734.006838,12397.6
1737.079372,12662.8
1740.148067,12310.8
1743.212938,13293.6
1746.273996,12505.8
1749.331252,12480.6
1752.384718,12457.6
1755.434408,12482.2
1758.480332,12498.4
1761.522503,12510.4
1764.560933,12256.2
1767.595634,12031.6
1770.626618,12724
1773.653896,12723.6
1776.677482,12421.8
1779.697388,12213.6
1782.713625,12859.4
1785.726205,12781
1788.735141,12676.8
1791.740445,12250.8
1794.742129,12212.2
1797.740206,12707.6
1800.734687,12964.4
1803.725585,12538.2
1806.712912,12501
1809.69668,12212.8
1812.676902,12273.6
1815.65359,11957.6
1818.626756,12119.4
1821.596413,12211.6
1824.562573,11894.4
1827.525247,12306.2
1830.48445,12035.6
1833.440192,12238.6
1836.392487,12146.4
1839.341347,12280.4
1842.286784,12413.6
1845.22881,11844.6
1848.167439,12433.8
1851.102682,12160
1854.034553,12268
1856.963063,11923.4
1859.888226,12916.6
1862.810053,12369.8
1865.728557,12194.4
1868.643751,11939.6
1871.555648,11934.2
1874.46426,11638
1877.369599,12416.2
1880.271679,12063.6
1883.170512,12041.6
1886.06611,12591.4
1888.958487,12114.4
1891.847655,12191.2
1894.733626,12246
1897.616414,12332.6
1900.496032,11866
1903.372491,12232.6
1906.245805,12513.2
1909.115987,12508.6
1911.983049,12439.6
1914.847004,12300.8
1917.707866,12486.4
1920.565646,12509.8
1923.420359,12060.8
1926.272016,12199.4
1929.120631,11961.6
1931.966216,12196.4
1934.808786,12073.2
1937.648351,12393.8
1940.484927,12241
1943.318525,12405.8
1946.149158,12649
1948.97684,13602
1951.801584,12660.8
1954.623403,12393.2
1957.44231,12428.6
1960.258318,11935
1963.071439,12047.6
1965.881688,12105.8
1968.689078,12422
1971.493621,12056.2
