Ramanshift[cm-1],Intensity
-93.47115107,13714.6
-87.69374369,12385.4
-81.9253076,12256.4
-76.16582701,12341.4
-70.41528615,12425.6
-64.67366933,12044.2
-58.94096086,12070.6
-53.21714512,12353.8
-47.50220652,12501.6
-41.79612954,12453.8
-36.09889866,12914.6
-30.41049843,12960.2
-24.73091343,12598.4
-19.0601283,12586
-13.39812769,12396.8
-7.744896327,12253.8
-2.100418946,11941.6
3.535319659,12610.4
9.162334658,12007.8
14.78064118,12317.6
20.39025432,12058.6
25.99118913,12136.8
31.58346061,12542.8
37.16708375,12297.4
42.74207347,11989.2
48.30844468,12057.6
53.86621222,11980.2
59.41539093,11596.6
64.95599558,11568.4
70.48804091,12022.4
76.01154164,12020
81.52651243,11538
87.03296792,12046.2
92.5309227,12248.6
98.02039134,11604.6
103.5013884,11988.2
108.9739282,11778
114.4380255,11796.8
119.8936944,11911.4
125.3409495,12913.4
130.779805,11747
136.2102753,11504
141.6323747,11586.4
147.0461174,12084.6
152.4515176,11657.2
157.8485895,11665.2
163.2373472,11644.4
168.6178049,11890.6
173.9899766,12178.2
179.3538764,11748.8
184.7095182,11729
190.0569161,12010
195.396084,12141
200.7270358,11658.2
206.0497854,11701.8
211.3643466,11370
216.6707333,11828.6
221.9689593,11408
227.2590382,11587
232.5409839,11528.4
237.8148101,11416.2
243.0805303,11599
248.3381582,11530.6
253.5877075,11342.6
258.8291917,11574.6
264.0626244,11700.6
269.288019,11832.2
274.5053891,11979.6
279.7147481,11724.4
284.9161094,11609.2
290.1094865,12347
295.2948927,14500.4
300.4723414,19604.6
305.6418459,25905.2
310.8034194,31715.8
315.9570752,35447.8
321.1028267,36512.8
326.2406869,37026
331.370669,37402.2
336.4927863,37931.4
341.6070517,38832.8
346.7134786,39391.6
351.8120798,39861.8
356.9028684,39549.4
361.9858576,39614
367.0610602,39751.2
372.1284892,39601.8
377.1881577,40178.8
382.2400784,40536.2
387.2842644,41654.2
392.3207284,42235.8
397.3494833,41728
402.370542,41001.2
407.3839172,40211
412.3896217,39056.8
417.3876683,38534.2
422.3780697,38546.6
427.3608386,38178.6
432.3359876,38282.2
437.3035295,38223
442.2634769,38118.8
447.2158423,36962.2
452.1606383,37206
457.0978776,37141.4
462.0275727,36506.4
466.9497361,37053.2
471.8643802,36489
476.7715176,37110.4
481.6711608,37204.4
486.5633221,37442.4
491.448014,37082.8
496.3252488,36987.6
501.195039,37068.4
506.0573969,37239.4
510.9123349,36712.4
515.7598651,36143
520.6,36619.4
525.4327518,36160.4
530.2581327,36303.6
535.076155,35477
539.8868309,35750.4
544.6901726,35812.4
549.4861922,35447.4
554.2749019,36197
559.0563139,35352
563.8304402,34958.6
568.597293,36077.4
573.3568844,35722.2
578.1092263,35304.2
582.8543308,35820.2
587.5922101,35575.4
592.322876,35196
597.0463405,35339.2
601.7626157,35660.2
606.4717135,35124
611.1736458,35267.4
615.8684246,35043.8
620.5560617,35438.8
625.2365691,34996
629.9099585,35297.6
634.5762419,35374.4
639.2354312,34539.4
643.887538,34694.4
648.5325743,34341
653.1705518,34221.8
657.8014823,34356
662.4253775,33561
667.0422493,33996.8
671.6521092,33934.2
676.2549691,34049
680.8508407,34076
685.4397355,33822.4
690.0216654,34036.8
694.5966419,33872.8
699.1646767,34203.6
703.7257814,34051.6
708.2799676,33868
712.827247,34097.6
717.367631,33690
721.9011314,33627.6
726.4277595,32909.8
730.9475271,33490
735.4604456,33344.6
739.9665264,33501
744.4657813,33142.6
748.9582215,32963
753.4438587,32373
757.9227042,32044.2
762.3947696,32345.4
766.8600662,31721.4
771.3186056,32868
775.770399,31922.8
780.215458,32131
784.6537939,31439.2
789.0854181,31259
793.510342,30937
797.9285769,31491
802.3401342,31010
806.7450253,31110.8
811.1432614,30875
815.5348538,30428.8
819.9198139,30089.4
824.2981531,30222.8
828.6698824,30139
833.0350133,29812.8
837.393557,29463.6
841.7455248,29765.8
846.0909278,29418.8
850.4297774,29527.2
854.7620848,29569
859.0878611,29886.4
863.4071176,29210.2
867.7198655,29770.6
872.026116,29981.8
876.3258802,30304.6
880.6191693,29794.8
884.9059946,29893
889.186367,30230.8
893.4602979,28746.2
897.7277982,28782.4
901.9888793,29356
906.2435521,29784.8
910.4918277,29231
914.7337174,29115.4
918.9692321,29013.2
923.1983831,29681.4
927.4211813,29157.6
931.6376378,29927
935.8477637,29380.2
940.0515701,29728.6
944.249068,29725
948.4402684,28712.8
952.6251825,29720.2
956.8038212,29375.6
960.9761955,29860.2
965.1423166,29411.2
969.3021953,29507.8
973.4558427,29577
977.6032699,29223.2
981.7444877,29285
985.8795072,29095.4
990.0083394,29363.6
994.1309953,28926.8
998.2474857,29388
1002.357822,28419.6
1006.462014,29185.4
1010.560075,28753.6
1014.652013,28947.6
1018.737841,29096.4
1022.81757,28712.8
1026.891209,28503.8
1030.958771,28182.6
1035.020266,28557.4
1039.075705,28202.8
1043.1251,27891
1047.16846,28279.4
1051.205797,27988.8
1055.237121,28036.8
1059.262444,27924
1063.281777,27955
1067.295131,28538.8
1071.302515,30180.6
1075.303942,30113
1079.299422,31170.4
1083.288966,30016.2
1087.272585,29037.2
1091.250289,28291
1095.222091,28296.2
1099.187999,27751
1103.148026,27919.4
1107.102183,27718.4
1111.050479,27779.2
1114.992927,27829.8
1118.929536,27584.6
1122.860318,28110.2
1126.785283,27555.8
1130.704443,27772
1134.617808,28661.8
1138.52539,28624
1142.427198,28527.2
1146.323244,28327.2
1150.213538,27925.2
1154.098093,28156.8
1157.976917,27482.2
1161.850023,27330
1165.717421,27824.2
1169.579121,27368.8
1173.435135,27991.2
1177.285474,27137
1181.130148,27497
1184.969169,27738.4
1188.802547,27412.2
1192.630292,26850.4
1196.452416,26559
1200.26893,26544.8
1204.079844,26334.6
1207.88517,26029
1211.684917,26525
1215.479098,26094.8
1219.267722,27734.6
1223.050801,26068.2
1226.828346,26123.8
1230.600366,26302.6
1234.366874,26231
1238.12788,26047
1241.883395,25998.2
1245.633429,26307
1249.377994,26317.2
1253.1171,25607
1256.850759,25957.6
1260.578981,25784.6
1264.301776,25854.6
1268.019157,25857.8
1271.731133,25607
1275.437715,25286.4
1279.138915,25877.2
1282.834743,26156.8
1286.52521,25559
1290.210328,25316.2
1293.890106,25423.8
1297.564555,25952
1301.233688,25232.4
1304.897514,25732.4
1308.556044,25791.6
1312.209289,25672.4
1315.857261,25003.6
1319.499969,25335.6
1323.137425,25935.8
1326.769641,25282.8
1330.396626,26022.8
1334.018391,25369
1337.634948,25533.6
1341.246307,25183.8
1344.85248,24944
1348.453477,24833
1352.049309,24888
1355.639987,24849.4
1359.225522,25401.8
1362.805925,24844.4
1366.381207,24842.6
1369.951379,24917.4
1373.516452,25037.8
1377.076436,25182.8
1380.631343,24939
1384.181184,24833
1387.725969,24909.6
1391.26571,24527.8
1394.800417,24443.2
1398.330102,24262
1401.854776,24551.4
1405.374448,24050.2
1408.889132,23981
1412.398837,23450.4
1415.903574,23662.2
1419.403355,24397
1422.89819,24013.6
1426.388091,23994
1429.873069,24507.8
1433.353134,23887.4
1436.828298,23722.2
1440.298571,23790.6
1443.763965,23343.6
1447.224491,23123.2
1450.68016,23226.2
1454.130983,23635.2
1457.576971,23298
1461.018135,23456.8
1464.454486,23506.2
1467.886036,22986.6
1471.312794,22893.6
1474.734774,22485.8
1478.151985,23101.6
1481.564439,22824.4
1484.972146,22589.4
1488.375119,22232.4
1491.773368,22532.2
1495.166904,23062
1498.555739,22280.8
1501.939883,22281.4
1505.319349,21756.2
1508.694146,22038.4
1512.064286,22103.6
1515.429781,22067.4
1518.790642,21901.8
1522.146879,21968.6
1525.498505,21513.4
1528.845529,21372.2
1532.187965,22142.8
1535.525822,21608.2
1538.859112,21641.6
1542.187846,22089
1545.512036,21282.4
1548.831693,22514.6
1552.146829,22040.6
1555.457453,21355.2
1558.763579,20803.6
1562.065216,21396.8
1565.362377,21683.4
1568.655073,21765.4
1571.943315,21707.2
1575.227114,21548.2
1578.506482,21537.4
1581.781431,22025.2
1585.051971,21689.8
1588.318114,21710.6
1591.579872,21433
1594.837255,20917.8
1598.090275,20402.6
1601.338945,20302.2
1604.583274,20495.6
1607.823275,20058.2
1611.058959,19537.2
1614.290338,20092.8
1617.517422,19149.6
1620.740224,19494
1623.958755,19073.8
1627.173027,18991.8
1630.38305,18544.8
1633.588838,18926.4
1636.7904,18501.8
1639.987749,18708.2
1643.180896,18721.8
1646.369853,18102
1649.554632,18835
1652.735244,17916.2
1655.9117,17710
1659.084013,17863.4
1662.252193,18558.4
1665.416254,17618
1668.576205,17818
1671.732059,18066.8
1674.883828,18039.2
1678.031523,17582.8
1681.175157,17537.6
1684.314739,17453.4
1687.450284,17486.8
1690.581801,17203.4
1693.709304,17059.6
1696.832803,17030.8
1699.952311,17170
1703.067839,17263.8
1706.179399,17193.8
1709.287003,17516.6
1712.390663,17136.4
1715.49039,17012.4
1718.586197,17351
1721.678095,17256.4
1724.766096,17112.4
1727.850213,16557
1730.930456,16832.6
1734.006838,16690
1737.079372,16920.6
1740.148067,16470.4
1743.212938,17491.2
1746.273996,16581.6
1749.331252,16725.2
1752.384718,16548.4
1755.434408,16563.6
1758.480332,16497
1761.522503,16509.8
1764.560933,16079.4
1767.595634,15844.8
1770.626618,16484.6
1773.653896,16474
1776.677482,16101.2
1779.697388,15972
1782.713625,16547.6
1785.726205,16554.8
1788.735141,16425.2
1791.740445,15959
1794.742129,15857.6
1797.740206,16442
1800.734687,16403
1803.725585,16261.8
1806.712912,16089
1809.69668,15830
1812.676902,15846.4
1815.65359,15624
1818.626756,15726
1821.596413,15897.2
1824.562573,15506.8
1827.525247,15753.4
1830.48445,15547.2
1833.440192,15771.6
1836.392487,15624.6
1839.341347,15762.4
1842.286784,15865.2
1845.22881,15271.6
1848.167439,15889.8
1851.102682,15586.4
1854.034553,15507.4
1856.963063,15403
1859.888226,16185
1862.810053,15657.4
1865.728557,15419.8
1868.643751,15259.8
1871.555648,15237.8
1874.46426,14906.6
1877.369599,15494
1880.271679,15393.4
1883.170512,15134.6
1886.06611,15694.6
1888.958487,15342.2
1891.847655,15281.4
1894.733626,15370.2
1897.616414,15417
1900.496032,14956.8
1903.372491,15260.2
1906.245805,15563
1909.115987,15531.4
1911.983049,15427.8
1914.847004,15240
1917.707866,15488.2
1920.565646,15299.8
1923.420359,14972
1926.272016,15137.2
1929.120631,14879.6
1931.966216,15105.8
1934.808786,14999.2
1937.648351,15161.6
1940.484927,15108
1943.318525,15213.4
1946.149158,15404.2
1948.97684,16420
1951.801584,15324
1954.623403,15128.8
1957.44231,15191.6
1960.258318,14733.8
1963.071439,14705.6
1965.881688,14910.4
1968.689078,15044
1971.493621,14787.2
