Ramanshift[cm-1],Intensity
-93.47115107,13647.2
-87.69374369,12274
-81.9253076,12182.4
-76.16582701,12246.6
-70.41528615,12287.6
-64.67366933,12060.4
-58.94096086,12052.8
-53.21714512,12218.6
-47.50220652,12376.4
-41.79612954,12374
-36.09889866,12826.4
-30.41049843,12941
-24.73091343,12598.4
-19.0601283,12586.4
-13.39812769,12312
-7.744896327,12167.2
-2.100418946,11973.4
3.535319659,12587.8
9.162334658,11993
14.78064118,12312.8
20.39025432,11986.8
25.99118913,12109.8
31.58346061,12448.4
37.16708375,12298.8
42.74207347,11883.2
48.30844468,12093.6
53.86621222,11877.4
59.41539093,11589
64.95599558,11545.2
70.48804091,11926
76.01154164,12079.2
81.52651243,11430.6
87.03296792,11975.6
92.5309227,12333.4
98.02039134,11587.6
103.5013884,11780.4
108.9739282,11642
114.4380255,11705.4
119.8936944,11882.4
125.3409495,12814.6
130.779805,11600.6
136.2102753,11437.6
141.6323747,11498.8
147.0461174,12119.8
152.4515176,11670.8
157.8485895,11606.8
163.2373472,11550.8
168.6178049,11868
173.9899766,12159.6
179.3538764,11700.8
184.7095182,11651.8
190.0569161,11927.4
195.396084,12138.6
200.7270358,11558.4
206.0497854,11651.4
211.3643466,11260.6
216.6707333,11649.8
221.9689593,11283
227.2590382,11498.4
232.5409839,11404.8
237.8148101,11432.4
243.0805303,11463.6
248.3381582,11464.2
253.5877075,11338.4
258.8291917,11508
264.0626244,11484
269.288019,11768.4
274.5053891,11814.2
279.7147481,11543.6
284.9161094,11434.2
290.1094865,11877.8
295.2948927,13086.6
300.4723414,16326.2
305.6418459,19716.2
310.8034194,22861.4
315.9570752,25215.8
321.1028267,25619.6
326.2406869,25804.4
331.370669,26164.4
336.4927863,26533
341.6070517,26831.8
346.7134786,27011.4
351.8120798,27638.2
356.9028684,27179.8
361.9858576,27231.8
367.0610602,27591.4
372.1284892,27042.8
377.1881577,27625.8
382.2400784,27829
387.2842644,28400
392.3207284,29203.8
397.3494833,28730.2
402.370542,28529.2
407.3839172,27685.6
412.3896217,26979.6
417.3876683,26247.2
422.3780697,26318.8
427.3608386,26291
432.3359876,26447
437.3035295,26431.4
442.2634769,26421.8
447.2158423,25523.4
452.1606383,25710.2
457.0978776,25712
462.0275727,25050
466.9497361,25590.2
471.8643802,24988.4
476.7715176,25481
481.6711608,25529.6
486.5633221,25831
491.448014,25544.8
496.3252488,25479.4
501.195039,25484
506.0573969,25641.6
510.9123349,25363.4
515.7598651,24784.4
520.6,25131
525.4327518,24926.8
530.2581327,25018
535.076155,24527.8
539.8868309,24847.6
544.6901726,24826.2
549.4861922,24595.8
554.2749019,25474.8
559.0563139,24495.8
563.8304402,24156.6
568.597293,25232.4
573.3568844,24849.2
578.1092263,24441.2
582.8543308,24727.4
587.5922101,24758.6
592.322876,24454.6
597.0463405,24533.8
601.7626157,24755.6
606.4717135,24389.8
611.1736458,24295.6
615.8684246,24285.4
620.5560617,24623.8
625.2365691,24246.4
629.9099585,24636.6
634.5762419,24818.8
639.2354312,24060.6
643.887538,24184.6
648.5325743,24031
653.1705518,23985.8
657.8014823,23951
662.4253775,23366.2
667.0422493,23856.6
671.6521092,23678.6
676.2549691,23870.4
680.8508407,23871.6
685.4397355,23578.6
690.0216654,23811.2
694.5966419,23544.2
699.1646767,24024.8
703.7257814,23820.4
708.2799676,23773.8
712.827247,24005.4
717.367631,23605
721.9011314,23534
726.4277595,22955.2
730.9475271,23410.4
735.4604456,23412.6
739.9665264,23789
744.4657813,23383.2
748.9582215,23220
753.4438587,22720.8
757.9227042,22426.8
762.3947696,22983.4
766.8600662,22309.6
771.3186056,23756
775.770399,22625
780.215458,22948.2
784.6537939,22152
789.0854181,22100
793.510342,22207.4
797.9285769,22536.6
802.3401342,22089.4
806.7450253,22212
811.1432614,22005.8
815.5348538,21760.8
819.9198139,21421.8
824.2981531,21614.4
828.6698824,21552
833.0350133,21448
837.393557,21065
841.7455248,21524.4
846.0909278,21268.6
850.4297774,21226.4
854.7620848,21285.6
859.0878611,21605.6
863.4071176,20892.4
867.7198655,21428.8
872.026116,21692.2
876.3258802,21996.8
880.6191693,21534.6
884.9059946,21598.2
889.186367,22001.4
893.4602979,20851.2
897.7277982,20803.2
901.9888793,21269
906.2435521,21573.2
910.4918277,21067.2
914.7337174,21053.2
918.9692321,20909.4
923.1983831,21532.8
927.4211813,21105.2
931.6376378,21702
935.8477637,21222
940.0515701,21494.8
944.249068,21505.8
948.4402684,20775.8
952.6251825,21481.8
956.8038212,21025.6
960.9761955,21687
965.1423166,21178.4
969.3021953,21246.8
973.4558427,21237.2
977.6032699,21090
981.7444877,21159.2
985.8795072,21021
990.0083394,21196.6
994.1309953,20864.6
998.2474857,21260.4
1002.357822,20376
1006.462014,21140
1010.560075,20686.8
1014.652013,20930.2
1018.737841,21252.6
1022.81757,20628.8
1026.891209,20636.4
1030.958771,20416.8
1035.020266,20715
1039.075705,20296.2
1043.1251,20180
1047.16846,20362.8
1051.205797,20233.6
1055.237121,20075.4
1059.262444,20095.8
1063.281777,20000.2
1067.295131,20404.8
1071.302515,21899.4
1075.303942,21766.6
1079.299422,22804.6
1083.288966,21996.6
1087.272585,21295.6
1091.250289,20752.6
1095.222091,20624
1099.187999,19942.8
1103.148026,20047.4
1107.102183,19916.2
1111.050479,20071.4
1114.992927,19904.2
1118.929536,19794.6
1122.860318,20143
1126.785283,19722.4
1130.704443,19903.4
1134.617808,20752.8
1138.52539,20755.6
1142.427198,20638.6
1146.323244,20458.6
1150.213538,19919.8
1154.098093,20345.4
1157.976917,19653.8
1161.850023,19535.4
1165.717421,19994.8
1169.579121,19743.4
1173.435135,20246.6
1177.285474,19297.4
1181.130148,19565.8
1184.969169,19823
1188.802547,19692.4
1192.630292,19289.8
1196.452416,18831.4
1200.26893,19047.4
1204.079844,18739.4
1207.88517,18280.8
1211.684917,18941.8
1215.479098,18517
1219.267722,19976
1223.050801,18595.6
1226.828346,18735.2
1230.600366,18913.8
1234.366874,18752
1238.12788,18824.2
1241.883395,18765
1245.633429,19004.8
1249.377994,18952.4
1253.1171,18160.8
1256.850759,18682
1260.578981,18597.2
1264.301776,18609.8
1268.019157,18509.4
1271.731133,18196.2
1275.437715,18023.2
1279.138915,18527.2
1282.834743,18861.4
1286.52521,18300.6
1290.210328,18087.2
1293.890106,18173.2
1297.564555,18663.4
1301.233688,18038.6
1304.897514,18206.4
1308.556044,18360.2
1312.209289,18379.2
1315.857261,17814.4
1319.499969,17909.6
1323.137425,18623.8
1326.769641,18184.4
1330.396626,18868
1334.018391,18142.8
1337.634948,18358.2
1341.246307,17908.8
1344.85248,17913.6
1348.453477,17815.4
1352.049309,17792.6
1355.639987,17765
1359.225522,18345
1362.805925,17897
1366.381207,17982.8
1369.951379,18073.2
1373.516452,18084.2
1377.076436,18218.8
1380.631343,18023.2
1384.181184,17962.2
1387.725969,18032.8
1391.26571,17828.8
1394.800417,17616.6
1398.330102,17644
1401.854776,17883.6
1405.374448,17407
1408.889132,17171.2
1412.398837,16897
1415.903574,17119.6
1419.403355,17797.8
1422.89819,17540.2
1426.388091,17465.8
1429.873069,18009.8
1433.353134,17436.8
1436.828298,17456
1440.298571,17431.4
1443.763965,16926.8
1447.224491,16893
1450.68016,16915
1454.130983,17256.8
1457.576971,17057.4
1461.018135,17266.6
1464.454486,17295.8
1467.886036,16787.6
1471.312794,16925.8
1474.734774,16457.2
1478.151985,17183.6
1481.564439,16874.2
1484.972146,16770.8
1488.375119,16393.2
1491.773368,16600.4
1495.166904,17171.4
1498.555739,16415.2
1501.939883,16461.2
1505.319349,16051
1508.694146,16323.2
1512.064286,16443
1515.429781,16470.8
1518.790642,16113.6
1522.146879,16318.8
1525.498505,15877.6
1528.845529,15951.8
1532.187965,16499
1535.525822,16211.4
1538.859112,16215.4
1542.187846,16725.6
1545.512036,15998.6
1548.831693,17160.2
1552.146829,16657.4
1555.457453,16091.8
1558.763579,15655.2
1562.065216,16126.6
1565.362377,16462.8
1568.655073,16660.2
1571.943315,16545.2
1575.227114,16466.4
1578.506482,16598.4
1581.781431,17100.2
1585.051971,16551.8
1588.318114,16667
1591.579872,16515
1594.837255,16058.8
1598.090275,15915.8
1601.338945,15788.2
1604.583274,15915.2
1607.823275,15524.8
1611.058959,15090.4
1614.290338,15748.4
1617.517422,14947
1620.740224,15335
1623.958755,14966.8
1627.173027,14982.2
1630.38305,14575
1633.588838,14968.4
1636.7904,14665.6
1639.987749,14897.2
1643.180896,15000.4
1646.369853,14402.6
1649.554632,15198
1652.735244,14524.8
1655.9117,14175.2
1659.084013,14451
1662.252193,15063.8
1665.416254,14204.4
1668.576205,14394.8
1671.732059,14668.4
1674.883828,14672.2
1678.031523,14150.8
1681.175157,14277.2
1684.314739,14294.6
1687.450284,14205.4
1690.581801,14129.2
1693.709304,13838.2
1696.832803,13939.8
1699.952311,14172.4
1703.067839,14127.4
1706.179399,14068.6
1709.287003,14449.2
1712.390663,14039.2
1715.49039,14044.6
1718.586197,14302.6
1721.678095,14245.4
1724.766096,14099.8
1727.850213,13569.6
1730.930456,13914.2
1734.006838,13747.2
1737.079372,14005.8
1740.148067,13557.2
1743.212938,14577.6
1746.273996,13813
1749.331252,13650.4
1752.384718,13854
1755.434408,13848.6
1758.480332,13791.8
1761.522503,13737.2
1764.560933,13457
1767.595634,13160
1770.626618,13828
1773.653896,13880.2
1776.677482,13576.8
1779.697388,13429.4
1782.713625,14061
1785.726205,13948.4
1788.735141,13860.6
1791.740445,13388.4
1794.742129,13402.4
1797.740206,13752.2
1800.734687,13904.4
1803.725585,13670.2
1806.712912,13611.6
1809.69668,13290.6
1812.676902,13447.2
1815.65359,13127.4
1818.626756,13186.8
1821.596413,13395.4
1824.562573,13049.6
1827.525247,13338.8
1830.48445,13183.8
1833.440192,13315.4
1836.392487,13265
1839.341347,13374.6
1842.286784,13434.8
1845.22881,12794.8
1848.167439,13539.2
1851.102682,13160.2
1854.034553,13189.4
1856.963063,13070
1859.888226,13906.8
1862.810053,13374.6
1865.728557,13240.2
1868.643751,12906.8
1871.555648,12971.6
1874.46426,12614.4
1877.369599,13390.8
1880.271679,13086.2
1883.170512,13043.6
1886.06611,13497.8
1888.958487,13164.8
1891.847655,13008.6
1894.733626,13195.2
1897.616414,13296.6
1900.496032,12864.8
1903.372491,13056.2
1906.245805,13328.8
1909.115987,13317.4
1911.983049,13312.6
1914.847004,13223.8
1917.707866,13349.4
1920.565646,13246.2
1923.420359,12901.6
1926.272016,13057.4
1929.120631,12928
1931.966216,13100.8
1934.808786,12918.2
1937.648351,13175
1940.484927,13130.4
1943.318525,13212.2
1946.149158,13418
1948.97684,14431.4
1951.801584,13355.4
1954.623403,13182.8
1957.44231,13282
1960.258318,12836.4
1963.071439,12779
1965.881688,12980.4
1968.689078,13099.6
1971.493621,12829
