Ramanshift[cm-1],Intensity
-93.47115107,12734.8
-87.69374369,11492.6
-81.9253076,11413.8
-76.16582701,11420.4
-70.41528615,11457.8
-64.67366933,11330.2
-58.94096086,11274.8
-53.21714512,11399.2
-47.50220652,11481.6
-41.79612954,11535.8
-36.09889866,11965.6
-30.41049843,12097.2
-24.73091343,11764
-19.0601283,11736.8
-13.39812769,11555.6
-7.744896327,11363.4
-2.100418946,11093.6
3.535319659,11747.4
9.162334658,11199.6
14.78064118,11448.2
20.39025432,11152.2
25.99118913,11240
31.58346061,11689.6
37.16708375,11448.2
42.74207347,11270.8
48.30844468,11305.2
53.86621222,11147.4
59.41539093,10740
64.95599558,10830.4
70.48804091,11131.2
76.01154164,11293.4
81.52651243,10683.2
87.03296792,11124.8
92.5309227,11409.8
98.02039134,10770.6
103.5013884,11177
108.9739282,10915
114.4380255,11006
119.8936944,11123
125.3409495,11906
130.779805,10890
136.2102753,10619.6
141.6323747,10597.6
147.0461174,11307
152.4515176,10900.8
157.8485895,10847.4
163.2373472,10741.6
168.6178049,10999.4
173.9899766,11314
179.3538764,10799.6
184.7095182,11015.2
190.0569161,11216
195.396084,11280.4
200.7270358,10753.8
206.0497854,10856
211.3643466,10592.2
216.6707333,10961.4
221.9689593,10556.6
227.2590382,10767.8
232.5409839,10714.4
237.8148101,10751
243.0805303,10774.6
248.3381582,10745.2
253.5877075,10564.2
258.8291917,10748.4
264.0626244,10716.2
269.288019,11069
274.5053891,11063.6
279.7147481,10712.4
284.9161094,10550
290.1094865,10641.4
295.2948927,10867.4
300.4723414,11467
305.6418459,11346.8
310.8034194,11454.2
315.9570752,12154.2
321.1028267,12218
326.2406869,12191.2
331.370669,12338
336.4927863,12162
341.6070517,12293.4
346.7134786,11976.6
351.8120798,12243.6
356.9028684,11849.6
361.9858576,12091
367.0610602,12393.8
372.1284892,12070.2
377.1881577,12252
382.2400784,11988.8
387.2842644,12070.6
392.3207284,12168.6
397.3494833,11711
402.370542,12121.6
407.3839172,11877
412.3896217,11877.6
417.3876683,11552.6
422.3780697,11699.4
427.3608386,11858.4
432.3359876,12236.4
437.3035295,12393.8
442.2634769,12418.4
447.2158423,11718.6
452.1606383,11787.8
457.0978776,12010.6
462.0275727,11523.2
466.9497361,11891.2
471.8643802,11291.2
476.7715176,11885
481.6711608,11719.4
486.5633221,12118
491.448014,11718.8
496.3252488,11662.4
501.195039,11737.6
506.0573969,12088.6
510.9123349,11845.8
515.7598651,11288.2
520.6,11740.6
525.4327518,11757
530.2581327,11798.8
535.076155,11245.2
539.8868309,11602
544.6901726,11825.2
549.4861922,11544.6
554.2749019,12359.2
559.0563139,11467.2
563.8304402,11274
568.597293,12231
573.3568844,11926
578.1092263,11526.8
582.8543308,11947
587.5922101,11814.4
592.322876,11499.4
597.0463405,11547.4
601.7626157,11857
606.4717135,11475.8
611.1736458,11444.2
615.8684246,11553
620.5560617,11807
625.2365691,11523.4
629.9099585,11916.2
634.5762419,12252.8
639.2354312,11554.6
643.887538,11935.4
648.5325743,11676
653.1705518,11610.4
657.8014823,11782
662.4253775,11149.6
667.0422493,11445.2
671.6521092,11519.8
676.2549691,11637.4
680.8508407,11694.8
685.4397355,11482.6
690.0216654,11655.4
694.5966419,11350.2
699.1646767,11810.6
703.7257814,11526
708.2799676,11645.6
712.827247,11747.6
717.367631,11641.4
721.9011314,11566.6
726.4277595,10936.4
730.9475271,11609.2
735.4604456,11523.8
739.9665264,12082.6
744.4657813,11496.4
748.9582215,11652.4
753.4438587,11151.8
757.9227042,11140
762.3947696,11668
766.8600662,11244.2
771.3186056,12495
775.770399,11531.2
780.215458,11937.2
784.6537939,11280.4
789.0854181,11177.2
793.510342,11248.4
797.9285769,11750.4
802.3401342,11241.6
806.7450253,11382.6
811.1432614,11394.6
815.5348538,11376.8
819.9198139,11105.2
824.2981531,11392.6
828.6698824,11459.4
833.0350133,11454.2
837.393557,11205.6
841.7455248,11445.8
846.0909278,11344.2
850.4297774,11194.6
854.7620848,11325.2
859.0878611,11532
863.4071176,10929
867.7198655,11424.2
872.026116,11688
876.3258802,12004.4
880.6191693,11603.8
884.9059946,11647
889.186367,11976.4
893.4602979,11088.8
897.7277982,11010
901.9888793,11406
906.2435521,11746
910.4918277,11116.6
914.7337174,11056.8
918.9692321,11008.6
923.1983831,11543
927.4211813,11164.6
931.6376378,11762.8
935.8477637,11239.4
940.0515701,11426
944.249068,11404.2
948.4402684,10706.4
952.6251825,11479.6
956.8038212,11046
960.9761955,11749
965.1423166,11154.2
969.3021953,11273.4
973.4558427,11229.8
977.6032699,11058.4
981.7444877,11237.8
985.8795072,11112.6
990.0083394,11269.8
994.1309953,10930.6
998.2474857,11286.2
1002.357822,10543.6
1006.462014,11137.8
1010.560075,10877.6
1014.652013,11332.8
1018.737841,11658.2
1022.81757,11163.2
1026.891209,11106.4
1030.958771,11073
1035.020266,11448.6
1039.075705,11205
1043.1251,10996.6
1047.16846,11287.8
1051.205797,11226.4
1055.237121,10868.4
1059.262444,10873.2
1063.281777,10531.2
1067.295131,10578.6
1071.302515,11398.2
1075.303942,10857
1079.299422,11522.4
1083.288966,11097.2
1087.272585,11097.2
1091.250289,11180.6
1095.222091,11250.4
1099.187999,11025.8
1103.148026,11187.4
1107.102183,11047.4
1111.050479,11224
1114.992927,11195.2
1118.929536,11005
1122.860318,11322.4
1126.785283,10898.2
1130.704443,10676.8
1134.617808,11408.8
1138.52539,11302.4
1142.427198,11254.6
1146.323244,11317
1150.213538,10975.4
1154.098093,11389.8
1157.976917,10877.6
1161.850023,10694
1165.717421,11329.4
1169.579121,11076.8
1173.435135,11462.4
1177.285474,10620.8
1181.130148,10656.8
1184.969169,11097.6
1188.802547,11031.8
1192.630292,10867.8
1196.452416,10660
1200.26893,10791.6
1204.079844,10510.4
1207.88517,10202
1211.684917,10834.6
1215.479098,10493.2
1219.267722,11902
1223.050801,10602.6
1226.828346,10495.6
1230.600366,10895.4
1234.366874,10793.2
1238.12788,10633.2
1241.883395,10681.8
1245.633429,10915.4
1249.377994,10891.6
1253.1171,10245
1256.850759,10634
1260.578981,10560
1264.301776,10714.8
1268.019157,10563.2
1271.731133,10476.4
1275.437715,10258
1279.138915,10857.8
1282.834743,11070
1286.52521,10530.4
1290.210328,10455.6
1293.890106,10642.6
1297.564555,11135.6
1301.233688,10534.2
1304.897514,10760.6
1308.556044,10849.8
1312.209289,10823
1315.857261,10357
1319.499969,10523.4
1323.137425,11200.8
1326.769641,10786.4
1330.396626,11312
1334.018391,10766
1337.634948,10917.8
1341.246307,10616.4
1344.85248,10524.8
1348.453477,10402.4
1352.049309,10404.6
1355.639987,10500.8
1359.225522,11124.6
1362.805925,10678.2
1366.381207,10779.4
1369.951379,10666
1373.516452,10786.2
1377.076436,11010.4
1380.631343,10707.4
1384.181184,10548.4
1387.725969,10698
1391.26571,10451.2
1394.800417,10357.6
1398.330102,10580.6
1401.854776,10783.4
1405.374448,10685.6
1408.889132,10189.2
1412.398837,10049.4
1415.903574,10375.6
1419.403355,10766.8
1422.89819,10414.2
1426.388091,10338
1429.873069,10851.4
1433.353134,10276.2
1436.828298,10408.2
1440.298571,10559.2
1443.763965,10326.6
1447.224491,10333.4
1450.68016,10343
1454.130983,10811.6
1457.576971,10720.6
1461.018135,10857.4
1464.454486,11027
1467.886036,10540.8
1471.312794,10555.8
1474.734774,10272.8
1478.151985,10958.4
1481.564439,10661.2
1484.972146,10741.8
1488.375119,10362.6
1491.773368,10640.8
1495.166904,11083.8
1498.555739,10561.4
1501.939883,10648.2
1505.319349,10320.8
1508.694146,10566.8
1512.064286,10602.8
1515.429781,10552
1518.790642,10404.4
1522.146879,10605.4
1525.498505,10163.4
1528.845529,10173.2
1532.187965,10915.2
1535.525822,10514.4
1538.859112,10461.4
1542.187846,11055.6
1545.512036,10256
1548.831693,11449.8
1552.146829,10926
1555.457453,10281
1558.763579,9867
1562.065216,10329.2
1565.362377,10511
1568.655073,10775.8
1571.943315,10508.6
1575.227114,10412.6
1578.506482,10365.8
1581.781431,10834.4
1585.051971,10424.2
1588.318114,10465
1591.579872,10428.2
1594.837255,10334.6
1598.090275,10317
1601.338945,10423.4
1604.583274,10848.2
1607.823275,10439.6
1611.058959,10178.2
1614.290338,10831.6
1617.517422,10083.2
1620.740224,10464.4
1623.958755,10079.4
1627.173027,10296.4
1630.38305,9953.2
1633.588838,10396.8
1636.7904,10138.8
1639.987749,10397.4
1643.180896,10544.4
1646.369853,10013.6
1649.554632,10758.8
1652.735244,10182.2
1655.9117,9943.6
1659.084013,10161.2
1662.252193,10836.6
1665.416254,10029.8
1668.576205,10332
1671.732059,10508.6
1674.883828,10564.8
1678.031523,10191.2
1681.175157,10261.6
1684.314739,10333.8
1687.450284,10242.6
1690.581801,10201.4
1693.709304,10035.8
1696.832803,10002.6
1699.952311,10232.8
1703.067839,10257.8
1706.179399,10272.4
1709.287003,10679.4
1712.390663,10312.4
1715.49039,10239.2
1718.586197,10660.4
1721.678095,10480.8
1724.766096,10475.8
1727.850213,10079.2
1730.930456,10350.6
1734.006838,10122.2
1737.079372,10444.2
1740.148067,10111
1743.212938,11176.6
1746.273996,10354
1749.331252,10345.4
1752.384718,10380
1755.434408,10444
1758.480332,10389.6
1761.522503,10402.6
1764.560933,10143.4
1767.595634,9944.8
1770.626618,10610
1773.653896,10588
1776.677482,10246.2
1779.697388,10231.4
1782.713625,10707.6
1785.726205,10625.4
1788.735141,10606.8
1791.740445,10182.6
1794.742129,10129.8
1797.740206,10580.2
1800.734687,10654.4
1803.725585,10425.8
1806.712912,10396
1809.69668,10149.6
1812.676902,10280.8
1815.65359,9996
1818.626756,10079.6
1821.596413,10298.2
1824.562573,9923
1827.525247,10283.4
1830.48445,10098.2
1833.440192,10305.2
1836.392487,10194.4
1839.341347,10354.4
1842.286784,10312.6
1845.22881,9791.2
1848.167439,10332
1851.102682,10157.6
1854.034553,10207.4
1856.963063,10027.4
1859.888226,10900
1862.810053,10442.4
1865.728557,10247.2
1868.643751,9975.4
1871.555648,10048.8
1874.46426,9835
1877.369599,10351.6
1880.271679,10180.2
1883.170512,10150.6
1886.06611,10501.4
1888.958487,10177.2
1891.847655,10216.8
1894.733626,10370
1897.616414,10466.4
1900.496032,10024
1903.372491,10263
1906.245805,10556
1909.115987,10533.6
1911.983049,10474.4
1914.847004,10451.2
1917.707866,10485.2
1920.565646,10430
1923.420359,10155.4
1926.272016,10321
1929.120631,10099.8
1931.966216,10292
1934.808786,10298.6
1937.648351,10477.6
1940.484927,10381.4
1943.318525,10548.8
1946.149158,10669
1948.97684,11670
1951.801584,10552.6
1954.623403,10559.8
1957.44231,10620.4
1960.258318,10106.4
1963.071439,10104.4
1965.881688,10380
1968.689078,10515.4
1971.493621,10208.6
