Ramanshift[cm-1],Intensity
-93.47115107,12703
-87.69374369,11581
-81.9253076,11458
-76.16582701,11422.6
-70.41528615,11548.8
-64.67366933,11249.8
-58.94096086,11233.8
-53.21714512,11523.6
-47.50220652,11544.6
-41.79612954,11625.6
-36.09889866,11992.2
-30.41049843,12111.8
-24.73091343,11784.8
-19.0601283,11889
-13.39812769,11620.2
-7.744896327,11352.8
-2.100418946,11210.6
3.535319659,11838
9.162334658,11198.4
14.78064118,11635
20.39025432,11182
25.99118913,11207.6
31.58346061,11708.2
37.16708375,11551.6
42.74207347,11280.6
48.30844468,11301.6
53.86621222,11184.6
59.41539093,10838.2
64.95599558,10903.6
70.48804091,11187.6
76.01154164,11372.8
81.52651243,10702.4
87.03296792,11327.2
92.5309227,11534
98.02039134,10870.6
103.5013884,11219
108.9739282,11003.4
114.4380255,11102.2
119.8936944,11124.4
125.3409495,12064.8
130.779805,10955
136.2102753,10778.6
141.6323747,10813.6
147.0461174,11360.8
152.4515176,11014
157.8485895,11030
163.2373472,10844.8
168.6178049,11126
173.9899766,11355.6
179.3538764,10897.6
184.7095182,10996.4
190.0569161,11277.4
195.396084,11432.2
200.7270358,10814.4
206.0497854,10878.2
211.3643466,10680.6
216.6707333,11004.4
221.9689593,10696
227.2590382,10959.6
232.5409839,10924
237.8148101,10733.4
243.0805303,10959
248.3381582,10901.2
253.5877075,10787.6
258.8291917,10957.6
264.0626244,11099.4
269.288019,11227.6
274.5053891,11376.2
279.7147481,11494.2
284.9161094,12486.8
290.1094865,16761.2
295.2948927,29831.4
300.4723414,58122.6
305.6418459,64157.6
310.8034194,64156.6
315.9570752,64158
321.1028267,64157
326.2406869,64157.2
331.370669,64157.8
336.4927863,64157.6
341.6070517,64156.8
346.7134786,64157.8
351.8120798,64158
356.9028684,64157.2
361.9858576,64157.8
367.0610602,64158
372.1284892,64158.6
377.1881577,64158.2
382.2400784,64158.6
387.2842644,64158.4
392.3207284,64159.2
397.3494833,64159
402.370542,64159.6
407.3839172,64159.8
412.3896217,64159.8
417.3876683,64160.6
422.3780697,64160
427.3608386,64160.4
432.3359876,64160.4
437.3035295,64160.2
442.2634769,64160
447.2158423,64159.6
452.1606383,64159.2
457.0978776,64159.2
462.0275727,64159
466.9497361,64158.6
471.8643802,64158.4
476.7715176,64159
481.6711608,64158.8
486.5633221,64159
491.448014,64158.6
496.3252488,64158.6
501.195039,64158.4
506.0573969,64158.4
510.9123349,64157.4
515.7598651,64157.8
520.6,64157.4
525.4327518,64158
530.2581327,64157.6
535.076155,64157.6
539.8868309,64157.8
544.6901726,64157.4
549.4861922,64157.4
554.2749019,64157.6
559.0563139,64158
563.8304402,64157.6
568.597293,64158
573.3568844,64158
578.1092263,64157.6
582.8543308,64157.4
587.5922101,64158.2
592.322876,64158.4
597.0463405,64158.6
601.7626157,64158.8
606.4717135,64158.6
611.1736458,64158.8
615.8684246,64159.4
620.5560617,64159.2
625.2365691,64159.4
629.9099585,64160.2
634.5762419,64160.2
639.2354312,64159.8
643.887538,64160
648.5325743,64160
653.1705518,64160
657.8014823,64160
662.4253775,64159.2
667.0422493,64159.4
671.6521092,64159.6
676.2549691,64159.8
680.8508407,64159.4
685.4397355,64159.4
690.0216654,64158.4
694.5966419,64158.8
699.1646767,64158
703.7257814,64157.6
708.2799676,64157.6
712.827247,64158.2
717.367631,64157.6
721.9011314,64157.2
726.4277595,64157.4
730.9475271,64157.2
735.4604456,64157
739.9665264,64157.6
744.4657813,64157.2
748.9582215,64156.8
753.4438587,64157.4
757.9227042,64157
762.3947696,64158
766.8600662,64158.2
771.3186056,64157.6
775.770399,64158
780.215458,64157.8
784.6537939,64158
789.0854181,64158.6
793.510342,64159.4
797.9285769,64157.8
802.3401342,64158.8
806.7450253,64159.2
811.1432614,64159.4
815.5348538,64160.2
819.9198139,64160
824.2981531,64160.2
828.6698824,64160.4
833.0350133,64160
837.393557,64159.4
841.7455248,64160
846.0909278,64160.4
850.4297774,64159.8
854.7620848,64159.4
859.0878611,64159.4
863.4071176,64160.2
867.7198655,64159.8
872.026116,64159.2
876.3258802,64159.4
880.6191693,64160.2
884.9059946,64159.2
889.186367,64160.2
893.4602979,64159.2
897.7277982,64159
901.9888793,64158.4
906.2435521,64159.6
910.4918277,64158.4
914.7337174,64158.4
918.9692321,64158.2
923.1983831,64158.2
927.4211813,64158
931.6376378,64158.4
935.8477637,64157.4
940.0515701,64157.6
944.249068,64157
948.4402684,64157.2
952.6251825,64157
956.8038212,64156.8
960.9761955,64156.6
965.1423166,64156.8
969.3021953,64156.8
973.4558427,64156.6
977.6032699,64157
981.7444877,64157.8
985.8795072,64157.8
990.0083394,64158
994.1309953,64158.2
998.2474857,64158.2
1002.357822,64158.6
1006.462014,64158.8
1010.560075,64159.2
1014.652013,64159.4
1018.737841,64159.4
1022.81757,64159.6
1026.891209,64158.8
1030.958771,64159.6
1035.020266,64160.4
1039.075705,64160
1043.1251,64160
1047.16846,64160.4
1051.205797,64160.6
1055.237121,64160
1059.262444,64159.4
1063.281777,64160
1067.295131,64159.8
1071.302515,64159.4
1075.303942,64158.6
1079.299422,64159
1083.288966,64159.2
1087.272585,64159.6
1091.250289,64158.6
1095.222091,64158.8
1099.187999,64158.2
1103.148026,64158.4
1107.102183,64158.8
1111.050479,64159.4
1114.992927,64159
1118.929536,64158.8
1122.860318,64159.2
1126.785283,64157.6
1130.704443,64158.4
1134.617808,64158.4
1138.52539,64158.4
1142.427198,64158.6
1146.323244,64158.4
1150.213538,64159.2
1154.098093,64159
1157.976917,64159
1161.850023,64158.4
1165.717421,64158.8
1169.579121,64159.2
1173.435135,64158.8
1177.285474,64159
1181.130148,64160.2
1184.969169,64160
1188.802547,64159.4
1192.630292,64160.2
1196.452416,64159.8
1200.26893,64159.4
1204.079844,64159.6
1207.88517,64159.4
1211.684917,64160
1215.479098,64159.8
1219.267722,64159.6
1223.050801,64159.6
1226.828346,64159.8
1230.600366,64159.4
1234.366874,64159.8
1238.12788,64159.6
1241.883395,64159.4
1245.633429,64159.8
1249.377994,64159
1253.1171,64159.2
1256.850759,64159.6
1260.578981,64159
1264.301776,64159
1268.019157,64158.8
1271.731133,64159.2
1275.437715,64159.2
1279.138915,64159.4
1282.834743,64159
1286.52521,64159.4
1290.210328,64158.8
1293.890106,64159.2
1297.564555,64159
1301.233688,64159
1304.897514,64159.6
1308.556044,64160.4
1312.209289,64160.6
1315.857261,64160.4
1319.499969,64159.8
1323.137425,64160.8
1326.769641,64160.6
1330.396626,64160.2
1334.018391,64161
1337.634948,64161.4
1341.246307,64160.6
1344.85248,64161
1348.453477,64161.4
1352.049309,64161.8
1355.639987,64161.2
1359.225522,64161.2
1362.805925,64160
1366.381207,64159.6
1369.951379,64159.8
1373.516452,64159.6
1377.076436,64158.8
1380.631343,64158.8
1384.181184,64157.6
1387.725969,64158.4
1391.26571,64157.8
1394.800417,64158
1398.330102,64157.4
1401.854776,64157.8
1405.374448,64157.6
1408.889132,64157.8
1412.398837,64157.6
1415.903574,64157.6
1419.403355,64157
1422.89819,64157
1426.388091,64156.8
1429.873069,64157
1433.353134,64157
1436.828298,64157.4
1440.298571,64157.8
1443.763965,64158.2
1447.224491,64158.4
1450.68016,64159.2
1454.130983,64159.6
1457.576971,64160.6
1461.018135,64160.6
1464.454486,64161.2
1467.886036,64161
1471.312794,64162.2
1474.734774,64162.4
1478.151985,64163.4
1481.564439,64163.8
1484.972146,64163.8
1488.375119,64164.4
1491.773368,64164
1495.166904,64164.6
1498.555739,64165.2
1501.939883,64165.4
1505.319349,64164.6
1508.694146,64165.6
1512.064286,64165.4
1515.429781,64165
1518.790642,64165.4
1522.146879,64164.4
1525.498505,64164.6
1528.845529,64165
1532.187965,64164.4
1535.525822,64163.6
1538.859112,64163
1542.187846,64163.2
1545.512036,64162.6
1548.831693,64162.2
1552.146829,64161.8
1555.457453,64161
1558.763579,64160.4
1562.065216,64159.6
1565.362377,64160
1568.655073,64159
1571.943315,64159
1575.227114,64158
1578.506482,64158.6
1581.781431,64158
1585.051971,64157.6
1588.318114,64157
1591.579872,64157.8
1594.837255,64157.4
1598.090275,64157.6
1601.338945,64158.4
1604.583274,64158.8
1607.823275,64158.2
1611.058959,64160.6
1614.290338,64160.6
1617.517422,64160.6
1620.740224,64161.2
1623.958755,64162.8
1627.173027,64163.6
1630.38305,64164
1633.588838,64165.8
1636.7904,64166
1639.987749,64166.2
1643.180896,64167
1646.369853,64167.6
1649.554632,64167.8
1652.735244,64169.2
1655.9117,64169.6
1659.084013,64169.4
1662.252193,64170.6
1665.416254,64170.8
1668.576205,64171.4
1671.732059,64172.2
1674.883828,64173.4
1678.031523,64175.4
1681.175157,64176
1684.314739,64179.8
1687.450284,64184.4
1690.581801,64188.2
1693.709304,64190
1696.832803,64199.2
1699.952311,64229.2
1703.067839,64233.8
1706.179399,64205.6
1709.287003,64249.6
1712.390663,63699.4
1715.49039,63606.8
1718.586197,63719.4
1721.678095,63335.4
1724.766096,63168.8
1727.850213,61999.2
1730.930456,61816.8
1734.006838,61775.6
1737.079372,61469.8
1740.148067,60711.6
1743.212938,61403
1746.273996,59940.6
1749.331252,59914.6
1752.384718,59247
1755.434408,58841.6
1758.480332,58345.4
1761.522503,57754.6
1764.560933,57463.4
1767.595634,56418.2
1770.626618,57255.2
1773.653896,56624.8
1776.677482,55886
1779.697388,55868.2
1782.713625,56465
1785.726205,56191.4
1788.735141,56289
1791.740445,55739.4
1794.742129,55297
1797.740206,55660
1800.734687,55537
1803.725585,55776.6
1806.712912,55055.8
1809.69668,55063.2
1812.676902,54903.6
1815.65359,54227.4
1818.626756,54305.4
1821.596413,54298.4
1824.562573,53395.4
1827.525247,53931.2
1830.48445,53743
1833.440192,53627.6
1836.392487,53373.6
1839.341347,53297.8
1842.286784,53097.4
1845.22881,52543.4
1848.167439,53087.8
1851.102682,52774.6
1854.034553,52437.2
1856.963063,52308.2
1859.888226,52661.8
1862.810053,51966.8
1865.728557,51772.2
1868.643751,51187.4
1871.555648,51340.6
1874.46426,50465.6
1877.369599,51009.4
1880.271679,50491.4
1883.170512,50740
1886.06611,50547.4
1888.958487,50778
1891.847655,50024.4
1894.733626,50168.2
1897.616414,50029
1900.496032,49388.8
1903.372491,49670
1906.245805,49661.8
1909.115987,49633.4
1911.983049,49163
1914.847004,49191.2
1917.707866,48894.2
1920.565646,48524
1923.420359,47984.2
1926.272016,48360.6
1929.120631,48070.6
1931.966216,47768
1934.808786,47631.8
1937.648351,47406.6
1940.484927,47434.4
1943.318525,47107.4
1946.149158,47214.6
1948.97684,47926.8
1951.801584,46729.2
1954.623403,46408.6
1957.44231,46463
1960.258318,45697.6
1963.071439,45728.2
1965.881688,45755.6
1968.689078,45838.8
1971.493621,45016.6
