Ramanshift[cm-1],Intensity
-93.47115107,13355.2
-87.69374369,12032.8
-81.9253076,11915
-76.16582701,12078.2
-70.41528615,11998.6
-64.67366933,11728
-58.94096086,11783.2
-53.21714512,12060.8
-47.50220652,12133.8
-41.79612954,12074.2
-36.09889866,12500.8
-30.41049843,12570.8
-24.73091343,12224.2
-19.0601283,12291.6
-13.39812769,12105.6
-7.744896327,11842.6
-2.100418946,11599.2
3.535319659,12338.6
9.162334658,11709.8
14.78064118,12028
20.39025432,11599.4
25.99118913,11735.2
31.58346061,12222.2
37.16708375,11929.4
42.74207347,11701.8
48.30844468,11702
53.86621222,11601.6
59.41539093,11335.8
64.95599558,11291.8
70.48804091,11668.2
76.01154164,11768.4
81.52651243,11163.6
87.03296792,11762.2
92.5309227,11987.4
98.02039134,11393.4
103.5013884,11634.8
108.9739282,11438.4
114.4380255,11448.2
119.8936944,11683
125.3409495,12549
130.779805,11397.4
136.2102753,11229.6
141.6323747,11276
147.0461174,11845.2
152.4515176,11418.6
157.8485895,11351.4
163.2373472,11245.6
168.6178049,11548.6
173.9899766,11792.2
179.3538764,11272.2
184.7095182,11492.8
190.0569161,11727.6
195.396084,11836.4
200.7270358,11228.2
206.0497854,11378
211.3643466,11031.8
216.6707333,11341.4
221.9689593,11059.8
227.2590382,11262.6
232.5409839,11241.2
237.8148101,11172.8
243.0805303,11229.6
248.3381582,11146.8
253.5877075,11001.2
258.8291917,11273.8
264.0626244,11297
269.288019,11463.6
274.5053891,11625.6
279.7147481,11334.4
284.9161094,11193
290.1094865,11601.8
295.2948927,12888.8
300.4723414,15987.4
305.6418459,19188
310.8034194,22345.2
315.9570752,24568.2
321.1028267,25017
326.2406869,25244.2
331.370669,25542.4
336.4927863,25790
341.6070517,26127.2
346.7134786,26455.4
351.8120798,26760.2
356.9028684,26404.8
361.9858576,26418.8
367.0610602,26727.6
372.1284892,26536
377.1881577,27011.2
382.2400784,27130.2
387.2842644,27761
392.3207284,28107.4
397.3494833,27542.2
402.370542,27550.4
407.3839172,26878
412.3896217,26257.2
417.3876683,25694.6
422.3780697,25761.8
427.3608386,25591.8
432.3359876,25859.8
437.3035295,25829.2
442.2634769,25928.2
447.2158423,24893.6
452.1606383,25052.8
457.0978776,25290.8
462.0275727,24713.8
466.9497361,25061.4
471.8643802,24547.2
476.7715176,24952.2
481.6711608,25096
486.5633221,25429
491.448014,25248.8
496.3252488,25081
501.195039,25009.2
506.0573969,25188.2
510.9123349,24879.2
515.7598651,24414.6
520.6,24739
525.4327518,24587.4
530.2581327,24483.4
535.076155,24114.4
539.8868309,24456.4
544.6901726,24415.4
549.4861922,24002.4
554.2749019,24836.6
559.0563139,23920.4
563.8304402,23701.6
568.597293,24679
573.3568844,24294.8
578.1092263,23734.6
582.8543308,24173.2
587.5922101,23967
592.322876,23684.8
597.0463405,23889.2
601.7626157,24109.2
606.4717135,23424.4
611.1736458,23527.4
615.8684246,23569.6
620.5560617,23881
625.2365691,23380
629.9099585,23825
634.5762419,23958.4
639.2354312,23325
643.887538,23371.8
648.5325743,23081.2
653.1705518,22958.2
657.8014823,23288.6
662.4253775,22408.6
667.0422493,22989.4
671.6521092,22811
676.2549691,23058.6
680.8508407,22846
685.4397355,22788.8
690.0216654,22907.4
694.5966419,22654.8
699.1646767,23163.8
703.7257814,22843.4
708.2799676,22805.6
712.827247,23115.6
717.367631,22610.8
721.9011314,22556.4
726.4277595,22165
730.9475271,22564
735.4604456,22464
739.9665264,22815
744.4657813,22321
748.9582215,22201.4
753.4438587,21767.6
757.9227042,21372.2
762.3947696,21941.2
766.8600662,21393.2
771.3186056,22660.2
775.770399,21625
780.215458,21882
784.6537939,21284.2
789.0854181,21090
793.510342,21050.2
797.9285769,21495.8
802.3401342,20986.8
806.7450253,21170.6
811.1432614,21028.4
815.5348538,20831
819.9198139,20444
824.2981531,20622.6
828.6698824,20522.6
833.0350133,20395.6
837.393557,20089.4
841.7455248,20450.6
846.0909278,20156.4
850.4297774,20125.6
854.7620848,20083.2
859.0878611,20429.8
863.4071176,19793.4
867.7198655,20398.8
872.026116,20674.2
876.3258802,20938.6
880.6191693,20498.8
884.9059946,20553.6
889.186367,20896.4
893.4602979,19769.6
897.7277982,19633.2
901.9888793,20047.4
906.2435521,20434.6
910.4918277,19885.6
914.7337174,19855.8
918.9692321,19845.4
923.1983831,20434.4
927.4211813,19911
931.6376378,20597.8
935.8477637,20100
940.0515701,20254
944.249068,20185.8
948.4402684,19474
952.6251825,20252.2
956.8038212,19805.6
960.9761955,20543.8
965.1423166,19953
969.3021953,19938
973.4558427,19986
977.6032699,19821.2
981.7444877,19840.6
985.8795072,19800.4
990.0083394,19886.6
994.1309953,19484.6
998.2474857,19925.6
1002.357822,19127.6
1006.462014,19614
1010.560075,19291.6
1014.652013,19767.2
1018.737841,19892.2
1022.81757,19442
1026.891209,19429.6
1030.958771,19269.2
1035.020266,19494.6
1039.075705,19239
1043.1251,18883.6
1047.16846,19182.4
1051.205797,18971.8
1055.237121,18755.8
1059.262444,18799.4
1063.281777,18841.4
1067.295131,19209
1071.302515,20602.6
1075.303942,20313.4
1079.299422,21133.4
1083.288966,20452.4
1087.272585,19731.8
1091.250289,19311.4
1095.222091,19234.8
1099.187999,18822.8
1103.148026,18824.4
1107.102183,18751.4
1111.050479,18838.8
1114.992927,18727
1118.929536,18703.6
1122.860318,19025
1126.785283,18635.6
1130.704443,18549.4
1134.617808,19581.2
1138.52539,19535.4
1142.427198,19405.8
1146.323244,19312.6
1150.213538,18701
1154.098093,19045
1157.976917,18464.8
1161.850023,18307.4
1165.717421,18765.2
1169.579121,18564
1173.435135,18931
1177.285474,18127
1181.130148,18310.6
1184.969169,18514.6
1188.802547,18450
1192.630292,17943.6
1196.452416,17852.4
1200.26893,17827.2
1204.079844,17612
1207.88517,17215
1211.684917,17799.8
1215.479098,17311.6
1219.267722,18878.2
1223.050801,17441
1226.828346,17490
1230.600366,17747.2
1234.366874,17614.2
1238.12788,17397.2
1241.883395,17488
1245.633429,17788.4
1249.377994,17628
1253.1171,16944
1256.850759,17392.4
1260.578981,17286.8
1264.301776,17354
1268.019157,17372.8
1271.731133,16991.6
1275.437715,16802.2
1279.138915,17378.8
1282.834743,17619.6
1286.52521,17043.8
1290.210328,16798
1293.890106,16931.6
1297.564555,17539
1301.233688,16911.4
1304.897514,17227.4
1308.556044,17300.6
1312.209289,17321.6
1315.857261,16754.8
1319.499969,16896
1323.137425,17492.8
1326.769641,16961.8
1330.396626,17583.8
1334.018391,17044
1337.634948,17136
1341.246307,16851.4
1344.85248,16886.4
1348.453477,16607.8
1352.049309,16632.2
1355.639987,16688.2
1359.225522,17354.4
1362.805925,16813.8
1366.381207,16851.6
1369.951379,16868
1373.516452,17086.8
1377.076436,17216.6
1380.631343,17001.8
1384.181184,16941.6
1387.725969,17039.8
1391.26571,16720.6
1394.800417,16473
1398.330102,16532.2
1401.854776,16685.8
1405.374448,16525
1408.889132,16167.8
1412.398837,15635.6
1415.903574,16133.4
1419.403355,16652.4
1422.89819,16311.2
1426.388091,16282
1429.873069,16708
1433.353134,16149.6
1436.828298,16177.4
1440.298571,16247.8
1443.763965,16034
1447.224491,15714.6
1450.68016,15827
1454.130983,16205.4
1457.576971,16016.8
1461.018135,16204.8
1464.454486,16260.4
1467.886036,15856
1471.312794,15811.4
1474.734774,15469.2
1478.151985,16065.2
1481.564439,15832.6
1484.972146,15630
1488.375119,15192.4
1491.773368,15650.4
1495.166904,16187.4
1498.555739,15543.6
1501.939883,15668.8
1505.319349,15106.2
1508.694146,15445.8
1512.064286,15587
1515.429781,15470.2
1518.790642,15281.8
1522.146879,15471.2
1525.498505,14953.8
1528.845529,15043.6
1532.187965,15591.2
1535.525822,15302.6
1538.859112,15306.4
1542.187846,15891.2
1545.512036,14972
1548.831693,16177
1552.146829,15689
1555.457453,15102.8
1558.763579,14719.8
1562.065216,15067.6
1565.362377,15381.2
1568.655073,15620.4
1571.943315,15365
1575.227114,15503.8
1578.506482,15408.2
1581.781431,15851.6
1585.051971,15526.6
1588.318114,15538.8
1591.579872,15428.2
1594.837255,15110.2
1598.090275,14795.4
1601.338945,14795
1604.583274,15046.6
1607.823275,14774.2
1611.058959,14289.4
1614.290338,14988.4
1617.517422,14207.4
1620.740224,14501.6
1623.958755,14143.8
1627.173027,14098.2
1630.38305,13739
1633.588838,14116.2
1636.7904,14020
1639.987749,14237
1643.180896,14371
1646.369853,13668.4
1649.554632,14510.8
1652.735244,13825.8
1655.9117,13447.2
1659.084013,13830.6
1662.252193,14430.6
1665.416254,13563.2
1668.576205,13815.6
1671.732059,13981.2
1674.883828,13994.8
1678.031523,13556
1681.175157,13593
1684.314739,13600
1687.450284,13550.4
1690.581801,13540.6
1693.709304,13218
1696.832803,13355.2
1699.952311,13522.2
1703.067839,13595.4
1706.179399,13462.8
1709.287003,13948.2
1712.390663,13428.2
1715.49039,13467.8
1718.586197,13706.4
1721.678095,13632.2
1724.766096,13626
1727.850213,13025.4
1730.930456,13415.6
1734.006838,13292
1737.079372,13444
1740.148067,13033.4
1743.212938,14160.2
1746.273996,13323.6
1749.331252,13283
1752.384718,13221.2
1755.434408,13260.6
1758.480332,13223
1761.522503,13215.8
1764.560933,12949
1767.595634,12619.8
1770.626618,13308.4
1773.653896,13331.6
1776.677482,12915.6
1779.697388,12886.2
1782.713625,13460.4
1785.726205,13371.4
1788.735141,13283.6
1791.740445,12901.2
1794.742129,12821.6
1797.740206,13349.2
1800.734687,13296
1803.725585,13178.2
1806.712912,12994.4
1809.69668,12751
1812.676902,12851.6
1815.65359,12499.4
1818.626756,12748.8
1821.596413,12854.4
1824.562573,12555.8
1827.525247,12817
1830.48445,12700.2
1833.440192,12723.2
1836.392487,12672.6
1839.341347,12966.8
1842.286784,12892.8
1845.22881,12362.8
1848.167439,12943.2
1851.102682,12643.8
1854.034553,12781.8
1856.963063,12539
1859.888226,13345.2
1862.810053,12818.8
1865.728557,12651
1868.643751,12490.2
1871.555648,12467.8
1874.46426,12189.4
1877.369599,12898
1880.271679,12650
1883.170512,12579
1886.06611,12847.2
1888.958487,12583
1891.847655,12585.6
1894.733626,12627.6
1897.616414,12774
1900.496032,12356.6
1903.372491,12574.4
1906.245805,12903.6
1909.115987,12989.2
1911.983049,12805.6
1914.847004,12650.8
1917.707866,12853.6
1920.565646,12864.4
1923.420359,12365.8
1926.272016,12646.4
1929.120631,12345.4
1931.966216,12618.4
1934.808786,12477.2
1937.648351,12754.8
1940.484927,12602.4
1943.318525,12673.2
1946.149158,12930.4
1948.97684,13799.6
1951.801584,12885.8
1954.623403,12690.4
1957.44231,12775
1960.258318,12259.2
1963.071439,12358.8
1965.881688,12521.4
1968.689078,12673.6
1971.493621,12478.8
