Ramanshift[cm-1],Intensity
-93.47115107,12744.6
-87.69374369,11478
-81.9253076,11318
-76.16582701,11473.8
-70.41528615,11460.6
-64.67366933,11203.2
-58.94096086,11173
-53.21714512,11476.2
-47.50220652,11567.6
-41.79612954,11538.8
-36.09889866,12035.6
-30.41049843,12059.2
-24.73091343,11677.4
-19.0601283,11795.4
-13.39812769,11534
-7.744896327,11333.6
-2.100418946,11149.2
3.535319659,11738.2
9.162334658,11152.8
14.78064118,11490
20.39025432,11203.2
25.99118913,11126
31.58346061,11675.2
37.16708375,11428.6
42.74207347,11222.6
48.30844468,11135.4
53.86621222,11132.2
59.41539093,10864
64.95599558,10796
70.48804091,11190.8
76.01154164,11227.6
81.52651243,10704.6
87.03296792,11173
92.5309227,11448
98.02039134,10803.2
103.5013884,11154.2
108.9739282,10921
114.4380255,11012.4
119.8936944,11155
125.3409495,11985.8
130.779805,10911.4
136.2102753,10642.8
141.6323747,10768
147.0461174,11241
152.4515176,10820.6
157.8485895,10897.2
163.2373472,10737.2
168.6178049,11076
173.9899766,11274.2
179.3538764,10897
184.7095182,10981.4
190.0569161,11131.2
195.396084,11253.4
200.7270358,10729.4
206.0497854,10825
211.3643466,10612.4
216.6707333,10938.4
221.9689593,10531.2
227.2590382,10728.4
232.5409839,10738
237.8148101,10655.2
243.0805303,10724
248.3381582,10741.8
253.5877075,10615.6
258.8291917,10656.6
264.0626244,10731
269.288019,10982.8
274.5053891,11099.6
279.7147481,10800.6
284.9161094,10593.8
290.1094865,10617.8
295.2948927,10862.6
300.4723414,11624.6
305.6418459,11485.4
310.8034194,11502.2
315.9570752,12252.2
321.1028267,12438.2
326.2406869,12414.8
331.370669,12481.4
336.4927863,12414
341.6070517,12382.4
346.7134786,12203.6
351.8120798,12385.6
356.9028684,12033.4
361.9858576,12175
367.0610602,12493.8
372.1284892,12207.4
377.1881577,12549.8
382.2400784,12137.8
387.2842644,12046.4
392.3207284,12320
397.3494833,11969.4
402.370542,12176.8
407.3839172,11994.6
412.3896217,11903.8
417.3876683,11753.4
422.3780697,11868.4
427.3608386,12002
432.3359876,12395.6
437.3035295,12482.6
442.2634769,12563.4
447.2158423,11793
452.1606383,11901.6
457.0978776,12144
462.0275727,11645.6
466.9497361,11987.4
471.8643802,11487
476.7715176,11943.6
481.6711608,11801.8
486.5633221,12125.8
491.448014,11880.6
496.3252488,11859
501.195039,11779.4
506.0573969,12186.6
510.9123349,12013
515.7598651,11349.8
520.6,11857.2
525.4327518,11839.6
530.2581327,11861.2
535.076155,11443.8
539.8868309,11840.4
544.6901726,11906.4
549.4861922,11638.2
554.2749019,12492.8
559.0563139,11613.4
563.8304402,11370.8
568.597293,12322.6
573.3568844,12105.6
578.1092263,11617.2
582.8543308,12036.8
587.5922101,11968.2
592.322876,11705.2
597.0463405,11738.6
601.7626157,11982.4
606.4717135,11580.6
611.1736458,11594.4
615.8684246,11656.6
620.5560617,11976.2
625.2365691,11656.6
629.9099585,12072.4
634.5762419,12334.4
639.2354312,11666.6
643.887538,11973.2
648.5325743,11782.4
653.1705518,11679
657.8014823,11922
662.4253775,11314.2
667.0422493,11554.6
671.6521092,11609.2
676.2549691,11768.6
680.8508407,11762.6
685.4397355,11553.2
690.0216654,11643.2
694.5966419,11525
699.1646767,11927.8
703.7257814,11593.6
708.2799676,11707.6
712.827247,11868.2
717.367631,11745.4
721.9011314,11694
726.4277595,11119.8
730.9475271,11742
735.4604456,11688.6
739.9665264,12128
744.4657813,11660.4
748.9582215,11771
753.4438587,11201
757.9227042,11096.4
762.3947696,11686.8
766.8600662,11327.6
771.3186056,12622
775.770399,11662.6
780.215458,12021
784.6537939,11338.4
789.0854181,11280
793.510342,11367.8
797.9285769,11871.2
802.3401342,11364.8
806.7450253,11487.4
811.1432614,11479.8
815.5348538,11399.4
819.9198139,11205.8
824.2981531,11471.4
828.6698824,11603.4
833.0350133,11494
837.393557,11262.8
841.7455248,11649.2
846.0909278,11404
850.4297774,11262.4
854.7620848,11408.6
859.0878611,11641
863.4071176,11099
867.7198655,11512
872.026116,11756.2
876.3258802,12185.6
880.6191693,11686.6
884.9059946,11730
889.186367,12224.8
893.4602979,11135
897.7277982,11133.8
901.9888793,11427.4
906.2435521,11745.8
910.4918277,11236.8
914.7337174,11198.4
918.9692321,11089.2
923.1983831,11613
927.4211813,11286.6
931.6376378,11871.8
935.8477637,11337
940.0515701,11550
944.249068,11550.2
948.4402684,10832.4
952.6251825,11548.8
956.8038212,11194.4
960.9761955,11768.8
965.1423166,11305.6
969.3021953,11389.4
973.4558427,11330.6
977.6032699,11223.8
981.7444877,11372
985.8795072,11209
990.0083394,11263.6
994.1309953,10989.4
998.2474857,11405
1002.357822,10592.6
1006.462014,11249.4
1010.560075,10967.8
1014.652013,11499.4
1018.737841,11719.8
1022.81757,11271
1026.891209,11274
1030.958771,11164.4
1035.020266,11515.4
1039.075705,11233.6
1043.1251,11063.6
1047.16846,11199.4
1051.205797,11219.4
1055.237121,10902.6
1059.262444,10927.2
1063.281777,10673.8
1067.295131,10692.8
1071.302515,11437.2
1075.303942,10858
1079.299422,11640.6
1083.288966,11283.2
1087.272585,11100.6
1091.250289,11205
1095.222091,11282.2
1099.187999,10999.6
1103.148026,11223.8
1107.102183,11058
1111.050479,11357.4
1114.992927,11224.4
1118.929536,11109
1122.860318,11383
1126.785283,10884.2
1130.704443,10819.6
1134.617808,11515.4
1138.52539,11313.4
1142.427198,11262.6
1146.323244,11337.8
1150.213538,10987.2
1154.098093,11484.4
1157.976917,10969.6
1161.850023,10846.2
1165.717421,11298.2
1169.579121,11119.4
1173.435135,11496.6
1177.285474,10634
1181.130148,10740.2
1184.969169,11112.4
1188.802547,11036
1192.630292,10802.4
1196.452416,10626.2
1200.26893,10757.6
1204.079844,10591.4
1207.88517,10245.2
1211.684917,10906
1215.479098,10603
1219.267722,11934
1223.050801,10591.2
1226.828346,10707.4
1230.600366,10884.8
1234.366874,10926.8
1238.12788,10694
1241.883395,10789.6
1245.633429,11015.8
1249.377994,10992.6
1253.1171,10213.8
1256.850759,10730
1260.578981,10658.8
1264.301776,10740
1268.019157,10612.8
1271.731133,10433.6
1275.437715,10381
1279.138915,10898.4
1282.834743,11030.6
1286.52521,10625
1290.210328,10518.6
1293.890106,10706.8
1297.564555,11098.6
1301.233688,10520.2
1304.897514,10865.8
1308.556044,10921.4
1312.209289,10874.6
1315.857261,10406.6
1319.499969,10530.8
1323.137425,11170.2
1326.769641,10834.4
1330.396626,11322.2
1334.018391,10892.8
1337.634948,10839.4
1341.246307,10602.6
1344.85248,10585.6
1348.453477,10541.6
1352.049309,10505.8
1355.639987,10536.2
1359.225522,11182.6
1362.805925,10712.8
1366.381207,10796.8
1369.951379,10795.6
1373.516452,10787.2
1377.076436,11100.8
1380.631343,10805
1384.181184,10563.6
1387.725969,10767
1391.26571,10461.6
1394.800417,10364.2
1398.330102,10566.2
1401.854776,10694.4
1405.374448,10619.8
1408.889132,10224.2
1412.398837,10077.4
1415.903574,10398
1419.403355,10884.2
1422.89819,10516.6
1426.388091,10486.2
1429.873069,10857.2
1433.353134,10322.6
1436.828298,10368.2
1440.298571,10671.4
1443.763965,10359
1447.224491,10349.8
1450.68016,10339
1454.130983,10803
1457.576971,10717
1461.018135,10879.4
1464.454486,10919.4
1467.886036,10607.2
1471.312794,10567.6
1474.734774,10312.6
1478.151985,10928
1481.564439,10755.6
1484.972146,10722.8
1488.375119,10319.2
1491.773368,10606.4
1495.166904,11249.2
1498.555739,10564.8
1501.939883,10672.4
1505.319349,10185.8
1508.694146,10617.6
1512.064286,10683
1515.429781,10618.4
1518.790642,10382.6
1522.146879,10601.6
1525.498505,10349.6
1528.845529,10220.8
1532.187965,10902
1535.525822,10533.2
1538.859112,10492.6
1542.187846,11062.8
1545.512036,10289.6
1548.831693,11484.8
1552.146829,11007
1555.457453,10391.8
1558.763579,9926.6
1562.065216,10349.4
1565.362377,10515
1568.655073,10858.2
1571.943315,10597.4
1575.227114,10452.2
1578.506482,10395.8
1581.781431,10963.8
1585.051971,10454.4
1588.318114,10480.6
1591.579872,10496
1594.837255,10391.4
1598.090275,10381.2
1601.338945,10401
1604.583274,10834
1607.823275,10476.2
1611.058959,10081.8
1614.290338,10857.6
1617.517422,10045.2
1620.740224,10466.4
1623.958755,10180.2
1627.173027,10323.4
1630.38305,9976.6
1633.588838,10382
1636.7904,10221.4
1639.987749,10435.2
1643.180896,10526
1646.369853,9889.4
1649.554632,10862.4
1652.735244,10195.6
1655.9117,9939
1659.084013,10287.8
1662.252193,10909.6
1665.416254,10033
1668.576205,10287.4
1671.732059,10565.4
1674.883828,10602.8
1678.031523,10166
1681.175157,10257
1684.314739,10320.8
1687.450284,10287.2
1690.581801,10241.4
1693.709304,9999.2
1696.832803,10101.2
1699.952311,10302.4
1703.067839,10256
1706.179399,10237.8
1709.287003,10681.2
1712.390663,10337
1715.49039,10303.6
1718.586197,10658.2
1721.678095,10491.2
1724.766096,10547.8
1727.850213,9982.6
1730.930456,10444.6
1734.006838,10177
1737.079372,10451
1740.148067,10124.2
1743.212938,11132.6
1746.273996,10374.2
1749.331252,10289.2
1752.384718,10331.4
1755.434408,10364.8
1758.480332,10376.6
1761.522503,10395.4
1764.560933,10192
1767.595634,9906
1770.626618,10583.4
1773.653896,10643
1776.677482,10301.8
1779.697388,10168.2
1782.713625,10758.2
1785.726205,10613
1788.735141,10728.6
1791.740445,10242
1794.742129,10169
1797.740206,10538.8
1800.734687,10563
1803.725585,10429.2
1806.712912,10452
1809.69668,10197.6
1812.676902,10270.2
1815.65359,9978.2
1818.626756,10090.4
1821.596413,10235.8
1824.562573,9962
1827.525247,10249.4
1830.48445,10067.6
1833.440192,10237.6
1836.392487,10120.2
1839.341347,10320.8
1842.286784,10410.8
1845.22881,9908.8
1848.167439,10483.8
1851.102682,10124.8
1854.034553,10288.6
1856.963063,9956.6
1859.888226,10809.8
1862.810053,10345.6
1865.728557,10199.6
1868.643751,10084.2
1871.555648,10014.2
1874.46426,9851.8
1877.369599,10422.8
1880.271679,10206.6
1883.170512,10031.8
1886.06611,10591
1888.958487,10286
1891.847655,10191
1894.733626,10309.4
1897.616414,10441.6
1900.496032,9958.6
1903.372491,10278.6
1906.245805,10517.4
1909.115987,10627
1911.983049,10516.2
1914.847004,10493.4
1917.707866,10609.6
1920.565646,10452.8
1923.420359,10121.4
1926.272016,10370
1929.120631,10135.2
1931.966216,10308.8
1934.808786,10235.6
1937.648351,10432.8
1940.484927,10421.4
1943.318525,10474
1946.149158,10711.4
1948.97684,11639.2
1951.801584,10698
1954.623403,10403
1957.44231,10572.8
1960.258318,10207.6
1963.071439,10161.8
1965.881688,10399.8
1968.689078,10433.6
1971.493621,10319.8
