Ramanshift[cm-1],Intensity
-93.47115107,13558.4
-87.69374369,12242.6
-81.9253076,12156
-76.16582701,12157.4
-70.41528615,12234
-64.67366933,11912
-58.94096086,11930.8
-53.21714512,12152.6
-47.50220652,12291.2
-41.79612954,12194.8
-36.09889866,12798
-30.41049843,12770.4
-24.73091343,12418.6
-19.0601283,12540
-13.39812769,12249
-7.744896327,12046.2
-2.100418946,11892.2
3.535319659,12524.6
9.162334658,11913.2
14.78064118,12218.2
20.39025432,11977.8
25.99118913,11925.6
31.58346061,12460.6
37.16708375,12267
42.74207347,11825.8
48.30844468,11986.4
53.86621222,11823.2
59.41539093,11439
64.95599558,11483.6
70.48804091,11874.8
76.01154164,11907.2
81.52651243,11371.8
87.03296792,11805.8
92.5309227,12276.4
98.02039134,11482.4
103.5013884,11754.4
108.9739282,11574.4
114.4380255,11672.4
119.8936944,11898.6
125.3409495,12733
130.779805,11589.4
136.2102753,11287.8
141.6323747,11389.2
147.0461174,11974.2
152.4515176,11570.4
157.8485895,11541.4
163.2373472,11423.8
168.6178049,11725.6
173.9899766,12017.8
179.3538764,11524.8
184.7095182,11634.2
190.0569161,11885.2
195.396084,11946.2
200.7270358,11512.2
206.0497854,11465.8
211.3643466,11319.4
216.6707333,11609.6
221.9689593,11291.6
227.2590382,11485.4
232.5409839,11458.8
237.8148101,11349.2
243.0805303,11335.4
248.3381582,11372.2
253.5877075,11277
258.8291917,11387.8
264.0626244,11578.4
269.288019,11680.2
274.5053891,11782.6
279.7147481,11611.8
284.9161094,11602
290.1094865,12620.2
295.2948927,15406.6
300.4723414,22126.2
305.6418459,30438.6
310.8034194,37931.2
315.9570752,42267
321.1028267,43182.2
326.2406869,43782.6
331.370669,44452.2
336.4927863,45462.8
341.6070517,46385
346.7134786,47066.4
351.8120798,47693.6
356.9028684,47522.2
361.9858576,47209.2
367.0610602,47574.6
372.1284892,46832
377.1881577,47495.8
382.2400784,48216.6
387.2842644,49521.6
392.3207284,50775.4
397.3494833,50208.8
402.370542,49572.6
407.3839172,48085.8
412.3896217,46851
417.3876683,45720.8
422.3780697,45512.2
427.3608386,45027
432.3359876,45237.2
437.3035295,44841
442.2634769,44682.6
447.2158423,43637
452.1606383,43733.8
457.0978776,43441.6
462.0275727,42980.8
466.9497361,43438.4
471.8643802,42884.8
476.7715176,43296.6
481.6711608,43710.2
486.5633221,44002.6
491.448014,43843.6
496.3252488,43642.8
501.195039,43707.6
506.0573969,43684.6
510.9123349,42986
515.7598651,42274.4
520.6,42544.4
525.4327518,42263
530.2581327,42006.4
535.076155,41180.6
539.8868309,41566
544.6901726,41288.6
549.4861922,40844.2
554.2749019,41663
559.0563139,40609.8
563.8304402,40237
568.597293,41205.2
573.3568844,40678
578.1092263,40201.6
582.8543308,40869.6
587.5922101,41069.6
592.322876,40491.4
597.0463405,40677
601.7626157,40873.6
606.4717135,40278.6
611.1736458,40250
615.8684246,40276.2
620.5560617,40361.4
625.2365691,39849
629.9099585,40345.8
634.5762419,40330.2
639.2354312,39621
643.887538,39404.6
648.5325743,39426.8
653.1705518,39421.2
657.8014823,39418
662.4253775,38524
667.0422493,38834.2
671.6521092,38662.8
676.2549691,38732.8
680.8508407,38554.8
685.4397355,38319.6
690.0216654,38374.2
694.5966419,38021.6
699.1646767,38639.6
703.7257814,38356.2
708.2799676,38334
712.827247,38277.6
717.367631,37814.8
721.9011314,37815.4
726.4277595,36988.2
730.9475271,37491.4
735.4604456,37305.2
739.9665264,37622
744.4657813,37201
748.9582215,36887.6
753.4438587,36220
757.9227042,35646.6
762.3947696,36267.8
766.8600662,35302.4
771.3186056,36775.6
775.770399,35618
780.215458,35701.8
784.6537939,34957.8
789.0854181,34764.6
793.510342,34567.4
797.9285769,34946.8
802.3401342,34466
806.7450253,34562.4
811.1432614,34229
815.5348538,33823.4
819.9198139,33487.2
824.2981531,33506
828.6698824,33357.4
833.0350133,32961.2
837.393557,32676.2
841.7455248,32896.8
846.0909278,32740.6
850.4297774,32724.2
854.7620848,32578.4
859.0878611,32899.2
863.4071176,32340.4
867.7198655,32725.4
872.026116,33102.8
876.3258802,33109.8
880.6191693,32687.2
884.9059946,32678.8
889.186367,32899.8
893.4602979,31872.6
897.7277982,31529
901.9888793,32279.2
906.2435521,32798.4
910.4918277,32438
914.7337174,32364.6
918.9692321,32236.6
923.1983831,32825
927.4211813,32454
931.6376378,32872.8
935.8477637,32302
940.0515701,32613.2
944.249068,32796.4
948.4402684,31753.4
952.6251825,32477.8
956.8038212,32202
960.9761955,33022.4
965.1423166,32391.8
969.3021953,32535
973.4558427,32556.4
977.6032699,32165.4
981.7444877,32315
985.8795072,32201.6
990.0083394,32183.4
994.1309953,31656.2
998.2474857,32232.4
1002.357822,31159.4
1006.462014,31952.8
1010.560075,31352.6
1014.652013,31407.6
1018.737841,31931.8
1022.81757,31400.8
1026.891209,31081.4
1030.958771,30911.6
1035.020266,31219.4
1039.075705,30870.4
1043.1251,30517
1047.16846,30711.2
1051.205797,30720.4
1055.237121,30425
1059.262444,30795.2
1063.281777,31003
1067.295131,32212.6
1071.302515,34184.2
1075.303942,34261.2
1079.299422,35401
1083.288966,34005
1087.272585,32506.8
1091.250289,31349.4
1095.222091,31168
1099.187999,30288.6
1103.148026,30311
1107.102183,30254
1111.050479,30025
1114.992927,30194.2
1118.929536,30135
1122.860318,30618.4
1126.785283,30238.8
1130.704443,30651
1134.617808,31735
1138.52539,31677.2
1142.427198,31382.8
1146.323244,31017.6
1150.213538,30493.6
1154.098093,30768.2
1157.976917,30050.4
1161.850023,30077.2
1165.717421,30455.4
1169.579121,30100.8
1173.435135,30650.2
1177.285474,29807.2
1181.130148,30131.6
1184.969169,30423
1188.802547,29766.4
1192.630292,29246.4
1196.452416,28912.8
1200.26893,28794.8
1204.079844,28467.4
1207.88517,28095
1211.684917,28690.4
1215.479098,28017.2
1219.267722,29700.8
1223.050801,28020.4
1226.828346,28175.8
1230.600366,28446
1234.366874,28343.8
1238.12788,28259.4
1241.883395,28333.2
1245.633429,28485.6
1249.377994,28410.6
1253.1171,27822.2
1256.850759,28033
1260.578981,28016
1264.301776,27995.6
1268.019157,28011.4
1271.731133,27681.8
1275.437715,27428.6
1279.138915,28221
1282.834743,28374.6
1286.52521,27888
1290.210328,27521.2
1293.890106,27869.4
1297.564555,28274.4
1301.233688,27608
1304.897514,27972
1308.556044,28023.4
1312.209289,27997.6
1315.857261,27328.2
1319.499969,27430
1323.137425,28345.6
1326.769641,27657.4
1330.396626,28454.2
1334.018391,27773
1337.634948,27779.2
1341.246307,27458.4
1344.85248,27294.2
1348.453477,27253
1352.049309,27097.4
1355.639987,26999.4
1359.225522,27560.6
1362.805925,27086.4
1366.381207,26908.6
1369.951379,27066.8
1373.516452,27154.8
1377.076436,27253.2
1380.631343,27267.2
1384.181184,27015.8
1387.725969,27105.8
1391.26571,26926.6
1394.800417,26529.2
1398.330102,26410.8
1401.854776,26521.8
1405.374448,26086.4
1408.889132,25895.2
1412.398837,25352.2
1415.903574,25653.8
1419.403355,26275.4
1422.89819,26061
1426.388091,26011
1429.873069,26380.8
1433.353134,25845.6
1436.828298,25597
1440.298571,25465.6
1443.763965,24988.2
1447.224491,24850.2
1450.68016,24628
1454.130983,24962.6
1457.576971,24730.6
1461.018135,24766.2
1464.454486,24808.6
1467.886036,24036.4
1471.312794,24155
1474.734774,23711
1478.151985,24365.4
1481.564439,23906.8
1484.972146,23785.4
1488.375119,23434.2
1491.773368,23589.4
1495.166904,24224
1498.555739,23292.4
1501.939883,23264
1505.319349,22900.6
1508.694146,23364.2
1512.064286,23228.6
1515.429781,23222.8
1518.790642,22956.6
1522.146879,23102.6
1525.498505,22523.8
1528.845529,22538.6
1532.187965,23357
1535.525822,22812.8
1538.859112,22782.6
1542.187846,23337.8
1545.512036,22555.8
1548.831693,23802.2
1552.146829,23305.6
1555.457453,22734.2
1558.763579,22279
1562.065216,22945.8
1565.362377,23170.6
1568.655073,23514.2
1571.943315,23508.4
1575.227114,23311.4
1578.506482,23348
1581.781431,23855.8
1585.051971,23320.6
1588.318114,23348.8
1591.579872,22810
1594.837255,22314.6
1598.090275,21611
1601.338945,21452.8
1604.583274,21477.2
1607.823275,20933.4
1611.058959,20451.8
1614.290338,21025
1617.517422,19955.4
1620.740224,20202
1623.958755,19770
1627.173027,19779.6
1630.38305,19194.4
1633.588838,19460
1636.7904,19143.4
1639.987749,19276.2
1643.180896,19366
1646.369853,18518.6
1649.554632,19315.2
1652.735244,18509
1655.9117,18183
1659.084013,18361.6
1662.252193,18852.4
1665.416254,17950.6
1668.576205,18249
1671.732059,18387.6
1674.883828,18352.4
1678.031523,17739.2
1681.175157,17711.6
1684.314739,17715.2
1687.450284,17690.2
1690.581801,17471.8
1693.709304,17164.8
1696.832803,17133.8
1699.952311,17269.8
1703.067839,17332.2
1706.179399,17231
1709.287003,17588.8
1712.390663,17113.6
1715.49039,17051.2
1718.586197,17392.6
1721.678095,17215.8
1724.766096,17205.2
1727.850213,16560.6
1730.930456,16710.6
1734.006838,16629
1737.079372,17041.8
1740.148067,16463.8
1743.212938,17445
1746.273996,16603.2
1749.331252,16463
1752.384718,16476
1755.434408,16510.4
1758.480332,16372.6
1761.522503,16369
1764.560933,16149.4
1767.595634,15830
1770.626618,16426.8
1773.653896,16450.6
1776.677482,15938.2
1779.697388,15943.2
1782.713625,16375.8
1785.726205,16348.4
1788.735141,16298.6
1791.740445,15884.6
1794.742129,15724.2
1797.740206,16295.8
1800.734687,16236
1803.725585,16003
1806.712912,15898.8
1809.69668,15607.2
1812.676902,15712
1815.65359,15452.4
1818.626756,15542.6
1821.596413,15632.2
1824.562573,15346
1827.525247,15604.2
1830.48445,15508.6
1833.440192,15572.8
1836.392487,15343.4
1839.341347,15633.6
1842.286784,15715.6
1845.22881,15091.2
1848.167439,15667
1851.102682,15347
1854.034553,15413
1856.963063,15101.6
1859.888226,15941.2
1862.810053,15584.6
1865.728557,15248
1868.643751,15028
1871.555648,15104.2
1874.46426,14743.4
1877.369599,15426.4
1880.271679,15191.2
1883.170512,14968
1886.06611,15386.8
1888.958487,15036
1891.847655,15106.4
1894.733626,15183
1897.616414,15232.2
1900.496032,14801.4
1903.372491,14999.8
1906.245805,15331.6
1909.115987,15350
1911.983049,15223.8
1914.847004,15210.8
1917.707866,15276.2
1920.565646,15110.8
1923.420359,14760.8
1926.272016,15013.4
1929.120631,14753.6
1931.966216,14931.6
1934.808786,14781.4
1937.648351,14954.6
1940.484927,14979.4
1943.318525,15044.6
1946.149158,15288
1948.97684,16166
1951.801584,15116.2
1954.623403,14841
1957.44231,14926.2
1960.258318,14557.8
1963.071439,14544.8
1965.881688,14670.6
1968.689078,14815.2
1971.493621,14522.2
