Ramanshift[cm-1],Intensity
-93.47115107,14222.4
-87.69374369,12905.2
-81.9253076,12726
-76.16582701,12855.2
-70.41528615,12825.2
-64.67366933,12611
-58.94096086,12655.6
-53.21714512,12857.4
-47.50220652,12878.2
-41.79612954,13025.6
-36.09889866,13444.2
-30.41049843,13498.6
-24.73091343,13208.8
-19.0601283,13235.4
-13.39812769,12901.2
-7.744896327,12722.8
-2.100418946,12492.2
3.535319659,13187.2
9.162334658,12517.4
14.78064118,12883.2
20.39025432,12551.8
25.99118913,12627.6
31.58346061,13090.6
37.16708375,12806.4
42.74207347,12546.8
48.30844468,12577.8
53.86621222,12464
59.41539093,12140.8
64.95599558,12093.6
70.48804091,12533.2
76.01154164,12589.8
81.52651243,11926.6
87.03296792,12438.6
92.5309227,12840.6
98.02039134,12089.6
103.5013884,12443.8
108.9739282,12273
114.4380255,12209
119.8936944,12411.6
125.3409495,13369.2
130.779805,12243.6
136.2102753,11928
141.6323747,12011.6
147.0461174,12712.6
152.4515176,12217.6
157.8485895,12187.6
163.2373472,12101.2
168.6178049,12319
173.9899766,12674
179.3538764,12221.6
184.7095182,12247.8
190.0569161,12485.4
195.396084,12621.2
200.7270358,12076.6
206.0497854,12100.8
211.3643466,11842.4
216.6707333,12233.2
221.9689593,11793.6
227.2590382,12015.4
232.5409839,11936.4
237.8148101,11856.2
243.0805303,12028
248.3381582,12028.2
253.5877075,11821
258.8291917,11973
264.0626244,12174
269.288019,12273
274.5053891,12395.4
279.7147481,12076.4
284.9161094,11925
290.1094865,12304
295.2948927,13423.6
300.4723414,16182.4
305.6418459,18781
310.8034194,21386.6
315.9570752,23554.2
321.1028267,23961
326.2406869,24268.8
331.370669,24460.4
336.4927863,24754.8
341.6070517,25086.2
346.7134786,25203.8
351.8120798,25438
356.9028684,25193.8
361.9858576,25214.2
367.0610602,25509.4
372.1284892,25140.4
377.1881577,25810
382.2400784,26240.4
387.2842644,27071.2
392.3207284,27813.2
397.3494833,26911.6
402.370542,26619.2
407.3839172,25828.2
412.3896217,24997.8
417.3876683,24543
422.3780697,24341
427.3608386,24232.8
432.3359876,24465.4
437.3035295,24655
442.2634769,24721.4
447.2158423,23763.2
452.1606383,23671.8
457.0978776,23823.2
462.0275727,23291.6
466.9497361,23750
471.8643802,23172
476.7715176,23731.8
481.6711608,23611.8
486.5633221,24036
491.448014,23719.4
496.3252488,23623
501.195039,23540.4
506.0573969,24049
510.9123349,23509.2
515.7598651,23004.6
520.6,23377.6
525.4327518,23234.6
530.2581327,23131.8
535.076155,22615.8
539.8868309,22979.2
544.6901726,23068.6
549.4861922,22796.4
554.2749019,23847
559.0563139,22869.8
563.8304402,22710
568.597293,23707.6
573.3568844,23266.2
578.1092263,22639
582.8543308,23069
587.5922101,23058.8
592.322876,22577
597.0463405,22725
601.7626157,23151.6
606.4717135,22490.6
611.1736458,22479.6
615.8684246,22665.6
620.5560617,22916.6
625.2365691,22511.2
629.9099585,22966
634.5762419,23120
639.2354312,22450
643.887538,22695.6
648.5325743,22258
653.1705518,22280
657.8014823,22451.6
662.4253775,21623.2
667.0422493,22067
671.6521092,22078.2
676.2549691,22286.6
680.8508407,22180.6
685.4397355,22038.8
690.0216654,21978.4
694.5966419,21779
699.1646767,22384.2
703.7257814,22202.8
708.2799676,22157.8
712.827247,22130.6
717.367631,21987
721.9011314,21913.2
726.4277595,21186.6
730.9475271,21881.8
735.4604456,21758.4
739.9665264,22180
744.4657813,21696
748.9582215,21672.6
753.4438587,21077.4
757.9227042,20810
762.3947696,21415.6
766.8600662,20685
771.3186056,22255.8
775.770399,21113.4
780.215458,21403
784.6537939,20600
789.0854181,20720.2
793.510342,20696.2
797.9285769,21361.8
802.3401342,20712.6
806.7450253,20780.4
811.1432614,20618.4
815.5348538,20371.6
819.9198139,20123.4
824.2981531,20316.4
828.6698824,20424.8
833.0350133,20280.2
837.393557,19887
841.7455248,20316
846.0909278,19990.2
850.4297774,19924.8
854.7620848,20057.8
859.0878611,20425.2
863.4071176,19516
867.7198655,20125.2
872.026116,20373.6
876.3258802,20863.8
880.6191693,20400
884.9059946,20278.4
889.186367,20714.8
893.4602979,19683.6
897.7277982,19519.2
901.9888793,19971
906.2435521,20422.8
910.4918277,19795.4
914.7337174,19771.6
918.9692321,19702
923.1983831,20369.4
927.4211813,20037.4
931.6376378,20721.6
935.8477637,20099.6
940.0515701,20469.6
944.249068,20395.8
948.4402684,19571.6
952.6251825,20441.8
956.8038212,20022.8
960.9761955,20643.8
965.1423166,20038.4
969.3021953,20173.4
973.4558427,20171.6
977.6032699,19912.2
981.7444877,20012.2
985.8795072,19951.2
990.0083394,20166
994.1309953,19658
998.2474857,20049.4
1002.357822,19293.8
1006.462014,19919
1010.560075,19494.4
1014.652013,19875.4
1018.737841,20236.6
1022.81757,19590.4
1026.891209,19609.2
1030.958771,19417.2
1035.020266,19601
1039.075705,19359.6
1043.1251,19081
1047.16846,19448
1051.205797,19282.4
1055.237121,19063.2
1059.262444,19198.4
1063.281777,19145.2
1067.295131,19785.4
1071.302515,21218.4
1075.303942,21241
1079.299422,22160.6
1083.288966,21136.8
1087.272585,20286.8
1091.250289,19719
1095.222091,19577.2
1099.187999,19047.2
1103.148026,19205.4
1107.102183,19150.2
1111.050479,19203.6
1114.992927,19275.4
1118.929536,19100.2
1122.860318,19398
1126.785283,18990.4
1130.704443,18902.6
1134.617808,20031.4
1138.52539,19844.6
1142.427198,19757
1146.323244,19707.4
1150.213538,19162.4
1154.098093,19522.4
1157.976917,18835.6
1161.850023,18793
1165.717421,19313.4
1169.579121,18911.2
1173.435135,19568.6
1177.285474,18544.2
1181.130148,18824.4
1184.969169,19206.4
1188.802547,19039.8
1192.630292,18461.4
1196.452416,18168.8
1200.26893,18221.2
1204.079844,17994.6
1207.88517,17459.4
1211.684917,18236.8
1215.479098,17760.8
1219.267722,19428.8
1223.050801,17752
1226.828346,17911.8
1230.600366,18096.8
1234.366874,18050.4
1238.12788,17910.4
1241.883395,18006.6
1245.633429,18253.8
1249.377994,18314
1253.1171,17560
1256.850759,17941.4
1260.578981,17845.2
1264.301776,17940.6
1268.019157,17863.6
1271.731133,17590.4
1275.437715,17487.2
1279.138915,17979.6
1282.834743,18213.8
1286.52521,17644.4
1290.210328,17419.6
1293.890106,17668.2
1297.564555,18181.2
1301.233688,17400
1304.897514,17943.8
1308.556044,18058
1312.209289,17937.4
1315.857261,17372.6
1319.499969,17596.8
1323.137425,18257.2
1326.769641,17742
1330.396626,18523.8
1334.018391,17845.6
1337.634948,17920.2
1341.246307,17646
1344.85248,17520
1348.453477,17433.2
1352.049309,17499.8
1355.639987,17345
1359.225522,18179.2
1362.805925,17617.2
1366.381207,17538.6
1369.951379,17748.6
1373.516452,17840.6
1377.076436,18121.4
1380.631343,17981.8
1384.181184,17712.2
1387.725969,17794.4
1391.26571,17399.6
1394.800417,17113.8
1398.330102,17184.8
1401.854776,17277.6
1405.374448,17154.4
1408.889132,16694.8
1412.398837,16408
1415.903574,16806.4
1419.403355,17362.6
1422.89819,17078
1426.388091,17024
1429.873069,17604.8
1433.353134,17163
1436.828298,16989.4
1440.298571,16987.8
1443.763965,16688.2
1447.224491,16507.8
1450.68016,16563.2
1454.130983,17008.6
1457.576971,16867
1461.018135,16948
1464.454486,16955
1467.886036,16538.2
1471.312794,16576.2
1474.734774,16135.4
1478.151985,16970
1481.564439,16594.4
1484.972146,16506
1488.375119,16096.4
1491.773368,16416
1495.166904,17034
1498.555739,16255.6
1501.939883,16347.2
1505.319349,15877.4
1508.694146,16309
1512.064286,16274
1515.429781,16163.6
1518.790642,16084.8
1522.146879,16383.8
1525.498505,15622
1528.845529,15675.8
1532.187965,16346.8
1535.525822,16060.8
1538.859112,16060.8
1542.187846,16685.2
1545.512036,15682.8
1548.831693,17057.2
1552.146829,16397.4
1555.457453,15871.8
1558.763579,15386
1562.065216,15889
1565.362377,16250
1568.655073,16634.4
1571.943315,16471.4
1575.227114,16491.2
1578.506482,16419.4
1581.781431,16928.8
1585.051971,16560.6
1588.318114,16579.4
1591.579872,16466.8
1594.837255,16002.6
1598.090275,15723
1601.338945,15517.8
1604.583274,15876.2
1607.823275,15470.6
1611.058959,14939.2
1614.290338,15646.2
1617.517422,14708.8
1620.740224,15131.6
1623.958755,14741.8
1627.173027,14749.8
1630.38305,14489.8
1633.588838,14749.2
1636.7904,14526.4
1639.987749,14867.4
1643.180896,14895.2
1646.369853,14254.2
1649.554632,15019.8
1652.735244,14411.2
1655.9117,14020.4
1659.084013,14300.6
1662.252193,14944.6
1665.416254,14016.8
1668.576205,14347
1671.732059,14636.4
1674.883828,14580.8
1678.031523,14076.4
1681.175157,14274.8
1684.314739,14148
1687.450284,14063
1690.581801,14011.4
1693.709304,13793.6
1696.832803,13838.8
1699.952311,14130.8
1703.067839,13967.8
1706.179399,14083
1709.287003,14417.2
1712.390663,13966.4
1715.49039,13931.2
1718.586197,14236
1721.678095,14154.8
1724.766096,14140.4
1727.850213,13599.2
1730.930456,13867.6
1734.006838,13689.4
1737.079372,13951.8
1740.148067,13554.8
1743.212938,14660.4
1746.273996,13743.2
1749.331252,13711.4
1752.384718,13753.6
1755.434408,13777.4
1758.480332,13838
1761.522503,13795.2
1764.560933,13487.6
1767.595634,13151.8
1770.626618,13916
1773.653896,13939
1776.677482,13483.8
1779.697388,13407.6
1782.713625,14165.2
1785.726205,14047.4
1788.735141,13874.6
1791.740445,13446.2
1794.742129,13379.8
1797.740206,13954.6
1800.734687,13885
1803.725585,13685
1806.712912,13659
1809.69668,13426.2
1812.676902,13361
1815.65359,13081.4
1818.626756,13176.2
1821.596413,13343.8
1824.562573,12998
1827.525247,13350
1830.48445,13181
1833.440192,13357.6
1836.392487,13182
1839.341347,13437.2
1842.286784,13314.8
1845.22881,12878.6
1848.167439,13558.8
1851.102682,13261.6
1854.034553,13230.2
1856.963063,13061.6
1859.888226,13918.8
1862.810053,13464.2
1865.728557,13193.6
1868.643751,12958.8
1871.555648,13002.4
1874.46426,12741.6
1877.369599,13335.4
1880.271679,13156.2
1883.170512,13028.8
1886.06611,13535.8
1888.958487,13145.8
1891.847655,13055.8
1894.733626,13327.8
1897.616414,13329.8
1900.496032,12905.2
1903.372491,13228.6
1906.245805,13483.6
1909.115987,13498.4
1911.983049,13479.6
1914.847004,13258.8
1917.707866,13428.2
1920.565646,13422.6
1923.420359,12888.4
1926.272016,13305.4
1929.120631,12901.6
1931.966216,13145.2
1934.808786,13070.8
1937.648351,13340
1940.484927,13243
1943.318525,13322
1946.149158,13552.4
1948.97684,14609
1951.801584,13473
1954.623403,13290.6
1957.44231,13411.6
1960.258318,12882
1963.071439,12997
1965.881688,13110
1968.689078,13271.8
1971.493621,13040.8
