Ramanshift[cm-1],Intensity
-93.47115107,13009.2
-87.69374369,11798.6
-81.9253076,11758
-76.16582701,11732.8
-70.41528615,11880.4
-64.67366933,11453.2
-58.94096086,11460.4
-53.21714512,11654.8
-47.50220652,11826.4
-41.79612954,11831.4
-36.09889866,12286
-30.41049843,12358.6
-24.73091343,11947.2
-19.0601283,12034.8
-13.39812769,11929.4
-7.744896327,11610
-2.100418946,11422.2
3.535319659,12096.2
9.162334658,11522
14.78064118,11810.2
20.39025432,11453.2
25.99118913,11578.8
31.58346061,11981.2
37.16708375,11745.2
42.74207347,11510.2
48.30844468,11577.4
53.86621222,11442.2
59.41539093,11023.8
64.95599558,11068
70.48804091,11390.6
76.01154164,11565.6
81.52651243,10914
87.03296792,11502.4
92.5309227,11711.2
98.02039134,11094
103.5013884,11332.6
108.9739282,11180.2
114.4380255,11200.8
119.8936944,11450
125.3409495,12198.2
130.779805,11191.2
136.2102753,10954.8
141.6323747,11005.6
147.0461174,11590.4
152.4515176,11072.8
157.8485895,11159.8
163.2373472,11043.4
168.6178049,11368.2
173.9899766,11576.8
179.3538764,11204.6
184.7095182,11188.6
190.0569161,11430.2
195.396084,11606.2
200.7270358,11055
206.0497854,11033
211.3643466,10912
216.6707333,11151.8
221.9689593,10797.4
227.2590382,10910.6
232.5409839,11011
237.8148101,10909.2
243.0805303,11103.6
248.3381582,11040.8
253.5877075,10851.6
258.8291917,11007.4
264.0626244,11060.4
269.288019,11207.4
274.5053891,11424.2
279.7147481,11052.4
284.9161094,10906.8
290.1094865,11229.6
295.2948927,12152.8
300.4723414,14376.8
305.6418459,16743.2
310.8034194,18777
315.9570752,20510.8
321.1028267,20919.2
326.2406869,21055.4
331.370669,21235.6
336.4927863,21645
341.6070517,21762.2
346.7134786,21856.8
351.8120798,22300.4
356.9028684,21947
361.9858576,21931.4
367.0610602,22293.2
372.1284892,22065.2
377.1881577,22818.8
382.2400784,23251
387.2842644,24362
392.3207284,25308.4
397.3494833,24463.6
402.370542,23977.4
407.3839172,22849.8
412.3896217,22049
417.3876683,21337.4
422.3780697,21304
427.3608386,21168
432.3359876,21418.6
437.3035295,21250.8
442.2634769,21232
447.2158423,20462.4
452.1606383,20590
457.0978776,20617.4
462.0275727,20171.2
466.9497361,20485.6
471.8643802,19917.6
476.7715176,20568
481.6711608,20387.8
486.5633221,20838.2
491.448014,20517.6
496.3252488,20450.8
501.195039,20617.2
506.0573969,20844.6
510.9123349,20402
515.7598651,19838.2
520.6,20282.4
525.4327518,20155
530.2581327,20173.2
535.076155,19656.8
539.8868309,19893
544.6901726,20065.2
549.4861922,19797.2
554.2749019,20577
559.0563139,19699.8
563.8304402,19443
568.597293,20340.4
573.3568844,20104.6
578.1092263,19561
582.8543308,20103.8
587.5922101,19837.2
592.322876,19617.4
597.0463405,19740.6
601.7626157,19959.8
606.4717135,19509.4
611.1736458,19453
615.8684246,19521.2
620.5560617,19777.8
625.2365691,19455.4
629.9099585,19953.8
634.5762419,20196.4
639.2354312,19646.4
643.887538,19613.8
648.5325743,19373.4
653.1705518,19243.8
657.8014823,19475.4
662.4253775,18751.4
667.0422493,19153.6
671.6521092,19178.6
676.2549691,19344.2
680.8508407,19291.6
685.4397355,19130
690.0216654,19281.2
694.5966419,19052.2
699.1646767,19489.2
703.7257814,19295
708.2799676,19387.2
712.827247,19375
717.367631,19242.6
721.9011314,19088.4
726.4277595,18509.4
730.9475271,19028.8
735.4604456,18973
739.9665264,19327.8
744.4657813,18986.8
748.9582215,18891.8
753.4438587,18317.8
757.9227042,18103.2
762.3947696,18714
766.8600662,18197.6
771.3186056,19562.6
775.770399,18425.8
780.215458,18822.2
784.6537939,18105.4
789.0854181,18081.8
793.510342,17987.6
797.9285769,18618.4
802.3401342,18073.4
806.7450253,18300.4
811.1432614,18235.8
815.5348538,18023.4
819.9198139,17597
824.2981531,17943.4
828.6698824,17893.2
833.0350133,17652.2
837.393557,17386.2
841.7455248,17839
846.0909278,17567.4
850.4297774,17496.8
854.7620848,17550
859.0878611,17734.2
863.4071176,17149.4
867.7198655,17666
872.026116,17998.4
876.3258802,18225.4
880.6191693,17825.6
884.9059946,17775.6
889.186367,18242.2
893.4602979,17214.6
897.7277982,17059.6
901.9888793,17344.2
906.2435521,17912
910.4918277,17343.2
914.7337174,17267.4
918.9692321,17174.4
923.1983831,17782.4
927.4211813,17435.4
931.6376378,18121.6
935.8477637,17496.8
940.0515701,17692.2
944.249068,17796.4
948.4402684,16912
952.6251825,17745.2
956.8038212,17459.2
960.9761955,18073.6
965.1423166,17469.2
969.3021953,17639.4
973.4558427,17660.6
977.6032699,17347.2
981.7444877,17372.2
985.8795072,17440
990.0083394,17506.2
994.1309953,17185.8
998.2474857,17615.4
1002.357822,16781.2
1006.462014,17406.8
1010.560075,17058.2
1014.652013,17344.4
1018.737841,17651.6
1022.81757,16982.2
1026.891209,16999.8
1030.958771,16860.4
1035.020266,17010.8
1039.075705,16952.2
1043.1251,16609.4
1047.16846,16777
1051.205797,16809.6
1055.237121,16423.6
1059.262444,16554.8
1063.281777,16533.6
1067.295131,17133.6
1071.302515,18984.6
1075.303942,19183
1079.299422,20217.2
1083.288966,19383.8
1087.272585,18100
1091.250289,17516
1095.222091,17167.2
1099.187999,16574
1103.148026,16690.4
1107.102183,16523.8
1111.050479,16615.6
1114.992927,16505.8
1118.929536,16382.8
1122.860318,16695.2
1126.785283,16426.6
1130.704443,16303.2
1134.617808,17151.8
1138.52539,17167.4
1142.427198,17044.6
1146.323244,17014.8
1150.213538,16624.8
1154.098093,16816.4
1157.976917,16145.4
1161.850023,16083.6
1165.717421,16626.6
1169.579121,16345.6
1173.435135,16824.2
1177.285474,16262
1181.130148,16458.2
1184.969169,16781.6
1188.802547,16410.6
1192.630292,15956.4
1196.452416,15574.4
1200.26893,15662
1204.079844,15358.4
1207.88517,15011
1211.684917,15707.4
1215.479098,15230.6
1219.267722,16681
1223.050801,15233.4
1226.828346,15290.6
1230.600366,15463.6
1234.366874,15514
1238.12788,15268.4
1241.883395,15425
1245.633429,15602.4
1249.377994,15660
1253.1171,14910.4
1256.850759,15410.4
1260.578981,15379.2
1264.301776,15162.2
1268.019157,15227.4
1271.731133,14969.4
1275.437715,14768.8
1279.138915,15354.2
1282.834743,15505
1286.52521,15052.4
1290.210328,14860.4
1293.890106,14975.6
1297.564555,15365.6
1301.233688,14868.8
1304.897514,15164.6
1308.556044,15208
1312.209289,15172
1315.857261,14704
1319.499969,14706
1323.137425,15549.2
1326.769641,15057.6
1330.396626,15588.6
1334.018391,15040.6
1337.634948,15105.2
1341.246307,14797.2
1344.85248,14780.6
1348.453477,14711.2
1352.049309,14657.2
1355.639987,14725.6
1359.225522,15332.4
1362.805925,14787
1366.381207,14880.8
1369.951379,14893.8
1373.516452,15004
1377.076436,15201.6
1380.631343,14996.2
1384.181184,14905
1387.725969,15161.8
1391.26571,14738.8
1394.800417,14577.8
1398.330102,14648.8
1401.854776,14850.8
1405.374448,14556.4
1408.889132,14203.4
1412.398837,13917.2
1415.903574,14213.4
1419.403355,14847.4
1422.89819,14545
1426.388091,14546.6
1429.873069,15103.8
1433.353134,14487.4
1436.828298,14492
1440.298571,14614
1443.763965,14335.8
1447.224491,14024.6
1450.68016,13948.4
1454.130983,14404
1457.576971,14325.2
1461.018135,14551.4
1464.454486,14576.2
1467.886036,14163.2
1471.312794,14178
1474.734774,13814
1478.151985,14437.4
1481.564439,14250.6
1484.972146,14183.6
1488.375119,13653.8
1491.773368,14080.6
1495.166904,14612.4
1498.555739,13862.2
1501.939883,13906.4
1505.319349,13535.8
1508.694146,13894
1512.064286,13964.8
1515.429781,13874.6
1518.790642,13702.8
1522.146879,13868.8
1525.498505,13438.2
1528.845529,13455
1532.187965,14147.2
1535.525822,13849.8
1538.859112,13737.4
1542.187846,14415.2
1545.512036,13612.2
1548.831693,14931.6
1552.146829,14331.8
1555.457453,13719
1558.763579,13431.2
1562.065216,13814.2
1565.362377,14211
1568.655073,14463.6
1571.943315,14439
1575.227114,14445.8
1578.506482,14455.4
1581.781431,15001.2
1585.051971,14737.4
1588.318114,14859.8
1591.579872,14719.6
1594.837255,14219.6
1598.090275,13783.8
1601.338945,13707.6
1604.583274,13891.2
1607.823275,13514.2
1611.058959,13067.4
1614.290338,13773.2
1617.517422,12997.8
1620.740224,13247.6
1623.958755,12979.4
1627.173027,13010.8
1630.38305,12767.4
1633.588838,13044.8
1636.7904,12791.6
1639.987749,12840.2
1643.180896,13182.2
1646.369853,12519.4
1649.554632,13313
1652.735244,12665
1655.9117,12285.8
1659.084013,12728
1662.252193,13214.8
1665.416254,12476.8
1668.576205,12714
1671.732059,12813
1674.883828,12864.8
1678.031523,12479.2
1681.175157,12555
1684.314739,12516.6
1687.450284,12564.8
1690.581801,12323.8
1693.709304,12223.2
1696.832803,12342
1699.952311,12534.6
1703.067839,12435.6
1706.179399,12397.8
1709.287003,12784.8
1712.390663,12346.6
1715.49039,12456.4
1718.586197,12795.2
1721.678095,12614.6
1724.766096,12582.8
1727.850213,12075.2
1730.930456,12297.6
1734.006838,12171.4
1737.079372,12519.2
1740.148067,12109.4
1743.212938,13069
1746.273996,12309.4
1749.331252,12226
1752.384718,12204.4
1755.434408,12274.6
1758.480332,12341.2
1761.522503,12181.8
1764.560933,12126.2
1767.595634,11821.8
1770.626618,12409.8
1773.653896,12461.8
1776.677482,12084.6
1779.697388,11973
1782.713625,12508.6
1785.726205,12488.6
1788.735141,12481
1791.740445,12045.4
1794.742129,11947.6
1797.740206,12375.2
1800.734687,12336.8
1803.725585,12227.6
1806.712912,12192
1809.69668,11854.2
1812.676902,11962
1815.65359,11680.6
1818.626756,11740.6
1821.596413,11941
1824.562573,11637.6
1827.525247,11913.2
1830.48445,11751
1833.440192,11934.6
1836.392487,11853.4
1839.341347,12034
1842.286784,12078
1845.22881,11607.4
1848.167439,12080.6
1851.102682,11778
1854.034553,11857.4
1856.963063,11692.4
1859.888226,12561.4
1862.810053,12031.2
1865.728557,11878.2
1868.643751,11584
1871.555648,11662
1874.46426,11389.4
1877.369599,11940.4
1880.271679,11778
1883.170512,11643.4
1886.06611,12077.4
1888.958487,11847.4
1891.847655,11726.6
1894.733626,11893.2
1897.616414,12012.2
1900.496032,11568.2
1903.372491,11810.6
1906.245805,12090.6
1909.115987,12085.2
1911.983049,11940
1914.847004,12027
1917.707866,11978
1920.565646,11989.4
1923.420359,11575.6
1926.272016,11886.2
1929.120631,11637.8
1931.966216,11774.2
1934.808786,11650
1937.648351,11982.2
1940.484927,11905.6
1943.318525,11992.8
1946.149158,12149.8
1948.97684,13139.4
1951.801584,12124.8
1954.623403,11917.4
1957.44231,12057.6
1960.258318,11506
1963.071439,11560.4
1965.881688,11742.4
1968.689078,11955.2
1971.493621,11668.6
