Ramanshift[cm-1],Intensity
-93.52472366,9039.8
-87.74731628,8266.4
-81.97888019,8112.6
-76.2193996,8270.6
-70.46885874,8205.8
-64.72724191,8122.2
-58.99453344,8121.2
-53.2707177,8245.8
-47.55577911,8371.4
-41.84970212,8191
-36.15247124,8611
-30.46407101,8753.4
-24.78448602,8437.6
-19.11370089,8513.6
-13.45170028,8245
-7.798468914,8107.4
-2.153991534,8075.8
3.481747071,8466.6
9.10876207,8097
14.72706859,8403.4
20.33668173,8075.2
25.93761654,8058.4
31.52988803,8382.6
37.11351116,8198.6
42.68850089,8071.6
48.25487209,8165.2
53.81263964,8056.6
59.36181834,7810.4
64.90242299,7829.8
70.43446832,8040.4
75.95796905,8093.2
81.47293984,7753.4
86.97939533,8065
92.47735012,8213.4
97.96681875,7841.6
103.4478158,8047.8
108.9203557,7869
114.3844529,7878
119.8401218,8004.4
125.2873769,8572.4
130.7262324,7887.4
136.1567027,7785.6
141.5788021,7732.4
146.9925448,8181.4
152.397945,7893.2
157.7950169,7908.6
163.1837747,7792.2
168.5642323,8022.8
173.936404,8235.2
179.3003038,7768.8
184.6559456,7940
190.0033435,8106.6
195.3425114,8210.6
200.6734632,7762.4
205.9962128,7785.4
211.310774,7692.6
216.6171607,7938.2
221.9153867,7732.4
227.2054656,7795.4
232.4874113,7834.8
237.7612375,7762.4
243.0269577,7909.8
248.2845856,7838.8
253.5341349,7711.6
258.7756191,7757.4
264.0090518,7846.4
269.2344464,7949.2
274.4518165,8054.8
279.6611755,7830.4
284.8625368,7785.8
290.0559139,7883.6
295.2413201,8426.4
300.4187688,9681.6
305.5882733,10619
310.7498468,11547
315.9035027,12277
321.0492541,12464
326.1871143,12585.2
331.3170964,12702.2
336.4392137,12777
341.5534792,12871.6
346.659906,12723
351.7585072,12935.6
356.8492959,12704.2
361.932285,12868.6
367.0074876,12994.2
372.0749167,12868.4
377.1345851,12984.4
382.1865058,12723.4
387.2306918,12649.6
392.2671558,12783.4
397.2959107,12510
402.3169694,12729.2
407.3303446,12606
412.3360492,12641.2
417.3340958,12316.4
422.3244971,12496.4
427.307266,12497.4
432.2824151,12827.8
437.2499569,12915.2
442.2099043,12846.4
447.1622697,12407
452.1070657,12520.6
457.044305,12570
461.9740001,12199
466.8961635,12493.4
471.8108076,12037.4
476.717945,12455.8
481.6175882,12422
486.5097495,12533.8
491.3944414,12458
496.2716763,12338
501.1414665,12359.4
506.0038244,12692.8
510.8587623,12320.6
515.7062925,12116.2
520.5464274,12345.8
525.3791792,12259.4
530.2045601,12265.6
535.0225824,11981.6
539.8332583,12128
544.6366,12240.4
549.4326196,12002
554.2213293,12723.2
559.0027413,12126.6
563.7768676,11928.4
568.5437204,12615.2
573.3033118,12375.4
578.0556537,12113
582.8007583,12306.8
587.5386375,12287
592.2693034,12084.6
596.9927679,12083
601.7090431,12328.2
606.4181409,11997.6
611.1200732,11960.6
615.814852,12047.8
620.5024891,12281
625.1829965,11991.8
629.8563859,12363.8
634.5226693,12347.4
639.1818586,11921.6
643.8339654,11936.6
648.4790017,11814.4
653.1169792,11890.2
657.7479097,11919.6
662.3718049,11520.4
666.9886767,11716.8
671.5985366,11782.4
676.2013965,11922.2
680.7972681,11848.2
685.386163,11746.4
689.9680928,11912.6
694.5430693,11704.2
699.1111041,12121.2
703.6722088,11805.8
708.226395,11887
712.7736744,11958.2
717.3140584,11815
721.8475588,11800
726.3741869,11359.6
730.8939545,11798.4
735.406873,11684.4
739.9129539,11944.8
744.4122087,11604.6
748.9046489,11632
753.3902861,11366.2
757.8691316,11301.8
762.341197,11576.8
766.8064936,11359.8
771.265033,12191.2
775.7168264,11447.6
780.1618854,11735
784.6002213,11259.6
789.0318455,11279.2
793.4567694,11202.6
797.8750043,11585
802.2865616,11052
806.6914527,11245
811.0896888,11238.4
815.4812812,11167
819.8662414,10984.2
824.2445805,11061.6
828.6163098,11190
832.9814407,11042.8
837.3399844,10836.4
841.6919522,11147.2
846.0373552,10941.4
850.3762048,11040.4
854.7085122,11026
859.0342885,11273.2
863.353545,10769.2
867.6662929,11095
871.9725434,11171.4
876.2723076,11499
880.5655967,11171.8
884.852422,11140.6
889.1327944,11465.6
893.4067253,10744.8
897.6742257,10713.4
901.9353067,10993.4
906.1899795,11127.4
910.4382551,10789.6
914.6801448,10839.2
918.9156596,10666
923.1448105,11052.2
927.3676087,10823.6
931.5840652,11278.2
935.7941911,10874.2
939.9979975,10921.8
944.1954954,11082.6
948.3866958,10436.8
952.5716099,11011.4
956.7502486,10737.6
960.9226229,11128.4
965.088744,10820.6
969.2486227,10935
973.4022701,10835.4
977.5496973,10726
981.6909151,10828.8
985.8259346,10668.4
989.9547668,10869.4
994.0774227,10644.8
998.1939132,10886.4
1002.304249,10399.6
1006.408442,10708
1010.506502,10401
1014.598441,10731.6
1018.684269,11078.8
1022.763997,10633.2
1026.837637,10596
1030.905199,10472.6
1034.966694,10701.4
1039.022133,10560.6
1043.071527,10341
1047.114887,10541.4
1051.152224,10509.6
1055.183549,10360.6
1059.208872,10407
1063.228205,10165
1067.241558,10088
1071.248943,10615
1075.250369,10267.6
1079.245849,10796.4
1083.235393,10460.2
1087.219012,10486.4
1091.196717,10561.8
1095.168518,10717
1099.134427,10378.2
1103.094454,10438
1107.04861,10360.6
1110.996907,10568.4
1114.939354,10513
1118.875963,10373.2
1122.806745,10637
1126.731711,10266
1130.650871,10088.8
1134.564236,10584.6
1138.471817,10443.8
1142.373625,10386.4
1146.269671,10452.8
1150.159966,10214.8
1154.04452,10478.4
1157.923344,10021.2
1161.79645,10057.4
1165.663848,10347.6
1169.525549,10185.6
1173.381563,10484
1177.231902,9793.2
1181.076576,9899.6
1184.915596,10053
1188.748974,10099.4
1192.576719,9892.6
1196.398844,9812.2
1200.215357,9917.8
1204.026272,9736.2
1207.831597,9457.6
1211.631345,9955
1215.425525,9595.8
1219.21415,10749.8
1222.997229,9758.2
1226.774773,9686.4
1230.546794,9862.6
1234.313302,9834.4
1238.074307,9621.6
1241.829822,9831.4
1245.579857,9880.4
1249.324421,9840
1253.063528,9387
1256.797186,9739.8
1260.525408,9636.8
1264.248204,9701.4
1267.965584,9671.4
1271.67756,9501.4
1275.384142,9411.4
1279.085342,9736.8
1282.781171,9886
1286.471638,9622.2
1290.156755,9531.8
1293.836533,9608.4
1297.510983,9886.8
1301.180115,9481.2
1304.843941,9669.6
1308.502471,9572.6
1312.155716,9675.4
1315.803688,9351.6
1319.446396,9466.8
1323.083853,9849.4
1326.716068,9569.6
1330.343053,9925.6
1333.964818,9566
1337.581375,9676.6
1341.192735,9512.2
1344.798907,9355.2
1348.399904,9290.4
1351.995736,9255.4
1355.586415,9394.4
1359.17195,9721.4
1362.752353,9431
1366.327635,9375
1369.897807,9508.8
1373.462879,9678.4
1377.022864,9656.8
1380.577771,9486.4
1384.127611,9266.2
1387.672397,9404.6
1391.212137,9215.2
1394.746845,9165.4
1398.27653,9244
1401.801203,9423
1405.320876,9442.6
1408.835559,9123.8
1412.345264,9016.2
1415.850001,9093
1419.349782,9497.8
1422.844618,9208.2
1426.334519,9074.6
1429.819496,9463.2
1433.299561,9065.8
1436.774725,9212.8
1440.244998,9364
1443.710393,9130
1447.170919,9030.6
1450.626588,9047.4
1454.07741,9337.4
1457.523398,9325
1460.964562,9422
1464.400914,9317.6
1467.832463,9201
1471.259222,9119.6
1474.681201,8904.8
1478.098412,9317.4
1481.510866,9134.2
1484.918574,9102.4
1488.321546,8942.8
1491.719795,9108.4
1495.113332,9478.6
1498.502166,9099.4
1501.886311,9037.2
1505.265776,8719
1508.640573,8978.4
1512.010714,9036.2
1515.376209,8965.2
1518.737069,8992.2
1522.093306,9011.2
1525.444932,8838.6
1528.791957,8788.4
1532.134392,9245.2
1535.472249,8929.4
1538.805539,8918
1542.134274,9324.2
1545.458464,8661.8
1548.778121,9603
1552.093256,9181
1555.403881,8746.8
1558.710006,8485
1562.011644,8811.2
1565.308805,8881.6
1568.6015,9054.4
1571.889742,8833
1575.173542,8839.6
1578.45291,8772.4
1581.727858,8961
1584.998398,8798.8
1588.264541,8832.2
1591.526299,8695
1594.783682,8735
1598.036703,8672.8
1601.285372,8767.4
1604.529701,9094.6
1607.769702,8936
1611.005386,8723.8
1614.236765,9250.2
1617.463849,8659
1620.686651,8833
1623.905183,8549.4
1627.119454,8630.6
1630.329478,8398
1633.535265,8668.8
1636.736827,8556.2
1639.934176,8539.4
1643.127324,8654.6
1646.316281,8345.4
1649.50106,8818.4
1652.681671,8470.8
1655.858128,8193.4
1659.03044,8448.8
1662.198621,8876.2
1665.362681,8328
1668.522632,8533.2
1671.678487,8644.8
1674.830256,8726
1677.977951,8493.8
1681.121584,8450.4
1684.261167,8615.6
1687.396711,8493.4
1690.528229,8394.4
1693.655731,8384.8
1696.779231,8369.2
1699.898738,8549.4
1703.014266,8489.4
1706.125826,8362.6
1709.23343,8775.2
1712.33709,8485.6
1715.436818,8547.4
1718.532624,8664
1721.624522,8676.4
1724.712524,8703.8
1727.79664,8342.2
1730.876884,8493
1733.953266,8304.4
1737.025799,8634.6
1740.094495,8253.4
1743.159366,9007.2
1746.220423,8396.2
1749.277679,8389.8
1752.331146,8479.2
1755.380835,8476.8
1758.42676,8411.4
1761.468931,8451.4
1764.50736,8319.2
1767.542061,8139
1770.573045,8583.4
1773.600324,8523.6
1776.62391,8309.8
1779.643815,8322.6
1782.660052,8641.4
1785.672632,8602.6
1788.681568,8544.6
1791.686873,8302.4
1794.688557,8171.4
1797.686633,8440.4
1800.681115,8472.6
1803.672013,8367
1806.65934,8324.2
1809.643108,8148.6
1812.62333,8280.2
1815.600018,8153.6
1818.573184,8250.2
1821.542841,8299
1824.509,8013.8
1827.471675,8220.2
1830.430877,8148.8
1833.38662,8242.2
1836.338914,8197.8
1839.287774,8291.4
1842.233211,8313
1845.175238,7930.2
1848.113866,8400.6
1851.04911,8189.8
1853.98098,8314.8
1856.909491,8051
1859.834653,8669
1862.75648,8342
1865.674985,8217.6
1868.590179,7986.2
1871.502076,8084
1874.410687,7960
1877.316027,8218.8
1880.218107,8134.2
1883.116939,8071
1886.012538,8333.6
1888.904914,8087.8
1891.794082,8070.6
1894.680054,8283.2
1897.562842,8305.8
1900.442459,7971.4
1903.318918,8120
1906.192232,8363.2
1909.062414,8412.6
1911.929476,8340.2
1914.793432,8302.4
1917.654293,8383
1920.512074,8297.8
1923.366786,8008.4
1926.218443,8207.4
1929.067058,8142
1931.912644,8121.4
1934.755213,8098.6
1937.594779,8355.8
1940.431354,8199.4
1943.264952,8263.8
1946.095586,8359.2
1948.923268,8997
1951.748012,8314.4
1954.569831,8290.2
1957.388737,8293.8
1960.204745,7978.8
1963.017867,8033
1965.828116,8182.2
1968.635505,8291.6
1971.440049,8073.2
