Ramanshift[cm-1],Intensity
-93.47115107,17308.2
-87.69374369,15848.2
-81.9253076,15680.4
-76.16582701,15717.2
-70.41528615,15952
-64.67366933,15595.2
-58.94096086,15517.8
-53.21714512,15663.4
-47.50220652,15840.8
-41.79612954,15937.8
-36.09889866,16297.4
-30.41049843,16265.8
-24.73091343,15977.8
-19.0601283,15997
-13.39812769,15766.6
-7.744896327,15539.4
-2.100418946,15296.6
3.535319659,16021.6
9.162334658,15274.8
14.78064118,15708.6
20.39025432,15251
25.99118913,15345.8
31.58346061,15857.4
37.16708375,15618.2
42.74207347,15210.8
48.30844468,15173.4
53.86621222,15045.8
59.41539093,14723.8
64.95599558,14638.8
70.48804091,15110.8
76.01154164,15232.4
81.52651243,14553.4
87.03296792,15113.4
92.5309227,15499.8
98.02039134,14709.2
103.5013884,14930.4
108.9739282,14815.2
114.4380255,14942.6
119.8936944,15014.4
125.3409495,15926.4
130.779805,14758
136.2102753,14481.8
141.6323747,14500.4
147.0461174,15090
152.4515176,14623.4
157.8485895,14556.4
163.2373472,14367.8
168.6178049,14839.8
173.9899766,15194.2
179.3538764,14682.6
184.7095182,14714
190.0569161,14987.2
195.396084,15074.6
200.7270358,14425.2
206.0497854,14496
211.3643466,14254.2
216.6707333,14636
221.9689593,14214.6
227.2590382,14472
232.5409839,14355.4
237.8148101,14277.8
243.0805303,14351.4
248.3381582,14391.8
253.5877075,14152.2
258.8291917,14395
264.0626244,14415
269.288019,14745.8
274.5053891,14795.4
279.7147481,14645
284.9161094,14606
290.1094865,15888.6
295.2948927,19665.4
300.4723414,28187
305.6418459,39309.2
310.8034194,49107.6
315.9570752,55028.4
321.1028267,56877.8
326.2406869,57910.6
331.370669,59041.8
336.4927863,60078.4
341.6070517,61239.4
346.7134786,62161.6
351.8120798,62967
356.9028684,62812.8
361.9858576,62416.4
367.0610602,62837.4
372.1284892,62148.6
377.1881577,62016.2
382.2400784,61773.4
387.2842644,61597.2
392.3207284,61886.6
397.3494833,61856.8
402.370542,62553.2
407.3839172,62319.8
412.3896217,61674.6
417.3876683,61265.8
422.3780697,61489.4
427.3608386,61667.4
432.3359876,61800.2
437.3035295,61364
442.2634769,61628.4
447.2158423,60337.8
452.1606383,60534.8
457.0978776,60632.8
462.0275727,60073.6
466.9497361,60252
471.8643802,59529.2
476.7715176,60280
481.6711608,60298.2
486.5633221,60944.6
491.448014,60672.6
496.3252488,60421.2
501.195039,60648.4
506.0573969,60599.2
510.9123349,59964.2
515.7598651,59289.2
520.6,59392.4
525.4327518,59164.8
530.2581327,59097.6
535.076155,58071
539.8868309,58354.4
544.6901726,58019.2
549.4861922,57770.6
554.2749019,58639.2
559.0563139,57548.2
563.8304402,57486
568.597293,58223
573.3568844,57971.2
578.1092263,57489.4
582.8543308,57906.4
587.5922101,58155.6
592.322876,57329
597.0463405,57767.6
601.7626157,57916.8
606.4717135,57194.6
611.1736458,57396.2
615.8684246,56931.2
620.5560617,57382.8
625.2365691,56900.4
629.9099585,56958.2
634.5762419,56625.2
639.2354312,56224.6
643.887538,56055
648.5325743,55800.6
653.1705518,55953.2
657.8014823,56198.4
662.4253775,55447.4
667.0422493,55854
671.6521092,55732
676.2549691,55541.8
680.8508407,55508
685.4397355,55316.4
690.0216654,55410
694.5966419,55241.6
699.1646767,55605.2
703.7257814,55230.4
708.2799676,55076.4
712.827247,55209.8
717.367631,55026.4
721.9011314,54662.4
726.4277595,54119.2
730.9475271,54494.2
735.4604456,54216.4
739.9665264,54443.2
744.4657813,54333.2
748.9582215,53686.6
753.4438587,52577
757.9227042,52302.4
762.3947696,52669.8
766.8600662,51714.4
771.3186056,52967.4
775.770399,51582.4
780.215458,51699.8
784.6537939,50628.6
789.0854181,50625
793.510342,50190.8
797.9285769,50627.4
802.3401342,49869.2
806.7450253,49905.6
811.1432614,49451.2
815.5348538,48846.6
819.9198139,48282.2
824.2981531,48341.6
828.6698824,48311.4
833.0350133,47869.2
837.393557,47270.8
841.7455248,47774
846.0909278,47010.6
850.4297774,47452.4
854.7620848,47206
859.0878611,47633.4
863.4071176,47103.4
867.7198655,47766.4
872.026116,48142.8
876.3258802,48356.4
880.6191693,47737.8
884.9059946,47499.4
889.186367,47770.8
893.4602979,46184
897.7277982,46045.6
901.9888793,46937.6
906.2435521,47335.2
910.4918277,46623.8
914.7337174,46899.4
918.9692321,46595
923.1983831,47530.6
927.4211813,46708.8
931.6376378,47737
935.8477637,47074.2
940.0515701,47407.4
944.249068,47501.6
948.4402684,46757.2
952.6251825,47515.4
956.8038212,47288
960.9761955,48050
965.1423166,47578.8
969.3021953,47684.6
973.4558427,47624.6
977.6032699,47595.8
981.7444877,47528.6
985.8795072,47522.8
990.0083394,47560
994.1309953,47202
998.2474857,47850.8
1002.357822,46842.6
1006.462014,47699.2
1010.560075,47459
1014.652013,47771.8
1018.737841,48130.4
1022.81757,47595
1026.891209,47446
1030.958771,47344.2
1035.020266,47713.4
1039.075705,47556.2
1043.1251,47338.4
1047.16846,47701.2
1051.205797,47509.6
1055.237121,47384.6
1059.262444,47136.4
1063.281777,47269
1067.295131,47877.8
1071.302515,49097
1075.303942,48317.2
1079.299422,49594.4
1083.288966,48947.4
1087.272585,48535.2
1091.250289,48396.6
1095.222091,48968.4
1099.187999,48381.8
1103.148026,48461.4
1107.102183,48838
1111.050479,49055.2
1114.992927,49179.6
1118.929536,49048.6
1122.860318,49606.2
1126.785283,49291.8
1130.704443,49411.2
1134.617808,50803.4
1138.52539,50985.4
1142.427198,51000.4
1146.323244,50751.4
1150.213538,50137.8
1154.098093,50663
1157.976917,49603.4
1161.850023,49504.2
1165.717421,49923.6
1169.579121,49639.2
1173.435135,50169.4
1177.285474,49201.8
1181.130148,49572.6
1184.969169,50068.4
1188.802547,50233.8
1192.630292,49674
1196.452416,49513.8
1200.26893,49813
1204.079844,49668
1207.88517,49072.8
1211.684917,49928.2
1215.479098,49496.6
1219.267722,51504
1223.050801,49779
1226.828346,50326
1230.600366,50471.6
1234.366874,50698.2
1238.12788,50740.6
1241.883395,51049
1245.633429,51002
1249.377994,51359.4
1253.1171,51000.6
1256.850759,51192.8
1260.578981,51376.4
1264.301776,51466.8
1268.019157,51711.4
1271.731133,51444
1275.437715,51635.4
1279.138915,52369.8
1282.834743,52892.2
1286.52521,52374.2
1290.210328,52212.8
1293.890106,52430.2
1297.564555,53501
1301.233688,52482.6
1304.897514,52900.2
1308.556044,53165.6
1312.209289,53389.6
1315.857261,53037.6
1319.499969,53089.4
1323.137425,54221.6
1326.769641,53579.2
1330.396626,54090.6
1334.018391,53521
1337.634948,53486.8
1341.246307,53329.2
1344.85248,53191.4
1348.453477,53260
1352.049309,52903.6
1355.639987,52852.8
1359.225522,53285.4
1362.805925,52410.4
1366.381207,52303.2
1369.951379,52631
1373.516452,52482.6
1377.076436,52433.6
1380.631343,52423.6
1384.181184,51721
1387.725969,51757.8
1391.26571,51323.4
1394.800417,50919.6
1398.330102,50919.4
1401.854776,51002.6
1405.374448,50421.8
1408.889132,50073
1412.398837,49548.2
1415.903574,49687
1419.403355,50413
1422.89819,50071.6
1426.388091,49853.2
1429.873069,50479.8
1433.353134,49864.2
1436.828298,49771
1440.298571,49337.8
1443.763965,48793.4
1447.224491,48284.8
1450.68016,48081.2
1454.130983,47898.2
1457.576971,47801.2
1461.018135,47840.4
1464.454486,47680.6
1467.886036,46932.2
1471.312794,46762.8
1474.734774,46232.6
1478.151985,46840
1481.564439,46368.8
1484.972146,45858.4
1488.375119,45340
1491.773368,45635.4
1495.166904,46069.2
1498.555739,45292.6
1501.939883,45291.2
1505.319349,44482.6
1508.694146,44848
1512.064286,44927.2
1515.429781,44849
1518.790642,44439.6
1522.146879,44686.2
1525.498505,43930.4
1528.845529,43652
1532.187965,44531.6
1535.525822,44340.2
1538.859112,44143
1542.187846,44820.2
1545.512036,43588.6
1548.831693,44665
1552.146829,43921.4
1555.457453,43378.2
1558.763579,42208.4
1562.065216,42970.8
1565.362377,42964.6
1568.655073,42908.6
1571.943315,42757.6
1575.227114,42453
1578.506482,42088
1581.781431,42374.6
1585.051971,41497.8
1588.318114,41255.2
1591.579872,40924.2
1594.837255,40331.6
1598.090275,39809.2
1601.338945,39611.8
1604.583274,39721.8
1607.823275,39155.8
1611.058959,38192.8
1614.290338,38198.4
1617.517422,36876.6
1620.740224,37086.8
1623.958755,36028.2
1627.173027,35615.8
1630.38305,34809
1633.588838,34583
1636.7904,34136.6
1639.987749,33898.2
1643.180896,33713.6
1646.369853,32415
1649.554632,33158
1652.735244,32066.6
1655.9117,31208.4
1659.084013,31239.4
1662.252193,31728.8
1665.416254,30575.8
1668.576205,30840
1671.732059,30632.6
1674.883828,30530.8
1678.031523,29647
1681.175157,29534.4
1684.314739,29373.4
1687.450284,29032.6
1690.581801,28900
1693.709304,28453
1696.832803,28403.6
1699.952311,28386.2
1703.067839,28476.2
1706.179399,28223.6
1709.287003,28463
1712.390663,28053.4
1715.49039,28016.4
1718.586197,28262
1721.678095,27942.8
1724.766096,27865.8
1727.850213,27047.8
1730.930456,27261.4
1734.006838,26962.2
1737.079372,27135.6
1740.148067,26460.2
1743.212938,27591.8
1746.273996,26628.4
1749.331252,26480.8
1752.384718,26222
1755.434408,26335.4
1758.480332,26210
1761.522503,26054.8
1764.560933,25664.2
1767.595634,25200.4
1770.626618,25838
1773.653896,25812.2
1776.677482,25198.6
1779.697388,25338.4
1782.713625,25840.2
1785.726205,25649.8
1788.735141,25766
1791.740445,25328.2
1794.742129,25103.6
1797.740206,25672.2
1800.734687,25637.8
1803.725585,25351.6
1806.712912,25239.8
1809.69668,24966.8
1812.676902,24976.2
1815.65359,24406.6
1818.626756,24604.6
1821.596413,24643.6
1824.562573,24359
1827.525247,24777
1830.48445,24423.6
1833.440192,24494
1836.392487,24201.8
1839.341347,24630.4
1842.286784,24330.8
1845.22881,23954.4
1848.167439,24643.4
1851.102682,24267
1854.034553,24239.4
1856.963063,23914.8
1859.888226,24793.6
1862.810053,24247.2
1865.728557,24053
1868.643751,23678.4
1871.555648,23733.8
1874.46426,23215.8
1877.369599,24063.8
1880.271679,23764.4
1883.170512,23554.6
1886.06611,24107.6
1888.958487,23840.2
1891.847655,23698.4
1894.733626,23733.2
1897.616414,23683.4
1900.496032,23271.2
1903.372491,23595
1906.245805,23862.8
1909.115987,23903.8
1911.983049,23789.8
1914.847004,23621.8
1917.707866,23755.4
1920.565646,23444.6
1923.420359,23102
1926.272016,23382.2
1929.120631,23057.6
1931.966216,23147.2
1934.808786,23043.4
1937.648351,23313
1940.484927,23228.6
1943.318525,23234.6
1946.149158,23646.8
1948.97684,24777.8
1951.801584,23360
1954.623403,23181.6
1957.44231,23318.4
1960.258318,22534.4
1963.071439,22594.4
1965.881688,22871.6
1968.689078,22959.4
1971.493621,22545
