Ramanshift[cm-1],Intensity
-93.47115107,13184.6
-87.69374369,11897.8
-81.9253076,11719.8
-76.16582701,11917
-70.41528615,11843
-64.67366933,11598.8
-58.94096086,11588.2
-53.21714512,11776.4
-47.50220652,11873.8
-41.79612954,11896.6
-36.09889866,12370.4
-30.41049843,12400.4
-24.73091343,12004.6
-19.0601283,12031.2
-13.39812769,11819.4
-7.744896327,11586.2
-2.100418946,11541.2
3.535319659,12109.2
9.162334658,11533.8
14.78064118,11735.8
20.39025432,11510.6
25.99118913,11488.8
31.58346061,11939
37.16708375,11746.6
42.74207347,11414
48.30844468,11488.4
53.86621222,11362
59.41539093,11086.4
64.95599558,10998.4
70.48804091,11425.2
76.01154164,11506.8
81.52651243,10949
87.03296792,11491.6
92.5309227,11746.2
98.02039134,11128.6
103.5013884,11253
108.9739282,11202.2
114.4380255,11230.6
119.8936944,11445.8
125.3409495,12204.6
130.779805,11146.6
136.2102753,10955.4
141.6323747,10990.6
147.0461174,11565.8
152.4515176,11161.4
157.8485895,11126.6
163.2373472,11005.2
168.6178049,11239.8
173.9899766,11545.8
179.3538764,11080.2
184.7095182,11204.4
190.0569161,11436.2
195.396084,11583.4
200.7270358,10992.8
206.0497854,11076
211.3643466,10799.2
216.6707333,11168.2
221.9689593,10802.4
227.2590382,11026.2
232.5409839,10881.2
237.8148101,10823.2
243.0805303,10957
248.3381582,10927
253.5877075,10811.6
258.8291917,10977.6
264.0626244,11022.6
269.288019,11255.6
274.5053891,11401.6
279.7147481,10992.8
284.9161094,10789.6
290.1094865,10920.4
295.2948927,11330.4
300.4723414,12291.8
305.6418459,12908.6
310.8034194,13374.2
315.9570752,14329.6
321.1028267,14578.8
326.2406869,14496
331.370669,14758.2
336.4927863,14707.8
341.6070517,14828
346.7134786,14666.6
351.8120798,14932.6
356.9028684,14520
361.9858576,14822.8
367.0610602,15075.4
372.1284892,14886.8
377.1881577,15441
382.2400784,15510
387.2842644,16040.8
392.3207284,16553.8
397.3494833,15847.2
402.370542,15852.6
407.3839172,15262.2
412.3896217,14646.8
417.3876683,14287.8
422.3780697,14340.8
427.3608386,14305.4
432.3359876,14598.6
437.3035295,14855.2
442.2634769,14965.6
447.2158423,14184.6
452.1606383,14332.2
457.0978776,14474.2
462.0275727,13845.8
466.9497361,14409.6
471.8643802,13833.4
476.7715176,14364.6
481.6711608,14270.2
486.5633221,14514.6
491.448014,14218
496.3252488,14055.2
501.195039,14230
506.0573969,14430.4
510.9123349,14223.4
515.7598651,13780.6
520.6,14142.2
525.4327518,14098.2
530.2581327,14272.6
535.076155,13721.8
539.8868309,14035
544.6901726,14242.6
549.4861922,13934
554.2749019,14847.2
559.0563139,13923.6
563.8304402,13714.2
568.597293,14614
573.3568844,14433.8
578.1092263,13895.4
582.8543308,14230.8
587.5922101,14309
592.322876,13918.2
597.0463405,13977.2
601.7626157,14326.8
606.4717135,13843
611.1736458,13791.4
615.8684246,13913.6
620.5560617,14226.6
625.2365691,13910.4
629.9099585,14402.2
634.5762419,14643
639.2354312,13940
643.887538,14112.6
648.5325743,13800.4
653.1705518,13817.6
657.8014823,13953.4
662.4253775,13373
667.0422493,13737.6
671.6521092,13797.6
676.2549691,13985.8
680.8508407,13929.2
685.4397355,13717
690.0216654,13982.8
694.5966419,13685.2
699.1646767,14336
703.7257814,13851.6
708.2799676,14004.8
712.827247,14113.6
717.367631,13800.6
721.9011314,13864.4
726.4277595,13241.4
730.9475271,13858.4
735.4604456,13736.6
739.9665264,14350.6
744.4657813,13741.2
748.9582215,13720.2
753.4438587,13400
757.9227042,13238.6
762.3947696,13708.8
766.8600662,13267.8
771.3186056,14665.2
775.770399,13669.2
780.215458,13984.6
784.6537939,13372.4
789.0854181,13244.4
793.510342,13368.8
797.9285769,13911.6
802.3401342,13468
806.7450253,13547.2
811.1432614,13370.2
815.5348538,13348.4
819.9198139,13075.2
824.2981531,13359
828.6698824,13426.6
833.0350133,13411.2
837.393557,13026
841.7455248,13359.8
846.0909278,13225
850.4297774,13076.4
854.7620848,13158.8
859.0878611,13434.8
863.4071176,12860.6
867.7198655,13394.2
872.026116,13593.2
876.3258802,14008
880.6191693,13530.2
884.9059946,13549.8
889.186367,14045.2
893.4602979,12958
897.7277982,12888.4
901.9888793,13227
906.2435521,13584.6
910.4918277,13026.4
914.7337174,13097.6
918.9692321,12937.6
923.1983831,13579.6
927.4211813,13241.6
931.6376378,13840.6
935.8477637,13296.8
940.0515701,13456
944.249068,13531.6
948.4402684,12797
952.6251825,13598.2
956.8038212,13154.4
960.9761955,13744.6
965.1423166,13208.4
969.3021953,13351.6
973.4558427,13291.4
977.6032699,13141.2
981.7444877,13354.4
985.8795072,13202.2
990.0083394,13251.2
994.1309953,13043
998.2474857,13428.6
1002.357822,12605.4
1006.462014,13163.2
1010.560075,12900.8
1014.652013,13170.4
1018.737841,13549.4
1022.81757,13033.6
1026.891209,13010.2
1030.958771,12736
1035.020266,13235.4
1039.075705,13034
1043.1251,12689.8
1047.16846,12971.2
1051.205797,12824.4
1055.237121,12620
1059.262444,12569.8
1063.281777,12435.8
1067.295131,12500.2
1071.302515,13684.2
1075.303942,13354
1079.299422,14251.8
1083.288966,13648.8
1087.272585,13224.2
1091.250289,13047
1095.222091,13009
1099.187999,12710
1103.148026,12866.2
1107.102183,12650.6
1111.050479,12824.8
1114.992927,12787.2
1118.929536,12682.2
1122.860318,12975.2
1126.785283,12407.8
1130.704443,12429.6
1134.617808,13095
1138.52539,12944.8
1142.427198,12837.6
1146.323244,12903.8
1150.213538,12620
1154.098093,13117.6
1157.976917,12419.6
1161.850023,12380
1165.717421,12952.2
1169.579121,12608.6
1173.435135,13027.6
1177.285474,12207.2
1181.130148,12414.8
1184.969169,12751.8
1188.802547,12608
1192.630292,12310.8
1196.452416,11988.2
1200.26893,12229.2
1204.079844,12024
1207.88517,11722.8
1211.684917,12279.4
1215.479098,11877.6
1219.267722,13457.6
1223.050801,11991.6
1226.828346,11935
1230.600366,12298.4
1234.366874,12353.4
1238.12788,12027.6
1241.883395,12092
1245.633429,12399.6
1249.377994,12412.2
1253.1171,11665
1256.850759,12037
1260.578981,11877.8
1264.301776,12077.2
1268.019157,11949.2
1271.731133,11729
1275.437715,11589.8
1279.138915,12115.8
1282.834743,12280.2
1286.52521,11900
1290.210328,11811.2
1293.890106,11869.6
1297.564555,12275.2
1301.233688,11778
1304.897514,12106
1308.556044,12178
1312.209289,12222.4
1315.857261,11705.2
1319.499969,11813.2
1323.137425,12546.8
1326.769641,11986
1330.396626,12608.2
1334.018391,11950.8
1337.634948,12132.2
1341.246307,11740.2
1344.85248,11771.4
1348.453477,11686.8
1352.049309,11626.4
1355.639987,11654
1359.225522,12202
1362.805925,11876.6
1366.381207,11948.8
1369.951379,11971.2
1373.516452,11993.4
1377.076436,12165.6
1380.631343,12012.4
1384.181184,11816.8
1387.725969,11932.4
1391.26571,11554.2
1394.800417,11569.4
1398.330102,11749.4
1401.854776,11903.8
1405.374448,11859.6
1408.889132,11457
1412.398837,11069.2
1415.903574,11580.6
1419.403355,11983.4
1422.89819,11544.8
1426.388091,11450.6
1429.873069,12063.6
1433.353134,11457.6
1436.828298,11447.2
1440.298571,11722
1443.763965,11501
1447.224491,11328.8
1450.68016,11463
1454.130983,11826
1457.576971,11746.8
1461.018135,12012
1464.454486,12091.6
1467.886036,11633.4
1471.312794,11645.8
1474.734774,11453.8
1478.151985,12064.2
1481.564439,11770.2
1484.972146,11691.4
1488.375119,11392
1491.773368,11735.6
1495.166904,12305.4
1498.555739,11637.2
1501.939883,11720.2
1505.319349,11336
1508.694146,11567.2
1512.064286,11657.2
1515.429781,11515.2
1518.790642,11499.2
1522.146879,11620.8
1525.498505,11162.4
1528.845529,11247.8
1532.187965,11909.6
1535.525822,11576.2
1538.859112,11552.2
1542.187846,12098.2
1545.512036,11302.8
1548.831693,12563.8
1552.146829,12012.4
1555.457453,11226.2
1558.763579,10984.6
1562.065216,11414.8
1565.362377,11606.4
1568.655073,11940.6
1571.943315,11659.6
1575.227114,11693.6
1578.506482,11581
1581.781431,12216.6
1585.051971,11796.8
1588.318114,11975.2
1591.579872,11898
1594.837255,11617
1598.090275,11469.2
1601.338945,11601.2
1604.583274,11763.4
1607.823275,11458.2
1611.058959,11091.6
1614.290338,12139.4
1617.517422,11033.6
1620.740224,11458.4
1623.958755,11036.8
1627.173027,11158.4
1630.38305,10816.4
1633.588838,11257.6
1636.7904,11135.6
1639.987749,11305.6
1643.180896,11488.2
1646.369853,10862.8
1649.554632,11612.2
1652.735244,11100.4
1655.9117,10759.8
1659.084013,11122.8
1662.252193,11737.2
1665.416254,10860.6
1668.576205,11127.4
1671.732059,11365
1674.883828,11508.8
1678.031523,10988.4
1681.175157,11055.4
1684.314739,11131.4
1687.450284,11000.8
1690.581801,10930.6
1693.709304,10829.6
1696.832803,10898.6
1699.952311,11128
1703.067839,11169.4
1706.179399,11101.8
1709.287003,11427
1712.390663,11047.2
1715.49039,11091.4
1718.586197,11565.6
1721.678095,11231.8
1724.766096,11314.2
1727.850213,10745.6
1730.930456,11121.6
1734.006838,10994.6
1737.079372,11141.6
1740.148067,10834.6
1743.212938,11886.2
1746.273996,11143.8
1749.331252,11009
1752.384718,11104.4
1755.434408,11117.2
1758.480332,11083
1761.522503,11130.2
1764.560933,10960.6
1767.595634,10649
1770.626618,11355.8
1773.653896,11252
1776.677482,11016
1779.697388,11044.2
1782.713625,11487.6
1785.726205,11452.4
1788.735141,11417.2
1791.740445,10895.4
1794.742129,10903.4
1797.740206,11343.8
1800.734687,11400.8
1803.725585,11110.2
1806.712912,11224.2
1809.69668,10876.6
1812.676902,10919.6
1815.65359,10698
1818.626756,10868.4
1821.596413,10988.8
1824.562573,10630
1827.525247,10973.4
1830.48445,10747
1833.440192,10872.6
1836.392487,10775.4
1839.341347,10975.4
1842.286784,11050.4
1845.22881,10641.2
1848.167439,11143.4
1851.102682,10899
1854.034553,10908
1856.963063,10777
1859.888226,11602.2
1862.810053,11047.8
1865.728557,10839.2
1868.643751,10693.8
1871.555648,10688.8
1874.46426,10494.8
1877.369599,11035.4
1880.271679,10787
1883.170512,10688.2
1886.06611,11253.2
1888.958487,10891.4
1891.847655,10829.2
1894.733626,10990.6
1897.616414,11109.2
1900.496032,10640
1903.372491,10921
1906.245805,11219.4
1909.115987,11328.4
1911.983049,11094.6
1914.847004,11002.4
1917.707866,11291
1920.565646,11185.4
1923.420359,10924.8
1926.272016,11052.8
1929.120631,10768.6
1931.966216,10975.2
1934.808786,10858.6
1937.648351,11186.4
1940.484927,11078.8
1943.318525,11197
1946.149158,11307.6
1948.97684,12405.2
1951.801584,11370.8
1954.623403,11189.4
1957.44231,11301.2
1960.258318,10829
1963.071439,10895.4
1965.881688,11004
1968.689078,11150.6
1971.493621,10959
