Ramanshift[cm-1],Intensity
-93.47115107,17286.2
-87.69374369,15847.4
-81.9253076,15606.4
-76.16582701,15892
-70.41528615,15904
-64.67366933,15464.8
-58.94096086,15601.6
-53.21714512,15690.2
-47.50220652,15774.8
-41.79612954,15955
-36.09889866,16274.2
-30.41049843,16402.4
-24.73091343,15987.2
-19.0601283,15901
-13.39812769,15822.6
-7.744896327,15536.2
-2.100418946,15330.2
3.535319659,16022
9.162334658,15238.2
14.78064118,15651
20.39025432,15256.2
25.99118913,15345.8
31.58346061,15833.6
37.16708375,15657.8
42.74207347,15147.6
48.30844468,15207.4
53.86621222,14974.2
59.41539093,14748.8
64.95599558,14641.6
70.48804091,15186.8
76.01154164,15300.6
81.52651243,14507.8
87.03296792,15065.8
92.5309227,15460.2
98.02039134,14713.6
103.5013884,15075.8
108.9739282,14765.6
114.4380255,14866
119.8936944,15039.6
125.3409495,15946.2
130.779805,14754
136.2102753,14434.8
141.6323747,14430.4
147.0461174,15262.8
152.4515176,14701.4
157.8485895,14587.8
163.2373472,14478.4
168.6178049,14781.4
173.9899766,15226.6
179.3538764,14827.6
184.7095182,14702.4
190.0569161,14916.8
195.396084,15115.4
200.7270358,14436.2
206.0497854,14518
211.3643466,14145.6
216.6707333,14555.8
221.9689593,14240.8
227.2590382,14419.4
232.5409839,14232.2
237.8148101,14320.8
243.0805303,14331.8
248.3381582,14481
253.5877075,14174.2
258.8291917,14334.4
264.0626244,14311.8
269.288019,14649.4
274.5053891,14795.8
279.7147481,14502.8
284.9161094,14581.8
290.1094865,15882.6
295.2948927,19534
300.4723414,28060.8
305.6418459,39026.8
310.8034194,48855.8
315.9570752,54804.2
321.1028267,56650.8
326.2406869,57714.6
331.370669,58644.4
336.4927863,59768
341.6070517,60770.6
346.7134786,61929.6
351.8120798,62397.2
356.9028684,62426.4
361.9858576,62005
367.0610602,62356.6
372.1284892,61677.4
377.1881577,61773.6
382.2400784,61340.8
387.2842644,61308.6
392.3207284,61690.2
397.3494833,61647
402.370542,62025.8
407.3839172,61984.2
412.3896217,61371
417.3876683,61048
422.3780697,61219.2
427.3608386,60828.2
432.3359876,61479.6
437.3035295,60906.2
442.2634769,61395.6
447.2158423,60106.8
452.1606383,60062.2
457.0978776,60176.8
462.0275727,59427.6
466.9497361,60114.6
471.8643802,59334.2
476.7715176,60051.2
481.6711608,60156.8
486.5633221,60368.4
491.448014,59940.2
496.3252488,60178.4
501.195039,60273.8
506.0573969,60315.4
510.9123349,59577.6
515.7598651,58979.2
520.6,59184.2
525.4327518,58753.4
530.2581327,58656.6
535.076155,57692.2
539.8868309,58141.6
544.6901726,57978
549.4861922,57320.8
554.2749019,58383
559.0563139,57148
563.8304402,56688.6
568.597293,58051.2
573.3568844,57606.6
578.1092263,56874.4
582.8543308,57343.4
587.5922101,57757.6
592.322876,57140.6
597.0463405,57317
601.7626157,57707.6
606.4717135,56988.4
611.1736458,56841
615.8684246,56577.8
620.5560617,57056.6
625.2365691,56539.6
629.9099585,56681
634.5762419,56478.6
639.2354312,55985.8
643.887538,55700
648.5325743,55604.4
653.1705518,55440.2
657.8014823,55876.6
662.4253775,54953.6
667.0422493,55403.6
671.6521092,55431.4
676.2549691,55392.4
680.8508407,55125.2
685.4397355,55090.8
690.0216654,55012.8
694.5966419,55010.2
699.1646767,55279.4
703.7257814,55118
708.2799676,54760.4
712.827247,54815
717.367631,54401.8
721.9011314,54585.4
726.4277595,53867.2
730.9475271,54198.8
735.4604456,53999.4
739.9665264,54171.8
744.4657813,53771.8
748.9582215,53097.8
753.4438587,52296.2
757.9227042,51786.8
762.3947696,52224.6
766.8600662,51253.8
771.3186056,52621.2
775.770399,51165.4
780.215458,51281.4
784.6537939,50466
789.0854181,50342.2
793.510342,49739.6
797.9285769,50342.8
802.3401342,49408
806.7450253,49333
811.1432614,49279.4
815.5348538,48506.2
819.9198139,47948.8
824.2981531,47872.2
828.6698824,47951.8
833.0350133,47432
837.393557,46889.6
841.7455248,47349.4
846.0909278,46859.4
850.4297774,47168
854.7620848,47114.6
859.0878611,47215.2
863.4071176,46823.4
867.7198655,47211.8
872.026116,47787.8
876.3258802,48034.8
880.6191693,47246
884.9059946,47178.2
889.186367,47399.8
893.4602979,45961.2
897.7277982,45642.2
901.9888793,46573.2
906.2435521,47172.6
910.4918277,46448.6
914.7337174,46634
918.9692321,46163.4
923.1983831,47000.6
927.4211813,46242.2
931.6376378,47274.6
935.8477637,46806.6
940.0515701,47046.4
944.249068,47099.4
948.4402684,46195.2
952.6251825,46973.8
956.8038212,46938.4
960.9761955,47876.8
965.1423166,47262.8
969.3021953,47430.8
973.4558427,47508
977.6032699,47083.2
981.7444877,47124.8
985.8795072,47365.6
990.0083394,47108.8
994.1309953,46993.2
998.2474857,47560
1002.357822,46437
1006.462014,47330
1010.560075,47178.6
1014.652013,47505.4
1018.737841,47918.6
1022.81757,47389
1026.891209,47206.4
1030.958771,46917
1035.020266,47351.2
1039.075705,47112
1043.1251,46963.8
1047.16846,47452.6
1051.205797,47396.2
1055.237121,47042
1059.262444,47107
1063.281777,47138.8
1067.295131,47573.6
1071.302515,49001
1075.303942,47863.2
1079.299422,49123
1083.288966,48631.6
1087.272585,48316.6
1091.250289,48311.6
1095.222091,48517.2
1099.187999,48221.4
1103.148026,48265.2
1107.102183,48525.2
1111.050479,48760.2
1114.992927,48844.8
1118.929536,48907.2
1122.860318,49738.4
1126.785283,48995.8
1130.704443,49499.8
1134.617808,50487.4
1138.52539,50838.4
1142.427198,50778.4
1146.323244,50113.6
1150.213538,49853.6
1154.098093,50250.6
1157.976917,49465.8
1161.850023,49201.2
1165.717421,49706.2
1169.579121,49392.4
1173.435135,50186
1177.285474,48991.4
1181.130148,49326.4
1184.969169,49768.2
1188.802547,49884.4
1192.630292,49466.6
1196.452416,49291
1200.26893,49392.8
1204.079844,49166.4
1207.88517,48644.2
1211.684917,49828.2
1215.479098,49427
1219.267722,51142.6
1223.050801,49702.2
1226.828346,49951.6
1230.600366,50337.2
1234.366874,50442.2
1238.12788,50364.4
1241.883395,50775.2
1245.633429,50738.2
1249.377994,51123.2
1253.1171,50723.2
1256.850759,50925.4
1260.578981,51086.4
1264.301776,51439.6
1268.019157,51461
1271.731133,51350.4
1275.437715,51437.6
1279.138915,51975
1282.834743,52702.2
1286.52521,52167.2
1290.210328,51939.6
1293.890106,52314.8
1297.564555,53012
1301.233688,52553
1304.897514,52854.2
1308.556044,53203.6
1312.209289,53389
1315.857261,52375.2
1319.499969,52870
1323.137425,53900.8
1326.769641,53229.8
1330.396626,53833
1334.018391,53207.4
1337.634948,53174.8
1341.246307,52974.8
1344.85248,52995.2
1348.453477,52973.8
1352.049309,52629.4
1355.639987,52589.8
1359.225522,53055
1362.805925,52252.8
1366.381207,52112
1369.951379,52092.6
1373.516452,52313.6
1377.076436,52151.6
1380.631343,51829.8
1384.181184,51355.2
1387.725969,51463.2
1391.26571,51131.8
1394.800417,50852
1398.330102,50607.4
1401.854776,50582
1405.374448,50153.2
1408.889132,49887.6
1412.398837,49272.4
1415.903574,49440
1419.403355,49967
1422.89819,49664
1426.388091,49459.6
1429.873069,50084.4
1433.353134,49380.8
1436.828298,49246
1440.298571,48803
1443.763965,48300.2
1447.224491,47652.8
1450.68016,47472.4
1454.130983,47430.8
1457.576971,47285.2
1461.018135,47297.2
1464.454486,47320.4
1467.886036,46595.8
1471.312794,46380.8
1474.734774,45700.2
1478.151985,46453.6
1481.564439,46101.6
1484.972146,45432.6
1488.375119,44664.2
1491.773368,45315.8
1495.166904,45531.8
1498.555739,44776.2
1501.939883,44925
1505.319349,44033.4
1508.694146,44570.2
1512.064286,44665
1515.429781,44632.2
1518.790642,44118.6
1522.146879,44143.2
1525.498505,43678.4
1528.845529,43406.2
1532.187965,44152
1535.525822,43934.2
1538.859112,43776.8
1542.187846,44307.6
1545.512036,43220.8
1548.831693,44280.6
1552.146829,43367
1555.457453,42839
1558.763579,42080.6
1562.065216,42760
1565.362377,42732
1568.655073,42806.6
1571.943315,42505
1575.227114,42093.2
1578.506482,41935.2
1581.781431,42102.2
1585.051971,41314.6
1588.318114,41133.6
1591.579872,40654.2
1594.837255,39910.4
1598.090275,39471.4
1601.338945,39395.8
1604.583274,39527.8
1607.823275,38893
1611.058959,37793.8
1614.290338,37977.2
1617.517422,36952.6
1620.740224,36940.2
1623.958755,35990.2
1627.173027,35299
1630.38305,34487.4
1633.588838,34612
1636.7904,33988.6
1639.987749,33861.4
1643.180896,33322.4
1646.369853,32228.8
1649.554632,32876
1652.735244,31892.8
1655.9117,31056.8
1659.084013,31084.8
1662.252193,31593.4
1665.416254,30278.8
1668.576205,30529.2
1671.732059,30457.6
1674.883828,30435.6
1678.031523,29560.6
1681.175157,29405.8
1684.314739,29399.2
1687.450284,29055.4
1690.581801,28709
1693.709304,28237.8
1696.832803,28269.2
1699.952311,28310.6
1703.067839,28238.6
1706.179399,28261.4
1709.287003,28311
1712.390663,27892.4
1715.49039,27788.8
1718.586197,27863.6
1721.678095,27669.4
1724.766096,27695.4
1727.850213,26792.2
1730.930456,26991.8
1734.006838,26720.4
1737.079372,26864.4
1740.148067,26311.8
1743.212938,27515
1746.273996,26465.2
1749.331252,26261.6
1752.384718,26168
1755.434408,26056.8
1758.480332,26038.8
1761.522503,25891.8
1764.560933,25538
1767.595634,24967
1770.626618,25685.6
1773.653896,25742.2
1776.677482,25088
1779.697388,24933.8
1782.713625,25740.2
1785.726205,25640.4
1788.735141,25645
1791.740445,25077
1794.742129,24882
1797.740206,25351
1800.734687,25683.2
1803.725585,25241.8
1806.712912,25026.8
1809.69668,24779.4
1812.676902,24797.8
1815.65359,24196.6
1818.626756,24268
1821.596413,24522.8
1824.562573,24059.8
1827.525247,24380.8
1830.48445,24261.4
1833.440192,24303
1836.392487,24189.6
1839.341347,24388
1842.286784,24296.8
1845.22881,23747
1848.167439,24566.6
1851.102682,24128.2
1854.034553,24039.8
1856.963063,23870.4
1859.888226,24713.6
1862.810053,24017.8
1865.728557,23948.6
1868.643751,23411.6
1871.555648,23689.4
1874.46426,23128.2
1877.369599,23828.8
1880.271679,23703.2
1883.170512,23453
1886.06611,24025.4
1888.958487,23683.2
1891.847655,23528.6
1894.733626,23628.2
1897.616414,23624.2
1900.496032,23079.2
1903.372491,23452
1906.245805,23770.2
1909.115987,23796.2
1911.983049,23584
1914.847004,23386.6
1917.707866,23657
1920.565646,23302.6
1923.420359,22978.8
1926.272016,23311.2
1929.120631,22863.6
1931.966216,23169.8
1934.808786,22940.6
1937.648351,23252.2
1940.484927,23124
1943.318525,23314.8
1946.149158,23488.6
1948.97684,24462.6
1951.801584,23303.2
1954.623403,23030.6
1957.44231,23190.2
1960.258318,22493.2
1963.071439,22494.8
1965.881688,22692.4
1968.689078,22896
1971.493621,22390.8
