Ramanshift[cm-1],Intensity
-93.47115107,15465
-87.69374369,14255.2
-81.9253076,14012.2
-76.16582701,14249.6
-70.41528615,14258.8
-64.67366933,13914.8
-58.94096086,13912.4
-53.21714512,14119.4
-47.50220652,14201.8
-41.79612954,14318.4
-36.09889866,14714.2
-30.41049843,14714.4
-24.73091343,14328.8
-19.0601283,14454
-13.39812769,14201
-7.744896327,14077
-2.100418946,13794
3.535319659,14367.6
9.162334658,13751.4
14.78064118,14169
20.39025432,13766.2
25.99118913,13830.6
31.58346061,14247.8
37.16708375,14041.4
42.74207347,13613
48.30844468,13688.4
53.86621222,13511.4
59.41539093,13226
64.95599558,13183
70.48804091,13719.2
76.01154164,13768
81.52651243,13124.6
87.03296792,13613
92.5309227,13928.4
98.02039134,13264
103.5013884,13559
108.9739282,13482.8
114.4380255,13370.8
119.8936944,13561.8
125.3409495,14293.4
130.779805,13343.4
136.2102753,13006.4
141.6323747,13064
147.0461174,13687.6
152.4515176,13224.6
157.8485895,13250.4
163.2373472,13153.4
168.6178049,13362.6
173.9899766,13686.8
179.3538764,13233.6
184.7095182,13362
190.0569161,13530.6
195.396084,13589
200.7270358,13044.2
206.0497854,13134.8
211.3643466,12807.2
216.6707333,13213
221.9689593,12912.2
227.2590382,13119.8
232.5409839,12970.4
237.8148101,12867.4
243.0805303,12961.2
248.3381582,12949.4
253.5877075,12800
258.8291917,13071.8
264.0626244,13032.6
269.288019,13359.6
274.5053891,13327.6
279.7147481,12955.6
284.9161094,12820.2
290.1094865,12984
295.2948927,13275.6
300.4723414,14141.8
305.6418459,14441.8
310.8034194,14924.6
315.9570752,15948
321.1028267,16199.4
326.2406869,16425.2
331.370669,16584.4
336.4927863,16747
341.6070517,16641.2
346.7134786,16559.8
351.8120798,16677.4
356.9028684,16346
361.9858576,16373.2
367.0610602,16846.8
372.1284892,16998.2
377.1881577,17966.2
382.2400784,19364.8
387.2842644,21646
392.3207284,23271.2
397.3494833,22576
402.370542,20965.4
407.3839172,18745
412.3896217,17472.6
417.3876683,16611.4
422.3780697,16331.4
427.3608386,16091.4
432.3359876,16181
437.3035295,16194.6
442.2634769,16197.8
447.2158423,15400.6
452.1606383,15528.8
457.0978776,15646.6
462.0275727,15044.8
466.9497361,15506.2
471.8643802,15160.2
476.7715176,15766
481.6711608,15943.2
486.5633221,16181
491.448014,16109.4
496.3252488,15970.4
501.195039,15905.8
506.0573969,16153.6
510.9123349,15748.8
515.7598651,15166.2
520.6,15684.8
525.4327518,15619.8
530.2581327,15679
535.076155,15122
539.8868309,15767.4
544.6901726,15960.6
549.4861922,15638.4
554.2749019,16446
559.0563139,15419.4
563.8304402,14969.2
568.597293,15890.2
573.3568844,15628
578.1092263,15176.6
582.8543308,15610
587.5922101,15540.8
592.322876,15068.4
597.0463405,15282.6
601.7626157,15664
606.4717135,15071.8
611.1736458,15160.6
615.8684246,15207.2
620.5560617,15512.2
625.2365691,15353.6
629.9099585,15807
634.5762419,16379.8
639.2354312,16015.6
643.887538,16305.4
648.5325743,15752.2
653.1705518,15544
657.8014823,15714.2
662.4253775,14998
667.0422493,15366.8
671.6521092,15392.2
676.2549691,15527.6
680.8508407,15397
685.4397355,15322.2
690.0216654,15402.4
694.5966419,15224
699.1646767,15781.4
703.7257814,15595.6
708.2799676,15771.4
712.827247,16187.2
717.367631,16052
721.9011314,16036
726.4277595,15276
730.9475271,15594.4
735.4604456,15459.4
739.9665264,15819
744.4657813,15367
748.9582215,15278.2
753.4438587,14686
757.9227042,14589.6
762.3947696,15085.6
766.8600662,14552.6
771.3186056,15993.8
775.770399,15071.8
780.215458,15339.4
784.6537939,14778.2
789.0854181,14606.6
793.510342,14701.6
797.9285769,15397.4
802.3401342,14923.6
806.7450253,15122
811.1432614,15082.4
815.5348538,15064
819.9198139,14752.4
824.2981531,15029.8
828.6698824,15190.8
833.0350133,14997
837.393557,14693.2
841.7455248,14915
846.0909278,14824.6
850.4297774,14721.4
854.7620848,14640
859.0878611,14908.2
863.4071176,14226.2
867.7198655,14725.6
872.026116,15193
876.3258802,15486.2
880.6191693,15024.4
884.9059946,14996.8
889.186367,15336.4
893.4602979,14284
897.7277982,14199.2
901.9888793,14789.2
906.2435521,15018.8
910.4918277,14386.4
914.7337174,14562
918.9692321,14343.2
923.1983831,14943.4
927.4211813,14647
931.6376378,15458.6
935.8477637,14871.4
940.0515701,14969.4
944.249068,15022.8
948.4402684,14223.4
952.6251825,15109.4
956.8038212,14646.4
960.9761955,15272
965.1423166,14863.2
969.3021953,14856.6
973.4558427,14777
977.6032699,14643.2
981.7444877,14840.4
985.8795072,14876.4
990.0083394,14860.2
994.1309953,14613
998.2474857,15262.6
1002.357822,14968
1006.462014,16083
1010.560075,15952.8
1014.652013,15805
1018.737841,15574.2
1022.81757,14873.4
1026.891209,14678.6
1030.958771,14588.4
1035.020266,14931.2
1039.075705,14705.4
1043.1251,14505.6
1047.16846,15035.2
1051.205797,15091.4
1055.237121,14998.6
1059.262444,15411.6
1063.281777,16125.2
1067.295131,17722
1071.302515,21140.2
1075.303942,23185.6
1079.299422,25945.6
1083.288966,25571.8
1087.272585,22767
1091.250289,19765.4
1095.222091,17385.4
1099.187999,15771.4
1103.148026,15474.4
1107.102183,15106.4
1111.050479,15209.2
1114.992927,15224
1118.929536,15153.6
1122.860318,15927.4
1126.785283,15843.8
1130.704443,16999.4
1134.617808,19334
1138.52539,21450
1142.427198,22805.2
1146.323244,22774.2
1150.213538,20825.2
1154.098093,19234.2
1157.976917,16999.2
1161.850023,15765.8
1165.717421,15892.8
1169.579121,15395.8
1173.435135,15850
1177.285474,15105.6
1181.130148,15564.8
1184.969169,16244.8
1188.802547,16310.2
1192.630292,15924.4
1196.452416,15483.2
1200.26893,15155.2
1204.079844,14337.8
1207.88517,13822
1211.684917,14177
1215.479098,13780
1219.267722,15120.2
1223.050801,13808.4
1226.828346,13891.4
1230.600366,14141.8
1234.366874,14111.8
1238.12788,13901.8
1241.883395,13895.6
1245.633429,14269
1249.377994,14288.6
1253.1171,13481.2
1256.850759,13989
1260.578981,13979
1264.301776,14028.8
1268.019157,13932.8
1271.731133,13743.8
1275.437715,13639.2
1279.138915,14222.4
1282.834743,14430.8
1286.52521,13928.6
1290.210328,13805.2
1293.890106,13912.4
1297.564555,14527.8
1301.233688,14168.8
1304.897514,14586
1308.556044,14831.2
1312.209289,14629.2
1315.857261,14158.4
1319.499969,14044.4
1323.137425,14798.2
1326.769641,14280
1330.396626,14704.2
1334.018391,14169.2
1337.634948,14208.6
1341.246307,13868.8
1344.85248,13736.4
1348.453477,13802.2
1352.049309,13860.6
1355.639987,14150.2
1359.225522,14840
1362.805925,14598.8
1366.381207,14848.2
1369.951379,14911.2
1373.516452,15188.2
1377.076436,15673.8
1380.631343,15862.6
1384.181184,16427.4
1387.725969,17265
1391.26571,17446.6
1394.800417,17211.2
1398.330102,16634.6
1401.854776,15945.2
1405.374448,14897.8
1408.889132,13967
1412.398837,13689.8
1415.903574,14222.4
1419.403355,15386.8
1422.89819,15891.6
1426.388091,16856.4
1429.873069,18542.8
1433.353134,18482.4
1436.828298,18408.4
1440.298571,18022.2
1443.763965,16840
1447.224491,15810.2
1450.68016,15095.8
1454.130983,14903.6
1457.576971,14586.8
1461.018135,14492.4
1464.454486,14573.8
1467.886036,14114.6
1471.312794,14291.8
1474.734774,14006.6
1478.151985,14580.6
1481.564439,14209.2
1484.972146,14132.8
1488.375119,13888.2
1491.773368,14209
1495.166904,14775.4
1498.555739,13937.8
1501.939883,13855.6
1505.319349,13232.6
1508.694146,13551.2
1512.064286,13667.4
1515.429781,13558.2
1518.790642,13368.4
1522.146879,13441.2
1525.498505,13087.8
1528.845529,13177
1532.187965,13788.8
1535.525822,13550.8
1538.859112,13571
1542.187846,14224
1545.512036,13331
1548.831693,14798
1552.146829,14236
1555.457453,13734.8
1558.763579,13500.6
1562.065216,14251.2
1565.362377,14616.6
1568.655073,15270.6
1571.943315,15455.4
1575.227114,15546.8
1578.506482,15529.8
1581.781431,16129.2
1585.051971,15545
1588.318114,15727.8
1591.579872,15960.2
1594.837255,16089.6
1598.090275,15864.4
1601.338945,15432.8
1604.583274,15277.4
1607.823275,14389.4
1611.058959,13514.6
1614.290338,13803.8
1617.517422,13096.8
1620.740224,13538.4
1623.958755,13203.4
1627.173027,13219
1630.38305,12875
1633.588838,13282.4
1636.7904,12966.4
1639.987749,13230.8
1643.180896,13343.4
1646.369853,12799
1649.554632,13480
1652.735244,13078.2
1655.9117,12641.6
1659.084013,12892.2
1662.252193,13404.6
1665.416254,12594.2
1668.576205,12924.8
1671.732059,13187
1674.883828,13173.8
1678.031523,12705.6
1681.175157,12918.6
1684.314739,12794.2
1687.450284,12859.4
1690.581801,12802
1693.709304,12493.8
1696.832803,12608.2
1699.952311,12790.4
1703.067839,12789.2
1706.179399,12803.8
1709.287003,13150.6
1712.390663,12803.8
1715.49039,12800.6
1718.586197,13140.2
1721.678095,12960.4
1724.766096,12947.4
1727.850213,12474
1730.930456,12855.8
1734.006838,12602.4
1737.079372,12929
1740.148067,12541.6
1743.212938,13529.8
1746.273996,12832.6
1749.331252,12863.8
1752.384718,12748.6
1755.434408,12819.4
1758.480332,12937.8
1761.522503,12989.2
1764.560933,12711.6
1767.595634,12351.6
1770.626618,13052.8
1773.653896,13113.8
1776.677482,12616
1779.697388,12662.6
1782.713625,13137
1785.726205,13131
1788.735141,13099
1791.740445,12758.4
1794.742129,12672.6
1797.740206,13149.8
1800.734687,13273.2
1803.725585,13090.4
1806.712912,12944.8
1809.69668,12734.4
1812.676902,12825.8
1815.65359,12404
1818.626756,12512.6
1821.596413,12755.8
1824.562573,12429.8
1827.525247,12711.8
1830.48445,12583
1833.440192,12706.6
1836.392487,12586.4
1839.341347,12956.8
1842.286784,12854.2
1845.22881,12395
1848.167439,12942.8
1851.102682,12718.4
1854.034553,12547
1856.963063,12471.4
1859.888226,13457
1862.810053,13001.2
1865.728557,12779.2
1868.643751,12514
1871.555648,12505.6
1874.46426,12288.2
1877.369599,12795
1880.271679,12738.4
1883.170512,12573.6
1886.06611,13070
1888.958487,12752.4
1891.847655,12739
1894.733626,12887.4
1897.616414,12927.8
1900.496032,12521
1903.372491,12899.2
1906.245805,13149.8
1909.115987,13258.2
1911.983049,13193.4
1914.847004,13042.4
1917.707866,13107.6
1920.565646,12940.6
1923.420359,12659
1926.272016,12906.4
1929.120631,12719.6
1931.966216,12820
1934.808786,12831.4
1937.648351,12996.4
1940.484927,13083.4
1943.318525,13141.4
1946.149158,13446.8
1948.97684,14372
1951.801584,13450.6
1954.623403,13200
1957.44231,13315.4
1960.258318,12926.2
1963.071439,12771.6
1965.881688,13005.8
1968.689078,13204.8
1971.493621,12947.2
