Ramanshift[cm-1],Intensity
-93.47115107,12538
-87.69374369,11384
-81.9253076,11261.8
-76.16582701,11292.8
-70.41528615,11292.2
-64.67366933,11027.4
-58.94096086,11025
-53.21714512,11372.8
-47.50220652,11379.8
-41.79612954,11362.2
-36.09889866,11767
-30.41049843,11853.8
-24.73091343,11478
-19.0601283,11614
-13.39812769,11367
-7.744896327,11146.2
-2.100418946,10910
3.535319659,11631.8
9.162334658,11082.6
14.78064118,11319.6
20.39025432,10921.6
25.99118913,11023.4
31.58346061,11386.2
37.16708375,11338.2
42.74207347,11004.2
48.30844468,11022.2
53.86621222,10930.4
59.41539093,10581.6
64.95599558,10629.2
70.48804091,10976.6
76.01154164,11001.6
81.52651243,10469.4
87.03296792,10900.2
92.5309227,11172.8
98.02039134,10548.6
103.5013884,10948
108.9739282,10681.8
114.4380255,10730
119.8936944,10895
125.3409495,11755.8
130.779805,10586.4
136.2102753,10434.2
141.6323747,10540.8
147.0461174,11091.6
152.4515176,10684.8
157.8485895,10579.6
163.2373472,10539.8
168.6178049,10783.2
173.9899766,11064.6
179.3538764,10605.6
184.7095182,10707.6
190.0569161,10988.2
195.396084,11011.6
200.7270358,10466.6
206.0497854,10569.6
211.3643466,10319.4
216.6707333,10667.4
221.9689593,10392.6
227.2590382,10540.8
232.5409839,10457.4
237.8148101,10410
243.0805303,10537.6
248.3381582,10515.4
253.5877075,10352.2
258.8291917,10506.8
264.0626244,10458.4
269.288019,10758
274.5053891,10821.4
279.7147481,10629
284.9161094,10601
290.1094865,11394.2
295.2948927,13797.2
300.4723414,19297.8
305.6418459,26093
310.8034194,32202
315.9570752,35863
321.1028267,36657.2
326.2406869,37168
331.370669,37918.6
336.4927863,38874.2
341.6070517,39707.4
346.7134786,40749
351.8120798,41252
356.9028684,41184.2
361.9858576,40873.8
367.0610602,41075.4
372.1284892,41273.2
377.1881577,42734.6
382.2400784,45408.2
387.2842644,48951.4
392.3207284,51127.4
397.3494833,49656.4
402.370542,47146
407.3839172,44314.8
412.3896217,41785.6
417.3876683,39802
422.3780697,38830.6
427.3608386,37849.2
432.3359876,37954.8
437.3035295,37362.6
442.2634769,37337
447.2158423,36375.6
452.1606383,36039.8
457.0978776,36156.4
462.0275727,35351
466.9497361,36051.6
471.8643802,35765
476.7715176,36959.4
481.6711608,37957
486.5633221,38712.8
491.448014,38368
496.3252488,37479.8
501.195039,36738.2
506.0573969,36551
510.9123349,35782.4
515.7598651,35066.6
520.6,35140
525.4327518,34530
530.2581327,34656
535.076155,34507
539.8868309,35010.4
544.6901726,34762.2
549.4861922,33711.8
554.2749019,34162.4
559.0563139,33321.8
563.8304402,33107.2
568.597293,33978.8
573.3568844,33524
578.1092263,33028
582.8543308,33325
587.5922101,33411
592.322876,32907.4
597.0463405,33240.8
601.7626157,33420.2
606.4717135,32942.2
611.1736458,32822.2
615.8684246,32962.8
620.5560617,33234.4
625.2365691,32968
629.9099585,33245.6
634.5762419,33525.8
639.2354312,32917.8
643.887538,32659.8
648.5325743,32499.2
653.1705518,32554.4
657.8014823,32534.4
662.4253775,31789.6
667.0422493,32146
671.6521092,32141.2
676.2549691,32178.6
680.8508407,32102.4
685.4397355,31874.4
690.0216654,32010.2
694.5966419,31789.2
699.1646767,32611.8
703.7257814,32713.2
708.2799676,33073.4
712.827247,33646.6
717.367631,33050.4
721.9011314,32385.2
726.4277595,31080
730.9475271,31429.2
735.4604456,31045.8
739.9665264,31496.4
744.4657813,30805.8
748.9582215,30477.8
753.4438587,29998
757.9227042,29611
762.3947696,30083.8
766.8600662,29364
771.3186056,30601.2
775.770399,29543.4
780.215458,29881.2
784.6537939,29154.2
789.0854181,29206.8
793.510342,29179
797.9285769,29779.8
802.3401342,29451.8
806.7450253,29426.6
811.1432614,29082.4
815.5348538,28965.2
819.9198139,28403.8
824.2981531,28253.2
828.6698824,28231.4
833.0350133,27844.4
837.393557,27512.8
841.7455248,27740.6
846.0909278,27212.4
850.4297774,27270
854.7620848,27549
859.0878611,27628.4
863.4071176,27052.4
867.7198655,27612.4
872.026116,27846.4
876.3258802,28108.4
880.6191693,27762.8
884.9059946,27682.6
889.186367,28137.2
893.4602979,26933.6
897.7277982,26912.6
901.9888793,27604.8
906.2435521,27986
910.4918277,27659.6
914.7337174,28059
918.9692321,28087.4
923.1983831,28769.4
927.4211813,28123.4
931.6376378,28877.8
935.8477637,28258.8
940.0515701,28555.6
944.249068,28735.4
948.4402684,27738.4
952.6251825,28775.2
956.8038212,28615.4
960.9761955,29256.4
965.1423166,28711
969.3021953,28635.2
973.4558427,28613.2
977.6032699,28459.4
981.7444877,28352.8
985.8795072,28150.8
990.0083394,28328.6
994.1309953,28062.8
998.2474857,28732.8
1002.357822,28373.8
1006.462014,29175
1010.560075,28423.6
1014.652013,27926.2
1018.737841,27622.2
1022.81757,27142.8
1026.891209,27172.4
1030.958771,27020.6
1035.020266,27423.4
1039.075705,27162.2
1043.1251,27058.2
1047.16846,27425.2
1051.205797,27872.4
1055.237121,28695
1059.262444,31047
1063.281777,34746
1067.295131,39593.4
1071.302515,43908.2
1075.303942,43610.8
1079.299422,42029.4
1083.288966,37152.2
1087.272585,32623
1091.250289,29586.2
1095.222091,28478.4
1099.187999,27251.2
1103.148026,27412
1107.102183,27324.2
1111.050479,27519.4
1114.992927,27910.4
1118.929536,28506
1122.860318,30622.6
1126.785283,32598
1130.704443,36637.4
1134.617808,41722
1138.52539,43826
1142.427198,42119.6
1146.323244,37705.6
1150.213538,32984.2
1154.098093,30778.6
1157.976917,28775.2
1161.850023,28318.4
1165.717421,28441.8
1169.579121,28124.6
1173.435135,28652.2
1177.285474,28076.2
1181.130148,28730.4
1184.969169,29036.8
1188.802547,28983.4
1192.630292,28154.2
1196.452416,27166.2
1200.26893,26334
1204.079844,25738.2
1207.88517,25047.8
1211.684917,25475.4
1215.479098,24860.8
1219.267722,26450.6
1223.050801,24804.2
1226.828346,25036.4
1230.600366,25301
1234.366874,25322.2
1238.12788,25267.4
1241.883395,25130.2
1245.633429,25432.6
1249.377994,25415.8
1253.1171,24675.4
1256.850759,24979.6
1260.578981,24877.8
1264.301776,25018.6
1268.019157,24853.6
1271.731133,24602.8
1275.437715,24557.6
1279.138915,25103.2
1282.834743,25423
1286.52521,24917.8
1290.210328,24919.4
1293.890106,25147.6
1297.564555,25980.8
1301.233688,25645.8
1304.897514,26040
1308.556044,25897.8
1312.209289,25536.8
1315.857261,24726
1319.499969,24715
1323.137425,25521.6
1326.769641,24761.4
1330.396626,25550.2
1334.018391,24950.4
1337.634948,24931.8
1341.246307,24747.4
1344.85248,24801
1348.453477,24852.8
1352.049309,25013.8
1355.639987,25138.6
1359.225522,25862.4
1362.805925,25519.2
1366.381207,25564.4
1369.951379,26124.8
1373.516452,26556.4
1377.076436,27506
1380.631343,28834.8
1384.181184,30250
1387.725969,31312.4
1391.26571,30713.6
1394.800417,28762
1398.330102,26726.4
1401.854776,25530
1405.374448,24502.4
1408.889132,24161.4
1412.398837,23947
1415.903574,25361.2
1419.403355,27846
1422.89819,29858.2
1426.388091,32058.6
1429.873069,33319.8
1433.353134,32170.8
1436.828298,30266
1440.298571,28343.6
1443.763965,26148.4
1447.224491,24879
1450.68016,23879.6
1454.130983,23586.2
1457.576971,23009.2
1461.018135,23075
1464.454486,22921
1467.886036,22810
1471.312794,22690.8
1474.734774,22157.6
1478.151985,22569.4
1481.564439,22074.8
1484.972146,21683.2
1488.375119,21213.4
1491.773368,21513.4
1495.166904,21869.8
1498.555739,21267.2
1501.939883,21259.2
1505.319349,20697.8
1508.694146,21120.2
1512.064286,21131.2
1515.429781,21036.2
1518.790642,20958.8
1522.146879,21119
1525.498505,20706.2
1528.845529,20592.6
1532.187965,21388
1535.525822,20922.6
1538.859112,21012
1542.187846,21636.2
1545.512036,21085.8
1548.831693,22325.6
1552.146829,22169.8
1555.457453,21846.4
1558.763579,21797.4
1562.065216,22942
1565.362377,23905.2
1568.655073,24638.2
1571.943315,25100.4
1575.227114,25162.2
1578.506482,24923.6
1581.781431,24960.2
1585.051971,24223.6
1588.318114,23785.2
1591.579872,22935.2
1594.837255,21647.6
1598.090275,20601.2
1601.338945,19697.4
1604.583274,19680.2
1607.823275,19063.6
1611.058959,18509.2
1614.290338,19339.6
1617.517422,18027.8
1620.740224,18202
1623.958755,17829
1627.173027,17588.8
1630.38305,17189.8
1633.588838,17397
1636.7904,17152.2
1639.987749,17096
1643.180896,17109
1646.369853,16416.8
1649.554632,17110.4
1652.735244,16343
1655.9117,15896.2
1659.084013,16221.8
1662.252193,16720.6
1665.416254,15911.8
1668.576205,16119
1671.732059,16153
1674.883828,16169.8
1678.031523,15610.4
1681.175157,15690.2
1684.314739,15520
1687.450284,15588
1690.581801,15324
1693.709304,15129.6
1696.832803,15101.6
1699.952311,15357.4
1703.067839,15291
1706.179399,15130.8
1709.287003,15524
1712.390663,15095
1715.49039,15133.6
1718.586197,15332.8
1721.678095,15245.8
1724.766096,15184.8
1727.850213,14569
1730.930456,14795.8
1734.006838,14684.8
1737.079372,14874.6
1740.148067,14455.6
1743.212938,15508.6
1746.273996,14601.4
1749.331252,14494.2
1752.384718,14557.6
1755.434408,14448
1758.480332,14420.2
1761.522503,14384.2
1764.560933,14145.6
1767.595634,13920.6
1770.626618,14494.6
1773.653896,14495.2
1776.677482,14124.8
1779.697388,14046.2
1782.713625,14624
1785.726205,14557.6
1788.735141,14450.8
1791.740445,14067.4
1794.742129,14115.2
1797.740206,14379.2
1800.734687,14379.4
1803.725585,14195.6
1806.712912,14197.8
1809.69668,13847
1812.676902,14051.8
1815.65359,13680
1818.626756,13721.8
1821.596413,13906.4
1824.562573,13616.4
1827.525247,13928.8
1830.48445,13742
1833.440192,13904
1836.392487,13655.8
1839.341347,13897
1842.286784,13927.2
1845.22881,13421.6
1848.167439,13876.8
1851.102682,13622.8
1854.034553,13628.4
1856.963063,13480.4
1859.888226,14346
1862.810053,13736
1865.728557,13641.6
1868.643751,13380.8
1871.555648,13405.2
1874.46426,13103.6
1877.369599,13724.6
1880.271679,13519
1883.170512,13375.6
1886.06611,13782.2
1888.958487,13494.6
1891.847655,13390.4
1894.733626,13529.8
1897.616414,13565.6
1900.496032,13050.6
1903.372491,13381.6
1906.245805,13685.2
1909.115987,13599.2
1911.983049,13589.2
1914.847004,13500.2
1917.707866,13739
1920.565646,13556.6
1923.420359,13139
1926.272016,13321.8
1929.120631,13196.6
1931.966216,13319.2
1934.808786,13197.4
1937.648351,13494
1940.484927,13393.6
1943.318525,13442
1946.149158,13608.4
1948.97684,14536.4
1951.801584,13517.6
1954.623403,13395
1957.44231,13404.4
1960.258318,13001.2
1963.071439,13012.8
1965.881688,13222
1968.689078,13322.4
1971.493621,13041
