Ramanshift[cm-1],Intensity
-93.47115107,20781.8
-87.69374369,18847.6
-81.9253076,18517
-76.16582701,18890.2
-70.41528615,18918.8
-64.67366933,18366.6
-58.94096086,18509.2
-53.21714512,18773.4
-47.50220652,18758
-41.79612954,18900.4
-36.09889866,19549.2
-30.41049843,19468.8
-24.73091343,19029.2
-19.0601283,19062.2
-13.39812769,18743.6
-7.744896327,18553.2
-2.100418946,18170.4
3.535319659,19132.8
9.162334658,18217.8
14.78064118,18498.2
20.39025432,18136.8
25.99118913,18189.4
31.58346061,18759
37.16708375,18597.8
42.74207347,17946.2
48.30844468,18152.4
53.86621222,17844.8
59.41539093,17388.8
64.95599558,17331.8
70.48804091,17883.4
76.01154164,17988.6
81.52651243,17115.4
87.03296792,17892.4
92.5309227,18454.8
98.02039134,17440.8
103.5013884,17775.8
108.9739282,17640.2
114.4380255,17673.2
119.8936944,17920.6
125.3409495,19006.4
130.779805,17559
136.2102753,17055.8
141.6323747,17198.4
147.0461174,17936.2
152.4515176,17332.4
157.8485895,17280.4
163.2373472,17287
168.6178049,17543
173.9899766,18042.8
179.3538764,17490.2
184.7095182,17357.8
190.0569161,17775.8
195.396084,17947.2
200.7270358,16978.8
206.0497854,17262.8
211.3643466,16834.2
216.6707333,17405.8
221.9689593,16918.6
227.2590382,17063.8
232.5409839,17110.4
237.8148101,17011.4
243.0805303,17187.4
248.3381582,17080.4
253.5877075,17002.4
258.8291917,17281.6
264.0626244,17408.8
269.288019,17763.2
274.5053891,17991.8
279.7147481,18289
284.9161094,20140.6
290.1094865,28289.8
295.2948927,52572
300.4723414,64165.6
305.6418459,64165.4
310.8034194,64165.8
315.9570752,64165.8
321.1028267,64165.8
326.2406869,64166
331.370669,64165.8
336.4927863,64166
341.6070517,64166.2
346.7134786,64166
351.8120798,64166.6
356.9028684,64166.4
361.9858576,64166.6
367.0610602,64166.8
372.1284892,64166.8
377.1881577,64167.2
382.2400784,64166.4
387.2842644,64167
392.3207284,64166.6
397.3494833,64166.6
402.370542,64165.8
407.3839172,64166.4
412.3896217,64166.8
417.3876683,64165.8
422.3780697,64166.2
427.3608386,64166.6
432.3359876,64165.6
437.3035295,64166.2
442.2634769,64166.2
447.2158423,64165.4
452.1606383,64165.4
457.0978776,64165.2
462.0275727,64164.8
466.9497361,64165.8
471.8643802,64165.4
476.7715176,64165
481.6711608,64165
486.5633221,64164.8
491.448014,64164.6
496.3252488,64164.4
501.195039,64165
506.0573969,64164.8
510.9123349,64164.2
515.7598651,64165.2
520.6,64163.6
525.4327518,64164.8
530.2581327,64165.6
535.076155,64164
539.8868309,64165
544.6901726,64164.8
549.4861922,64164.2
554.2749019,64165.6
559.0563139,64164.8
563.8304402,64165.2
568.597293,64166
573.3568844,64165.6
578.1092263,64166
582.8543308,64166.8
587.5922101,64166.2
592.322876,64166.6
597.0463405,64167
601.7626157,64167.8
606.4717135,64167.2
611.1736458,64167.6
615.8684246,64168
620.5560617,64168
625.2365691,64167.6
629.9099585,64167.6
634.5762419,64167.6
639.2354312,64167.6
643.887538,64166.8
648.5325743,64167.4
653.1705518,64166.4
657.8014823,64166.2
662.4253775,64165.6
667.0422493,64166.2
671.6521092,64166
676.2549691,64165.8
680.8508407,64166.2
685.4397355,64165.4
690.0216654,64165.4
694.5966419,64165.4
699.1646767,64164.8
703.7257814,64165.4
708.2799676,64164.8
712.827247,64165.2
717.367631,64165
721.9011314,64164.6
726.4277595,64164.8
730.9475271,64165
735.4604456,64165
739.9665264,64165
744.4657813,64165.4
748.9582215,64165.2
753.4438587,64165.4
757.9227042,64165.6
762.3947696,64165.2
766.8600662,64166
771.3186056,64165.8
775.770399,64166.2
780.215458,64165.8
784.6537939,64166.4
789.0854181,64167
793.510342,64166.4
797.9285769,64167.2
802.3401342,64166.6
806.7450253,64166.8
811.1432614,64167
815.5348538,64166
819.9198139,64166.6
824.2981531,64166.8
828.6698824,64167
833.0350133,64166.8
837.393557,64167.2
841.7455248,64166.8
846.0909278,64166.8
850.4297774,64166.2
854.7620848,64166.6
859.0878611,64166.8
863.4071176,64166.4
867.7198655,64165.2
872.026116,64165.6
876.3258802,64165.8
880.6191693,64165.4
884.9059946,64164.8
889.186367,64165.8
893.4602979,64165.6
897.7277982,64165.6
901.9888793,64165.2
906.2435521,64165.2
910.4918277,64165.8
914.7337174,64165.4
918.9692321,64165.4
923.1983831,64165.4
927.4211813,64165.6
931.6376378,64166.2
935.8477637,64166
940.0515701,64166.8
944.249068,64166.2
948.4402684,64166.6
952.6251825,64166.8
956.8038212,64166.6
960.9761955,64166.6
965.1423166,64166.4
969.3021953,64167.2
973.4558427,64167.6
977.6032699,64166.8
981.7444877,64167.2
985.8795072,64167.2
990.0083394,64166.8
994.1309953,64166.6
998.2474857,64167
1002.357822,64166.8
1006.462014,64166.4
1010.560075,64166.4
1014.652013,64167.2
1018.737841,64166
1022.81757,64166.8
1026.891209,64165.8
1030.958771,64166
1035.020266,64165.8
1039.075705,64165.8
1043.1251,64165.4
1047.16846,64165.6
1051.205797,64165.4
1055.237121,64166.2
1059.262444,64165
1063.281777,64165
1067.295131,64164.6
1071.302515,64165.4
1075.303942,64165
1079.299422,64165.6
1083.288966,64165
1087.272585,64165.4
1091.250289,64166.4
1095.222091,64165.6
1099.187999,64165.6
1103.148026,64165.6
1107.102183,64166.2
1111.050479,64166
1114.992927,64165.8
1118.929536,64165.8
1122.860318,64165.8
1126.785283,64165.8
1130.704443,64166
1134.617808,64166.6
1138.52539,64166
1142.427198,64166.2
1146.323244,64166.2
1150.213538,64166.4
1154.098093,64167
1157.976917,64166.2
1161.850023,64166.8
1165.717421,64167.2
1169.579121,64167.8
1173.435135,64167.6
1177.285474,64167.2
1181.130148,64167.4
1184.969169,64168
1188.802547,64167.8
1192.630292,64168
1196.452416,64168.2
1200.26893,64168
1204.079844,64168
1207.88517,64168.6
1211.684917,64168
1215.479098,64167.2
1219.267722,64167.4
1223.050801,64167.4
1226.828346,64167
1230.600366,64166.8
1234.366874,64166.6
1238.12788,64165.8
1241.883395,64166.2
1245.633429,64166
1249.377994,64165.6
1253.1171,64165.6
1256.850759,64165
1260.578981,64165.4
1264.301776,64165.2
1268.019157,64164.4
1271.731133,64164.6
1275.437715,64163.6
1279.138915,64164
1282.834743,64164
1286.52521,64163.8
1290.210328,64163.2
1293.890106,64163.4
1297.564555,64163.4
1301.233688,64163
1304.897514,64163.6
1308.556044,64163.6
1312.209289,64164
1315.857261,64164
1319.499969,64165
1323.137425,64165.2
1326.769641,64165.2
1330.396626,64165.2
1334.018391,64165.8
1337.634948,64166.2
1341.246307,64167.4
1344.85248,64167
1348.453477,64167.2
1352.049309,64168.4
1355.639987,64168.8
1359.225522,64168.8
1362.805925,64169.2
1366.381207,64168.8
1369.951379,64169.8
1373.516452,64169.2
1377.076436,64168.8
1380.631343,64169.6
1384.181184,64169.2
1387.725969,64169.4
1391.26571,64168.6
1394.800417,64168.4
1398.330102,64167.6
1401.854776,64167.6
1405.374448,64166.4
1408.889132,64166.4
1412.398837,64166
1415.903574,64165.6
1419.403355,64165.8
1422.89819,64164.6
1426.388091,64165.4
1429.873069,64164.8
1433.353134,64163.6
1436.828298,64163.8
1440.298571,64163.4
1443.763965,64164.2
1447.224491,64163.6
1450.68016,64163.2
1454.130983,64163.6
1457.576971,64163.4
1461.018135,64164
1464.454486,64164.8
1467.886036,64164.8
1471.312794,64165
1474.734774,64165.6
1478.151985,64166.4
1481.564439,64166.2
1484.972146,64167
1488.375119,64167.6
1491.773368,64168.4
1495.166904,64168.2
1498.555739,64169
1501.939883,64169.2
1505.319349,64170.6
1508.694146,64170.4
1512.064286,64170.8
1515.429781,64170.4
1518.790642,64170.6
1522.146879,64170.8
1525.498505,64170.6
1528.845529,64170
1532.187965,64170.4
1535.525822,64169
1538.859112,64169.2
1542.187846,64168.6
1545.512036,64168.2
1548.831693,64168
1552.146829,64167.4
1555.457453,64166.4
1558.763579,64166.8
1562.065216,64165.4
1565.362377,64164.8
1568.655073,64165
1571.943315,64164.4
1575.227114,64162.4
1578.506482,64163.4
1581.781431,64162.6
1585.051971,64163.2
1588.318114,64162.6
1591.579872,64162.8
1594.837255,64162.2
1598.090275,64162.6
1601.338945,64161.8
1604.583274,64162.2
1607.823275,64163.2
1611.058959,64163
1614.290338,64163.6
1617.517422,64163.8
1620.740224,64164.2
1623.958755,64166
1627.173027,64165.8
1630.38305,64167.4
1633.588838,64168.6
1636.7904,64168.8
1639.987749,64169.8
1643.180896,64170.8
1646.369853,64170.6
1649.554632,64172.2
1652.735244,64172
1655.9117,64173.4
1659.084013,64174
1662.252193,64174
1665.416254,64174
1668.576205,64174.4
1671.732059,64173.4
1674.883828,64174.2
1678.031523,64173.6
1681.175157,64173
1684.314739,64173.2
1687.450284,64172
1690.581801,64171
1693.709304,64170.4
1696.832803,64169.8
1699.952311,64169
1703.067839,64167.6
1706.179399,64167.2
1709.287003,64167
1712.390663,64165.8
1715.49039,64165.8
1718.586197,64164.6
1721.678095,64163
1724.766096,64164
1727.850213,64162.4
1730.930456,64162.6
1734.006838,64162
1737.079372,64161.8
1740.148067,64162.4
1743.212938,64162.6
1746.273996,64162.4
1749.331252,64163.2
1752.384718,64163.8
1755.434408,64164.4
1758.480332,64165.6
1761.522503,64166
1764.560933,64167.4
1767.595634,64168.6
1770.626618,64170
1773.653896,64170.8
1776.677482,64172
1779.697388,64173.2
1782.713625,64173.4
1785.726205,64174.6
1788.735141,64174.8
1791.740445,64176.2
1794.742129,64175.8
1797.740206,64177
1800.734687,64177.2
1803.725585,64176.2
1806.712912,64177.6
1809.69668,64177.6
1812.676902,64176.8
1815.65359,64176.2
1818.626756,64174.8
1821.596413,64174.8
1824.562573,64173.6
1827.525247,64172.8
1830.48445,64172.2
1833.440192,64171
1836.392487,64169.6
1839.341347,64168
1842.286784,64167.6
1845.22881,64165.4
1848.167439,64164.6
1851.102682,64164.4
1854.034553,64162.4
1856.963063,64161.6
1859.888226,64161.8
1862.810053,64160.6
1865.728557,64160
1868.643751,64160
1871.555648,64160.4
1874.46426,64160
1877.369599,64160.8
1880.271679,64161.2
1883.170512,64161.2
1886.06611,64162.6
1888.958487,64163
1891.847655,64164.4
1894.733626,64165.8
1897.616414,64168
1900.496032,64169
1903.372491,64170.6
1906.245805,64172.6
1909.115987,64173.4
1911.983049,64175.4
1914.847004,64177.8
1917.707866,64179.8
1920.565646,64182
1923.420359,64183.8
1926.272016,64185.8
1929.120631,64187.4
1931.966216,64188.8
1934.808786,64190
1937.648351,64191
1940.484927,64191.4
1943.318525,64189.8
1946.149158,64190.6
1948.97684,64201.4
1951.801584,64226
1954.623403,64167
1957.44231,64266.8
1960.258318,64100.2
1963.071439,64090.2
1965.881688,64035.6
1968.689078,64120.6
1971.493621,63918.8
