Ramanshift[cm-1],Intensity
-93.47115107,15414
-87.69374369,14247.8
-81.9253076,14119.4
-76.16582701,14240.4
-70.41528615,14327
-64.67366933,13969.4
-58.94096086,13962.6
-53.21714512,14200.6
-47.50220652,14362.8
-41.79612954,14377.8
-36.09889866,14696.6
-30.41049843,14800.2
-24.73091343,14464.6
-19.0601283,14445
-13.39812769,14335.4
-7.744896327,14114
-2.100418946,13930
3.535319659,14520
9.162334658,13736.2
14.78064118,14184.6
20.39025432,13791
25.99118913,13872.2
31.58346061,14356.4
37.16708375,14087.2
42.74207347,13749.8
48.30844468,13747.6
53.86621222,13613.2
59.41539093,13348.8
64.95599558,13323.8
70.48804091,13624
76.01154164,13736.4
81.52651243,13199.2
87.03296792,13705
92.5309227,13990
98.02039134,13373.4
103.5013884,13560
108.9739282,13387.6
114.4380255,13423
119.8936944,13532.8
125.3409495,14400.6
130.779805,13328.8
136.2102753,13099
141.6323747,13046.2
147.0461174,13630.2
152.4515176,13280.4
157.8485895,13367.2
163.2373472,13166.4
168.6178049,13415.8
173.9899766,13733.8
179.3538764,13384
184.7095182,13445.6
190.0569161,13664.6
195.396084,13663.8
200.7270358,13113.8
206.0497854,13181.6
211.3643466,12852.8
216.6707333,13301.4
221.9689593,12924.8
227.2590382,13113.4
232.5409839,12991.8
237.8148101,12964
243.0805303,13025.4
248.3381582,13016
253.5877075,12970.4
258.8291917,13076
264.0626244,13087.4
269.288019,13321.6
274.5053891,13407.4
279.7147481,13090.4
284.9161094,12920.4
290.1094865,13279.6
295.2948927,14357.4
300.4723414,16883.8
305.6418459,19631.2
310.8034194,22193.8
315.9570752,24456.2
321.1028267,25029
326.2406869,25392.2
331.370669,25882.2
336.4927863,26567
341.6070517,26699.6
346.7134786,26691
351.8120798,26680.2
356.9028684,26105.4
361.9858576,26089.6
367.0610602,26441.8
372.1284892,25878.6
377.1881577,26384.2
382.2400784,26957.6
387.2842644,28297.4
392.3207284,29971.8
397.3494833,29965.6
402.370542,29760.2
407.3839172,28826.8
412.3896217,27908
417.3876683,27052
422.3780697,26476.2
427.3608386,25562.4
432.3359876,25378.2
437.3035295,25068
442.2634769,25210.6
447.2158423,23926.8
452.1606383,24001
457.0978776,23821.8
462.0275727,23176.4
466.9497361,23597.6
471.8643802,23401.8
476.7715176,24439.4
481.6711608,25712.6
486.5633221,27157.8
491.448014,27288
496.3252488,26825.4
501.195039,25620.2
506.0573969,24914.6
510.9123349,23883.2
515.7598651,22879.4
520.6,23310
525.4327518,23126.2
530.2581327,23049.8
535.076155,22585.6
539.8868309,23316.8
544.6901726,23765
549.4861922,23401.6
554.2749019,23610.4
559.0563139,22092.4
563.8304402,21336.2
568.597293,22354.2
573.3568844,22025.8
578.1092263,21598
582.8543308,21982.2
587.5922101,21943.4
592.322876,21923.4
597.0463405,22145.8
601.7626157,22509.8
606.4717135,21833.4
611.1736458,21704.4
615.8684246,21454.2
620.5560617,21722
625.2365691,21404.6
629.9099585,22040.6
634.5762419,22275.8
639.2354312,21773.4
643.887538,21843.4
648.5325743,21568.8
653.1705518,21349.8
657.8014823,21648.2
662.4253775,20738.2
667.0422493,21041.4
671.6521092,20987.2
676.2549691,21131
680.8508407,20936.4
685.4397355,20928.8
690.0216654,20954.4
694.5966419,20821.6
699.1646767,21487.4
703.7257814,21471.8
708.2799676,22027.2
712.827247,22921.4
717.367631,23503
721.9011314,23492.8
726.4277595,22176.2
730.9475271,22011
735.4604456,21390
739.9665264,21508
744.4657813,20905.4
748.9582215,20753.8
753.4438587,20240.8
757.9227042,20002.6
762.3947696,20456.2
766.8600662,19952.8
771.3186056,21180
775.770399,20234.4
780.215458,20471.4
784.6537939,19748.6
789.0854181,19554.2
793.510342,19769
797.9285769,20228.4
802.3401342,20015.6
806.7450253,20188.8
811.1432614,20136.4
815.5348538,20227.6
819.9198139,19956.6
824.2981531,20405.4
828.6698824,20212
833.0350133,19997.4
837.393557,19664.8
841.7455248,19926.8
846.0909278,19624.6
850.4297774,19462
854.7620848,19514.6
859.0878611,19836.8
863.4071176,19162.6
867.7198655,19637.4
872.026116,19990.4
876.3258802,20259.8
880.6191693,19752
884.9059946,19687.2
889.186367,20086.6
893.4602979,18987.2
897.7277982,18853.8
901.9888793,19525.2
906.2435521,19983.4
910.4918277,19465
914.7337174,19747.8
918.9692321,20011.4
923.1983831,20975.4
927.4211813,20683.8
931.6376378,21282.2
935.8477637,20593.6
940.0515701,20707
944.249068,20799
948.4402684,20064.6
952.6251825,20866.2
956.8038212,20551
960.9761955,21137.4
965.1423166,20769
969.3021953,20531.4
973.4558427,20540.2
977.6032699,20301.6
981.7444877,20564.8
985.8795072,20570
990.0083394,20596.4
994.1309953,20588.8
998.2474857,21474.2
1002.357822,21695.2
1006.462014,23831.4
1010.560075,25070
1014.652013,25538.2
1018.737841,24965.8
1022.81757,23439.6
1026.891209,22641.6
1030.958771,21909.2
1035.020266,21917.6
1039.075705,21507.8
1043.1251,21331
1047.16846,22029.2
1051.205797,22539
1055.237121,23382.4
1059.262444,25751
1063.281777,30381.4
1067.295131,37660
1071.302515,47131.2
1075.303942,52103.8
1079.299422,53411.2
1083.288966,48361.4
1087.272585,40332.6
1091.250289,33147.6
1095.222091,28655.6
1099.187999,25671.8
1103.148026,24809.4
1107.102183,24249.8
1111.050479,24521.6
1114.992927,25076.4
1118.929536,25971.8
1122.860318,28294.2
1126.785283,30685.6
1130.704443,36332.8
1134.617808,46293.8
1138.52539,56875.2
1142.427198,63935.8
1146.323244,64207.2
1150.213538,64313.8
1154.098093,61335.2
1157.976917,48630.6
1161.850023,38547.4
1165.717421,33222.2
1169.579121,30347.4
1173.435135,29507.2
1177.285474,28202.6
1181.130148,28225
1184.969169,28820
1188.802547,29516
1192.630292,30022.4
1196.452416,29491.6
1200.26893,27880.4
1204.079844,25011.6
1207.88517,22934.4
1211.684917,22748
1215.479098,21711.4
1219.267722,22956.8
1223.050801,21528.8
1226.828346,21477.8
1230.600366,21508.8
1234.366874,21502.6
1238.12788,21333
1241.883395,21170
1245.633429,21513.4
1249.377994,21449.6
1253.1171,20488.4
1256.850759,21038
1260.578981,20899.8
1264.301776,20882.8
1268.019157,20847.2
1271.731133,20466.4
1275.437715,20443.8
1279.138915,21066
1282.834743,21252.6
1286.52521,20774.4
1290.210328,20776.4
1293.890106,21051.4
1297.564555,22021.6
1301.233688,22320.8
1304.897514,23380.4
1308.556044,23568.6
1312.209289,23211.6
1315.857261,22017
1319.499969,21817
1323.137425,22281.2
1326.769641,21493
1330.396626,22041.6
1334.018391,21333.8
1337.634948,21572
1341.246307,21320.6
1344.85248,21497.8
1348.453477,21927.4
1352.049309,22559.4
1355.639987,23156
1359.225522,24252.8
1362.805925,24282
1366.381207,24508.8
1369.951379,24719.4
1373.516452,25266.6
1377.076436,25843.8
1380.631343,26560
1384.181184,28769
1387.725969,32681.6
1391.26571,36553
1394.800417,38968.2
1398.330102,37988.2
1401.854776,34169.6
1405.374448,28966.2
1408.889132,25021.6
1412.398837,23042.8
1415.903574,23258.4
1419.403355,25028.4
1422.89819,27244.6
1426.388091,31474
1429.873069,37899.6
1433.353134,44220.8
1436.828298,50226.8
1440.298571,53811.4
1443.763965,54489
1447.224491,51517.8
1450.68016,46409.4
1454.130983,40417
1457.576971,34766.8
1461.018135,30441.6
1464.454486,27591.6
1467.886036,25728.8
1471.312794,25496.2
1474.734774,25689.8
1478.151985,26286.6
1481.564439,24952.8
1484.972146,22980.6
1488.375119,21100.2
1491.773368,20570
1495.166904,20654.8
1498.555739,19532.4
1501.939883,19394.4
1505.319349,18689
1508.694146,18944.6
1512.064286,18848
1515.429781,18793.4
1518.790642,18588
1522.146879,18713.8
1525.498505,18262.4
1528.845529,18563.2
1532.187965,19239.2
1535.525822,19251.2
1538.859112,19633.8
1542.187846,20405.6
1545.512036,20103.4
1548.831693,21681.2
1552.146829,21565
1555.457453,21702.4
1558.763579,21812.6
1562.065216,23393.6
1565.362377,24456.8
1568.655073,25743.8
1571.943315,27042
1575.227114,28136.8
1578.506482,28890.4
1581.781431,29209.4
1585.051971,27284
1588.318114,25629.8
1591.579872,23721.2
1594.837255,22032.6
1598.090275,20943.6
1601.338945,20047.4
1604.583274,19651.2
1607.823275,18644.8
1611.058959,17663
1614.290338,17846.4
1617.517422,16986.2
1620.740224,17217.4
1623.958755,16753
1627.173027,16624.6
1630.38305,16074.4
1633.588838,16364.8
1636.7904,16036
1639.987749,16187.6
1643.180896,16210.4
1646.369853,15554
1649.554632,16243.2
1652.735244,15604.8
1655.9117,15101.8
1659.084013,15313.6
1662.252193,15770.2
1665.416254,14953.6
1668.576205,15166.4
1671.732059,15476.4
1674.883828,15300.2
1678.031523,14807.2
1681.175157,14966.2
1684.314739,14942.4
1687.450284,14846.8
1690.581801,14717.6
1693.709304,14521
1696.832803,14597
1699.952311,14796.8
1703.067839,14844
1706.179399,14682.2
1709.287003,15130.8
1712.390663,14645.6
1715.49039,14686
1718.586197,14932.6
1721.678095,14782
1724.766096,14769
1727.850213,14284
1730.930456,14507.8
1734.006838,14304.8
1737.079372,14507.2
1740.148067,14264.8
1743.212938,15297.2
1746.273996,14527.8
1749.331252,14368.6
1752.384718,14449.4
1755.434408,14442.4
1758.480332,14405.6
1761.522503,14504
1764.560933,14136.8
1767.595634,13899.4
1770.626618,14493.2
1773.653896,14533
1776.677482,14129.2
1779.697388,14210.4
1782.713625,14650.8
1785.726205,14555
1788.735141,14630.2
1791.740445,14232.4
1794.742129,14091
1797.740206,14702.6
1800.734687,14642.2
1803.725585,14469.4
1806.712912,14356.8
1809.69668,14040.2
1812.676902,14100.6
1815.65359,13861.8
1818.626756,13902.6
1821.596413,14076.4
1824.562573,13700.4
1827.525247,14120.4
1830.48445,13886.6
1833.440192,14067.2
1836.392487,13916.4
1839.341347,14270.4
1842.286784,14151.2
1845.22881,13720.8
1848.167439,14250.4
1851.102682,14074
1854.034553,14026.4
1856.963063,13738.6
1859.888226,14692.2
1862.810053,14251.8
1865.728557,14141.2
1868.643751,13786
1871.555648,13844
1874.46426,13502.2
1877.369599,14153
1880.271679,13946.6
1883.170512,13780.8
1886.06611,14335.4
1888.958487,13882.2
1891.847655,13983.6
1894.733626,14035.8
1897.616414,14159.4
1900.496032,13643.8
1903.372491,14077
1906.245805,14370.4
1909.115987,14390.6
1911.983049,14318.2
1914.847004,14100.4
1917.707866,14379.8
1920.565646,14103.2
1923.420359,13954.6
1926.272016,14123.2
1929.120631,13820.2
1931.966216,14191.8
1934.808786,13987.4
1937.648351,14233
1940.484927,14151.8
1943.318525,14252.8
1946.149158,14642.2
1948.97684,15487.4
1951.801584,14478.4
1954.623403,14278
1957.44231,14369
1960.258318,13976.6
1963.071439,13809.6
1965.881688,14098.2
1968.689078,14297
1971.493621,13929.2
