Ramanshift[cm-1],Intensity
-93.47115107,18188.8
-87.69374369,16773.2
-81.9253076,16444.8
-76.16582701,16535.6
-70.41528615,16906.6
-64.67366933,16308.4
-58.94096086,16334
-53.21714512,16553
-47.50220652,16796.8
-41.79612954,16879.6
-36.09889866,17288.2
-30.41049843,17317.2
-24.73091343,16970.2
-19.0601283,16902
-13.39812769,16517.8
-7.744896327,16470
-2.100418946,16166.2
3.535319659,16920
9.162334658,16105
14.78064118,16421
20.39025432,16169
25.99118913,16223.2
31.58346061,16732.2
37.16708375,16468.8
42.74207347,16074.8
48.30844468,16050.6
53.86621222,15863.8
59.41539093,15467.4
64.95599558,15399.8
70.48804091,15916.6
76.01154164,16042.8
81.52651243,15350.8
87.03296792,15937.8
92.5309227,16353
98.02039134,15546.8
103.5013884,15927.6
108.9739282,15661
114.4380255,15810
119.8936944,15919
125.3409495,16804.2
130.779805,15518.6
136.2102753,15268.4
141.6323747,15292
147.0461174,16019
152.4515176,15589.8
157.8485895,15497.8
163.2373472,15347
168.6178049,15636.6
173.9899766,16080
179.3538764,15501.2
184.7095182,15643.8
190.0569161,15765
195.396084,15911.8
200.7270358,15275
206.0497854,15291.4
211.3643466,14910.4
216.6707333,15400.4
221.9689593,15053.4
227.2590382,15200.4
232.5409839,15163.6
237.8148101,15072
243.0805303,15186.2
248.3381582,15082
253.5877075,14947.8
258.8291917,15120.2
264.0626244,15196.2
269.288019,15429.8
274.5053891,15669.2
279.7147481,15333.4
284.9161094,15244.6
290.1094865,16187.8
295.2948927,19019
300.4723414,25463.2
305.6418459,34066
310.8034194,41894
315.9570752,46851.2
321.1028267,48423.8
326.2406869,48899.6
331.370669,49596.4
336.4927863,50598.8
341.6070517,51344.8
346.7134786,52574.4
351.8120798,53222.2
356.9028684,53235.4
361.9858576,53083
367.0610602,53887.6
372.1284892,53672.2
377.1881577,54609.8
382.2400784,56353.6
387.2842644,56864.4
392.3207284,57624.8
397.3494833,58875.8
402.370542,61390.4
407.3839172,64090.6
412.3896217,63741.6
417.3876683,62374.2
422.3780697,60249.4
427.3608386,57250.2
432.3359876,55401.4
437.3035295,53069.8
442.2634769,51838
447.2158423,49709
452.1606383,49164.6
457.0978776,48994.4
462.0275727,47969.8
466.9497361,48395
471.8643802,47481.2
476.7715176,48609.6
481.6711608,49485.2
486.5633221,50594
491.448014,49699.6
496.3252488,49357.8
501.195039,49581.2
506.0573969,50041.4
510.9123349,48658.4
515.7598651,47598.8
520.6,46963.8
525.4327518,46367.2
530.2581327,46051.8
535.076155,45377.8
539.8868309,45966
544.6901726,45973.4
549.4861922,45007.8
554.2749019,45561.2
559.0563139,44724
563.8304402,44478.6
568.597293,45059.6
573.3568844,44328.8
578.1092263,43506.2
582.8543308,43714.8
587.5922101,43460.4
592.322876,43142.2
597.0463405,43020.6
601.7626157,43480.8
606.4717135,42793.6
611.1736458,42958.6
615.8684246,42802.4
620.5560617,43262.4
625.2365691,42840
629.9099585,43119
634.5762419,43568.6
639.2354312,42829.2
643.887538,42729.4
648.5325743,42268.4
653.1705518,42366
657.8014823,42846
662.4253775,42183.6
667.0422493,42378.2
671.6521092,41992.6
676.2549691,41952
680.8508407,41703.6
685.4397355,41723
690.0216654,41885.4
694.5966419,41888
699.1646767,42381
703.7257814,42397.4
708.2799676,42808.6
712.827247,43552.4
717.367631,43147.2
721.9011314,43162.6
726.4277595,42337
730.9475271,42680.4
735.4604456,42677.2
739.9665264,42824.6
744.4657813,41535.8
748.9582215,40585.8
753.4438587,39632
757.9227042,39326.4
762.3947696,39613
766.8600662,38806.2
771.3186056,40268.8
775.770399,38811.2
780.215458,39132.2
784.6537939,38438.8
789.0854181,38283
793.510342,38434
797.9285769,39225.6
802.3401342,38802.8
806.7450253,38967.2
811.1432614,39012.8
815.5348538,38632.8
819.9198139,38447.2
824.2981531,38638.2
828.6698824,38397
833.0350133,37643.2
837.393557,37064.4
841.7455248,37411.8
846.0909278,36514.2
850.4297774,36387.8
854.7620848,36145.4
859.0878611,36414.4
863.4071176,35658.8
867.7198655,36290
872.026116,36784.6
876.3258802,36937.6
880.6191693,36296
884.9059946,36232.2
889.186367,36691
893.4602979,35509.6
897.7277982,35415.4
901.9888793,36303.2
906.2435521,37222
910.4918277,36635
914.7337174,36992.4
918.9692321,37076.6
923.1983831,38180.4
927.4211813,37812.4
931.6376378,39095.8
935.8477637,38833.6
940.0515701,39281.8
944.249068,39665.6
948.4402684,38516
952.6251825,39303
956.8038212,39395
960.9761955,40232.2
965.1423166,39871.6
969.3021953,40007.4
973.4558427,40006.8
977.6032699,40017.4
981.7444877,39907.2
985.8795072,39987
990.0083394,39988
994.1309953,39525
998.2474857,40443.8
1002.357822,39975.8
1006.462014,41410.2
1010.560075,40636.6
1014.652013,40224.2
1018.737841,40162.6
1022.81757,40121.6
1026.891209,40671.8
1030.958771,39799.2
1035.020266,39291.2
1039.075705,38606
1043.1251,38249.2
1047.16846,39084.6
1051.205797,39852.4
1055.237121,41027.2
1059.262444,43737.8
1063.281777,48255.6
1067.295131,50454.2
1071.302515,52450.6
1075.303942,53472.6
1079.299422,56516.6
1083.288966,60041.4
1087.272585,61922
1091.250289,58723.4
1095.222091,56941.8
1099.187999,55991.2
1103.148026,54276.2
1107.102183,48540.4
1111.050479,44435.8
1114.992927,42588.4
1118.929536,42202.6
1122.860318,43761.4
1126.785283,45819
1130.704443,49969.2
1134.617808,51741.4
1138.52539,53096
1142.427198,54375
1146.323244,56268.4
1150.213538,59773.2
1154.098093,61152.6
1157.976917,59125.2
1161.850023,58226.8
1165.717421,58050.8
1169.579121,53569.4
1173.435135,49703
1177.285474,45880.6
1181.130148,45642.8
1184.969169,46248.8
1188.802547,46129
1192.630292,45474.4
1196.452416,44039.4
1200.26893,43447
1204.079844,42354.2
1207.88517,41799.6
1211.684917,42023
1215.479098,40561
1219.267722,41540.8
1223.050801,38628.2
1226.828346,38331.4
1230.600366,38205.6
1234.366874,38173
1238.12788,38212.6
1241.883395,38222.8
1245.633429,38609.2
1249.377994,39052
1253.1171,38250
1256.850759,38701
1260.578981,38805.6
1264.301776,39043
1268.019157,39043.2
1271.731133,38505.8
1275.437715,38364.6
1279.138915,38870.8
1282.834743,39296.8
1286.52521,38707.6
1290.210328,38395.6
1293.890106,38879.4
1297.564555,39825.4
1301.233688,39684.2
1304.897514,40444
1308.556044,40584.4
1312.209289,40377.6
1315.857261,39595.8
1319.499969,40048.6
1323.137425,41450.4
1326.769641,40485
1330.396626,40955.2
1334.018391,39735
1337.634948,39783.6
1341.246307,38937.2
1344.85248,39046.2
1348.453477,38914
1352.049309,38888
1355.639987,39234.6
1359.225522,39922
1362.805925,39637.2
1366.381207,39742.6
1369.951379,40567.4
1373.516452,41253.4
1377.076436,42561
1380.631343,44019.2
1384.181184,46440.4
1387.725969,49222.8
1391.26571,49993.4
1394.800417,48853
1398.330102,46994
1401.854776,46781.4
1405.374448,47407.6
1408.889132,48960
1412.398837,48152.6
1415.903574,47060.2
1419.403355,46681.6
1422.89819,46964.2
1426.388091,49038.4
1429.873069,50310.2
1433.353134,50375.2
1436.828298,51409.4
1440.298571,52413
1443.763965,52538.4
1447.224491,53463.8
1450.68016,53568
1454.130983,53020.2
1457.576971,50290.2
1461.018135,47638.8
1464.454486,44640
1467.886036,41876.8
1471.312794,40237.8
1474.734774,38731.4
1478.151985,38112.8
1481.564439,36855.6
1484.972146,36054.8
1488.375119,35507.8
1491.773368,36167.4
1495.166904,36294.6
1498.555739,34863.2
1501.939883,34669
1505.319349,33716
1508.694146,33948.4
1512.064286,33895
1515.429781,33666.8
1518.790642,33578.6
1522.146879,33697.4
1525.498505,33437
1528.845529,33439.2
1532.187965,34419.2
1535.525822,34449.2
1538.859112,34529.2
1542.187846,35446.6
1545.512036,34913.2
1548.831693,36694.2
1552.146829,36847.6
1555.457453,36659
1558.763579,36875.4
1562.065216,38604
1565.362377,40135
1568.655073,41437.8
1571.943315,42445.2
1575.227114,43208.6
1578.506482,43666.4
1581.781431,44362.6
1585.051971,43978
1588.318114,44361.6
1591.579872,44060.2
1594.837255,42705.8
1598.090275,41232.2
1601.338945,39613.4
1604.583274,38915.4
1607.823275,37359.6
1611.058959,35542.2
1614.290338,34132.2
1617.517422,31626.8
1620.740224,30348.8
1623.958755,28984.6
1627.173027,28193
1630.38305,27526.4
1633.588838,27140.4
1636.7904,26778.8
1639.987749,26781
1643.180896,26530.2
1646.369853,25622
1649.554632,26281
1652.735244,25157.4
1655.9117,24537.2
1659.084013,24549.6
1662.252193,25028
1665.416254,23813.8
1668.576205,23998
1671.732059,24150
1674.883828,23963
1678.031523,23219.8
1681.175157,23258.4
1684.314739,23096.6
1687.450284,22770.4
1690.581801,22679.8
1693.709304,22229.2
1696.832803,22265.2
1699.952311,22263.2
1703.067839,22123.4
1706.179399,22159.4
1709.287003,22450.6
1712.390663,21936.8
1715.49039,21784.8
1718.586197,22063.4
1721.678095,21800.6
1724.766096,21667
1727.850213,20959.2
1730.930456,21326.4
1734.006838,21017
1737.079372,21143.4
1740.148067,20730
1743.212938,21893.4
1746.273996,20880.4
1749.331252,20795.2
1752.384718,20607
1755.434408,20679.6
1758.480332,20522.8
1761.522503,20504
1764.560933,20138.4
1767.595634,19708.2
1770.626618,20412.6
1773.653896,20579.6
1776.677482,20055.2
1779.697388,20020
1782.713625,20557
1785.726205,20489
1788.735141,20411.2
1791.740445,20048.4
1794.742129,19752
1797.740206,20353.6
1800.734687,20521
1803.725585,20143.2
1806.712912,20025.2
1809.69668,19659.4
1812.676902,19699
1815.65359,19185.4
1818.626756,19347.2
1821.596413,19498.6
1824.562573,19190.2
1827.525247,19579
1830.48445,19297.6
1833.440192,19507.2
1836.392487,19306.2
1839.341347,19437.6
1842.286784,19346.8
1845.22881,18954.4
1848.167439,19593
1851.102682,19420.2
1854.034553,19161.6
1856.963063,19069
1859.888226,20023.8
1862.810053,19416.6
1865.728557,19327
1868.643751,18890.6
1871.555648,18870.4
1874.46426,18456.4
1877.369599,19354.8
1880.271679,19049.8
1883.170512,18875.2
1886.06611,19402.4
1888.958487,19110.8
1891.847655,18942.4
1894.733626,19110
1897.616414,19197
1900.496032,18681.4
1903.372491,19085.2
1906.245805,19377.4
1909.115987,19331.4
1911.983049,19244.2
1914.847004,19116.8
1917.707866,19326
1920.565646,19001
1923.420359,18638.2
1926.272016,18944
1929.120631,18584.8
1931.966216,18917
1934.808786,18839.2
1937.648351,18952.4
1940.484927,19033.4
1943.318525,19119
1946.149158,19414
1948.97684,20533.8
1951.801584,19430.2
1954.623403,19139.4
1957.44231,19066
1960.258318,18692.8
1963.071439,18510.4
1965.881688,18752
1968.689078,18996.8
1971.493621,18706.6
