Ramanshift[cm-1],Intensity
-93.47115107,18269.6
-87.69374369,16698
-81.9253076,16384.4
-76.16582701,16643.4
-70.41528615,16750.8
-64.67366933,16331.6
-58.94096086,16295.8
-53.21714512,16514.4
-47.50220652,16714.4
-41.79612954,16870.6
-36.09889866,17270.8
-30.41049843,17334.2
-24.73091343,16864.8
-19.0601283,16946.2
-13.39812769,16688.8
-7.744896327,16458.2
-2.100418946,16097.4
3.535319659,16972.4
9.162334658,16184
14.78064118,16538.8
20.39025432,16098.4
25.99118913,16287.8
31.58346061,16722
37.16708375,16475.8
42.74207347,15987.4
48.30844468,16142.8
53.86621222,15919
59.41539093,15477
64.95599558,15567.2
70.48804091,15947
76.01154164,15978.2
81.52651243,15357.6
87.03296792,15917.4
92.5309227,16298.2
98.02039134,15461
103.5013884,15932.4
108.9739282,15579.8
114.4380255,15655
119.8936944,15809.4
125.3409495,16837
130.779805,15453.2
136.2102753,15201.2
141.6323747,15318.6
147.0461174,15942.6
152.4515176,15426.8
157.8485895,15354.8
163.2373472,15307.4
168.6178049,15599.8
173.9899766,16083.4
179.3538764,15362.8
184.7095182,15618.6
190.0569161,15806.4
195.396084,15793.4
200.7270358,15251.8
206.0497854,15235.6
211.3643466,14916
216.6707333,15443.8
221.9689593,15055.4
227.2590382,15110.6
232.5409839,15141.6
237.8148101,15066.2
243.0805303,15226.4
248.3381582,15237.6
253.5877075,14935.4
258.8291917,15169.4
264.0626244,15192.4
269.288019,15590.2
274.5053891,15603.8
279.7147481,15339.4
284.9161094,15265.6
290.1094865,16137
295.2948927,18861.2
300.4723414,25179
305.6418459,33435
310.8034194,41103.4
315.9570752,45995.4
321.1028267,47713
326.2406869,48125.4
331.370669,49004.6
336.4927863,49885.2
341.6070517,50546.6
346.7134786,51531
351.8120798,52526.4
356.9028684,52642.2
361.9858576,52399.8
367.0610602,52933
372.1284892,52824.2
377.1881577,54223
382.2400784,56613.6
387.2842644,59124.8
392.3207284,59841
397.3494833,60417.2
402.370542,61924.4
407.3839172,62941
412.3896217,60908.4
417.3876683,58632.4
422.3780697,56141.6
427.3608386,53538.6
432.3359876,52410.4
437.3035295,50762.6
442.2634769,49698.4
447.2158423,47820.2
452.1606383,47727.4
457.0978776,47331.6
462.0275727,46777.6
466.9497361,47072.8
471.8643802,46336
476.7715176,47627.2
481.6711608,48761
486.5633221,49894.2
491.448014,49342
496.3252488,48445.4
501.195039,47936.6
506.0573969,47981.2
510.9123349,46797.8
515.7598651,45743.8
520.6,45258
525.4327518,44886.4
530.2581327,44693.8
535.076155,44002.6
539.8868309,44977
544.6901726,44886.8
549.4861922,43612.6
554.2749019,44211.8
559.0563139,43216.4
563.8304402,42773.8
568.597293,43591
573.3568844,42716.6
578.1092263,41873.4
582.8543308,42311.6
587.5922101,42296
592.322876,41704.6
597.0463405,41704.8
601.7626157,42172
606.4717135,41564.8
611.1736458,41506.4
615.8684246,41127.2
620.5560617,41855.4
625.2365691,41659.4
629.9099585,42040.2
634.5762419,42086.6
639.2354312,41555.8
643.887538,41890.4
648.5325743,41370.2
653.1705518,41026
657.8014823,41237.2
662.4253775,40434.8
667.0422493,40751.4
671.6521092,40594.2
676.2549691,40764
680.8508407,40413.2
685.4397355,40471
690.0216654,40685.6
694.5966419,40424.8
699.1646767,41327
703.7257814,41658.8
708.2799676,42141
712.827247,43019
717.367631,42727.8
721.9011314,42102.6
726.4277595,40987.8
730.9475271,41340
735.4604456,41093
739.9665264,41038.8
744.4657813,40355.6
748.9582215,39654.8
753.4438587,38746.4
757.9227042,38151.6
762.3947696,38515
766.8600662,37626.8
771.3186056,39390.6
775.770399,37944
780.215458,38116.8
784.6537939,37196.2
789.0854181,37306.2
793.510342,37372
797.9285769,38213.2
802.3401342,37978.6
806.7450253,38124.6
811.1432614,37942.2
815.5348538,37626.4
819.9198139,37128.6
824.2981531,37440.6
828.6698824,37008.8
833.0350133,36490.6
837.393557,35566.6
841.7455248,36049.2
846.0909278,35347.2
850.4297774,35478
854.7620848,35258.2
859.0878611,35420.6
863.4071176,34651.6
867.7198655,35503.4
872.026116,35847
876.3258802,36121.8
880.6191693,35630.2
884.9059946,35671.6
889.186367,36014.2
893.4602979,34560.8
897.7277982,34794.6
901.9888793,35593.6
906.2435521,36433.2
910.4918277,36076.8
914.7337174,36616.8
918.9692321,37071.6
923.1983831,37778.6
927.4211813,37314.6
931.6376378,38372.8
935.8477637,38056.8
940.0515701,38544.8
944.249068,38918
948.4402684,38057.2
952.6251825,38853.4
956.8038212,38688.4
960.9761955,39776
965.1423166,39352
969.3021953,39350
973.4558427,39294.4
977.6032699,39403.8
981.7444877,39306.2
985.8795072,39327.8
990.0083394,39218.6
994.1309953,38901.6
998.2474857,39600.2
1002.357822,39678.8
1006.462014,41317.6
1010.560075,40861.6
1014.652013,39502
1018.737841,38990.4
1022.81757,38786.6
1026.891209,38843
1030.958771,38218.2
1035.020266,38032.6
1039.075705,37725.2
1043.1251,37855.2
1047.16846,38931.6
1051.205797,39724.4
1055.237121,41694.8
1059.262444,45452.4
1063.281777,51923.4
1067.295131,55941.6
1071.302515,57496.2
1075.303942,58356.8
1079.299422,60123.6
1083.288966,62050.2
1087.272585,60186.6
1091.250289,55405.6
1095.222091,52745.4
1099.187999,50862.2
1103.148026,48121.2
1107.102183,44261
1111.050479,42172.8
1114.992927,41638.6
1118.929536,42080.2
1122.860318,44618.6
1126.785283,48049.2
1130.704443,54659.2
1134.617808,56768.4
1138.52539,58144
1142.427198,59103.2
1146.323244,60076.8
1150.213538,61660.2
1154.098093,59138.2
1157.976917,55371.2
1161.850023,54128
1165.717421,53594.8
1169.579121,49907.8
1173.435135,47513.8
1177.285474,44955.8
1181.130148,45010.8
1184.969169,45652.8
1188.802547,45670
1192.630292,44940.2
1196.452416,43081.4
1200.26893,42132.2
1204.079844,40596.2
1207.88517,39575
1211.684917,39911.6
1215.479098,38325.6
1219.267722,39474
1223.050801,37079.8
1226.828346,36926.4
1230.600366,37041
1234.366874,37118.8
1238.12788,36933.4
1241.883395,36908
1245.633429,37163.4
1249.377994,37201.2
1253.1171,36576.4
1256.850759,36640.2
1260.578981,36529
1264.301776,36611.6
1268.019157,36495.8
1271.731133,36094.8
1275.437715,35945.8
1279.138915,36714.8
1282.834743,36971.6
1286.52521,36411.2
1290.210328,36136.2
1293.890106,36628.2
1297.564555,38014
1301.233688,38148.2
1304.897514,39108.2
1308.556044,39056
1312.209289,38848
1315.857261,37780.8
1319.499969,37719.8
1323.137425,39114.2
1326.769641,38104.8
1330.396626,38670
1334.018391,37684.2
1337.634948,37734.2
1341.246307,37547.2
1344.85248,37267.8
1348.453477,37621.4
1352.049309,37609.2
1355.639987,38388
1359.225522,39176.6
1362.805925,38980.4
1366.381207,39247.8
1369.951379,40220.2
1373.516452,40861.8
1377.076436,42606.8
1380.631343,44595.6
1384.181184,47888.2
1387.725969,51665
1391.26571,52864.6
1394.800417,50756.2
1398.330102,47007.8
1401.854776,44845
1405.374448,43704.8
1408.889132,44122.6
1412.398837,43325.2
1415.903574,43315.8
1419.403355,44823.2
1422.89819,47072.4
1426.388091,51426.6
1429.873069,55091.6
1433.353134,55378.8
1436.828298,55900.8
1440.298571,54387.2
1443.763965,52100.2
1447.224491,50525.4
1450.68016,48951.2
1454.130983,47530.4
1457.576971,44973.2
1461.018135,42813.6
1464.454486,40957.4
1467.886036,39138.8
1471.312794,38406.8
1474.734774,36915.2
1478.151985,36479.8
1481.564439,35089
1484.972146,34275
1488.375119,33898
1491.773368,34340.8
1495.166904,34782.6
1498.555739,33517.8
1501.939883,33483.2
1505.319349,32764.2
1508.694146,33044.4
1512.064286,33146.2
1515.429781,33020.4
1518.790642,32848.6
1522.146879,33230.6
1525.498505,32704
1528.845529,32643.8
1532.187965,33890.6
1535.525822,33852.8
1538.859112,34173.2
1542.187846,34922.6
1545.512036,34634.8
1548.831693,36290.4
1552.146829,36467.6
1555.457453,36769
1558.763579,37231.2
1562.065216,39122.2
1565.362377,40909.8
1568.655073,42601.4
1571.943315,43806
1575.227114,44393.6
1578.506482,44917.2
1581.781431,44649.2
1585.051971,43894.8
1588.318114,43508.4
1591.579872,42853.8
1594.837255,40596.6
1598.090275,38246.2
1601.338945,36454.4
1604.583274,35521.8
1607.823275,34027.6
1611.058959,32468
1614.290338,31776.8
1617.517422,29871.4
1620.740224,29186.4
1623.958755,28177
1627.173027,27449.4
1630.38305,26684.4
1633.588838,26558.4
1636.7904,26156.4
1639.987749,26071.6
1643.180896,26058.8
1646.369853,24933.4
1649.554632,25555.8
1652.735244,24387
1655.9117,23862.6
1659.084013,23984
1662.252193,24468.8
1665.416254,23153.8
1668.576205,23591.8
1671.732059,23498.2
1674.883828,23461
1678.031523,22615.4
1681.175157,22750
1684.314739,22429.2
1687.450284,22255.6
1690.581801,22153.8
1693.709304,21688
1696.832803,21808.4
1699.952311,21747.6
1703.067839,21784.6
1706.179399,21557.2
1709.287003,21943.6
1712.390663,21337.4
1715.49039,21365.6
1718.586197,21698
1721.678095,21432.2
1724.766096,21303.8
1727.850213,20594.6
1730.930456,20760.4
1734.006838,20675.8
1737.079372,20747.6
1740.148067,20330.6
1743.212938,21590.4
1746.273996,20532.4
1749.331252,20550.4
1752.384718,20310
1755.434408,20404.4
1758.480332,20299.8
1761.522503,20290.4
1764.560933,19893.8
1767.595634,19462.8
1770.626618,20279
1773.653896,20278.2
1776.677482,19741.4
1779.697388,19604.6
1782.713625,20401.8
1785.726205,20217.6
1788.735141,20225.4
1791.740445,19729.2
1794.742129,19366
1797.740206,20088
1800.734687,20235
1803.725585,19982
1806.712912,19755.8
1809.69668,19445.6
1812.676902,19586.8
1815.65359,19051.2
1818.626756,19097.2
1821.596413,19234.4
1824.562573,18894.6
1827.525247,19372
1830.48445,19222.6
1833.440192,19367
1836.392487,19052.4
1839.341347,19319.6
1842.286784,19203
1845.22881,18697.2
1848.167439,19441.4
1851.102682,19220.2
1854.034553,19065.4
1856.963063,18998.6
1859.888226,19890
1862.810053,19241
1865.728557,19002
1868.643751,18737.4
1871.555648,18701.6
1874.46426,18292.4
1877.369599,19172.6
1880.271679,18946.8
1883.170512,18734
1886.06611,19157
1888.958487,18943
1891.847655,18714.2
1894.733626,18910.8
1897.616414,18910.2
1900.496032,18515.8
1903.372491,18867.2
1906.245805,19215.4
1909.115987,19297.2
1911.983049,19171.4
1914.847004,19101.6
1917.707866,19105.8
1920.565646,18894.8
1923.420359,18472.6
1926.272016,18878.6
1929.120631,18476.8
1931.966216,18729.6
1934.808786,18740.2
1937.648351,18918.2
1940.484927,18815.6
1943.318525,18836
1946.149158,19268.4
1948.97684,20390
1951.801584,19207.8
1954.623403,18900
1957.44231,18993.2
1960.258318,18548.2
1963.071439,18367.2
1965.881688,18617.8
1968.689078,18843.8
1971.493621,18514
