Ramanshift[cm-1],Intensity
-93.47115107,25822.4
-87.69374369,23358
-81.9253076,22986
-76.16582701,23425.6
-70.41528615,23579.6
-64.67366933,22812.2
-58.94096086,22876.8
-53.21714512,23024.2
-47.50220652,23212.6
-41.79612954,23589.6
-36.09889866,24154
-30.41049843,24095.6
-24.73091343,23595.8
-19.0601283,23625.4
-13.39812769,23165.8
-7.744896327,22926.8
-2.100418946,22603.2
3.535319659,23655.4
9.162334658,22591.4
14.78064118,23001.4
20.39025432,22491.6
25.99118913,22692.4
31.58346061,23275.6
37.16708375,22902.4
42.74207347,22226.8
48.30844468,22297.6
53.86621222,21938.6
59.41539093,21513.2
64.95599558,21384.8
70.48804091,22243.4
76.01154164,22377.2
81.52651243,21252.4
87.03296792,22186
92.5309227,22822.4
98.02039134,21511.4
103.5013884,22055
108.9739282,21517.4
114.4380255,21802.8
119.8936944,22094.8
125.3409495,23502
130.779805,21605.4
136.2102753,21108
141.6323747,21131.4
147.0461174,22130.4
152.4515176,21414.4
157.8485895,21266.2
163.2373472,21010.4
168.6178049,21506
173.9899766,22050.2
179.3538764,21489
184.7095182,21565.8
190.0569161,21925.6
195.396084,21991.2
200.7270358,21004
206.0497854,21150.4
211.3643466,20508.8
216.6707333,21284
221.9689593,20697
227.2590382,20889.6
232.5409839,20841.4
237.8148101,20750
243.0805303,20842.4
248.3381582,20955
253.5877075,20634.6
258.8291917,20928.4
264.0626244,21020.6
269.288019,21457
274.5053891,21415.4
279.7147481,21066.4
284.9161094,20555.8
290.1094865,21284
295.2948927,23055.2
300.4723414,26860.6
305.6418459,30751
310.8034194,34390.4
315.9570752,37607.8
321.1028267,38308.6
326.2406869,38070.6
331.370669,38523.8
336.4927863,38619.8
341.6070517,39006
346.7134786,39331.4
351.8120798,39933.4
356.9028684,39201.4
361.9858576,39402.2
367.0610602,40143.8
372.1284892,39426.8
377.1881577,39921
382.2400784,39526.4
387.2842644,39141.4
392.3207284,39628.8
397.3494833,39163.4
402.370542,40190.8
407.3839172,40714.8
412.3896217,41736.4
417.3876683,42752
422.3780697,43463
427.3608386,42895
432.3359876,42682.2
437.3035295,41561.6
442.2634769,40886
447.2158423,38660.6
452.1606383,38279.2
457.0978776,38422.4
462.0275727,37062.2
466.9497361,37931
471.8643802,36925.8
476.7715176,37707.2
481.6711608,37411
486.5633221,37585
491.448014,37414
496.3252488,37349.8
501.195039,37694.4
506.0573969,38176
510.9123349,38020
515.7598651,37239
520.6,38044
525.4327518,38052
530.2581327,37590.2
535.076155,36235
539.8868309,36859.2
544.6901726,36897.2
549.4861922,36463
554.2749019,37927
559.0563139,36177.8
563.8304402,36152.8
568.597293,38153.6
573.3568844,37467.6
578.1092263,36475.8
582.8543308,37005
587.5922101,37104.4
592.322876,36515.2
597.0463405,36498
601.7626157,36820.2
606.4717135,35901.2
611.1736458,35656.2
615.8684246,35773.4
620.5560617,36099
625.2365691,35638.4
629.9099585,36015.6
634.5762419,36210.6
639.2354312,35081.4
643.887538,35414.6
648.5325743,34905.6
653.1705518,35073.6
657.8014823,35497.4
662.4253775,34332
667.0422493,34990.8
671.6521092,34801.8
676.2549691,34898.8
680.8508407,34843.8
685.4397355,34651
690.0216654,34747.6
694.5966419,34374.6
699.1646767,35474.2
703.7257814,35065.6
708.2799676,35281.4
712.827247,35321.2
717.367631,34614.6
721.9011314,34660.8
726.4277595,33543.2
730.9475271,34704.4
735.4604456,34713.2
739.9665264,35465.6
744.4657813,34785
748.9582215,34373.4
753.4438587,33534
757.9227042,32737.6
762.3947696,33633.2
766.8600662,32616.8
771.3186056,34779.6
775.770399,33034.6
780.215458,33685.6
784.6537939,32376.2
789.0854181,32322.8
793.510342,32404.8
797.9285769,33172.6
802.3401342,32471.8
806.7450253,32462
811.1432614,32245.2
815.5348538,31647.2
819.9198139,31249
824.2981531,31918
828.6698824,32047
833.0350133,31923.6
837.393557,31330.8
841.7455248,31953.6
846.0909278,31520
850.4297774,31343
854.7620848,31448.4
859.0878611,31755.4
863.4071176,30672.2
867.7198655,31769.8
872.026116,32411.4
876.3258802,32855.4
880.6191693,32063.8
884.9059946,32267
889.186367,32516.2
893.4602979,30419.2
897.7277982,30336
901.9888793,31099.8
906.2435521,31877.2
910.4918277,30539.6
914.7337174,30522.6
918.9692321,30191.4
923.1983831,31241.4
927.4211813,30678.2
931.6376378,31866.8
935.8477637,31136.2
940.0515701,31694.6
944.249068,31794.8
948.4402684,30568.6
952.6251825,31812.8
956.8038212,31139.2
960.9761955,32311.4
965.1423166,31566.2
969.3021953,31713.6
973.4558427,31775.6
977.6032699,31266.4
981.7444877,31647.2
985.8795072,31801
990.0083394,31886.4
994.1309953,31352.6
998.2474857,32034.2
1002.357822,30548.4
1006.462014,31638.4
1010.560075,31169.6
1014.652013,31872
1018.737841,32389.8
1022.81757,31783.8
1026.891209,31756.2
1030.958771,31391
1035.020266,31941
1039.075705,31577.8
1043.1251,31207.6
1047.16846,31664.8
1051.205797,31345.2
1055.237121,30501.6
1059.262444,30503.2
1063.281777,30222
1067.295131,30504.2
1071.302515,32103.8
1075.303942,31033.4
1079.299422,33016.8
1083.288966,33073.4
1087.272585,34192.4
1091.250289,36027.2
1095.222091,37971.4
1099.187999,38922.4
1103.148026,40059.2
1107.102183,39479
1111.050479,38487.2
1114.992927,36501.8
1118.929536,34597.4
1122.860318,33839.8
1126.785283,32212
1130.704443,31782.6
1134.617808,32919
1138.52539,32823
1142.427198,32703
1146.323244,33084.6
1150.213538,33233.2
1154.098093,35540.8
1157.976917,36151.4
1161.850023,37310.4
1165.717421,38766.8
1169.579121,38333.8
1173.435135,38464.8
1177.285474,35395
1181.130148,34383.8
1184.969169,33963
1188.802547,33140.8
1192.630292,32110.4
1196.452416,31755.4
1200.26893,32084.8
1204.079844,31460.8
1207.88517,31323.4
1211.684917,32597.8
1215.479098,31865
1219.267722,34316.8
1223.050801,31510.8
1226.828346,31454.4
1230.600366,31980.6
1234.366874,31541.4
1238.12788,31145.2
1241.883395,31086
1245.633429,31703
1249.377994,31861
1253.1171,30672.2
1256.850759,31478.2
1260.578981,31258.8
1264.301776,31506.6
1268.019157,31143
1271.731133,30732.2
1275.437715,30829.8
1279.138915,31659.6
1282.834743,32044.4
1286.52521,31210.4
1290.210328,30914.2
1293.890106,31264.8
1297.564555,32046.8
1301.233688,31029.6
1304.897514,31640.6
1308.556044,31940.4
1312.209289,32061.8
1315.857261,31047.6
1319.499969,31541.8
1323.137425,33203.8
1326.769641,32430.4
1330.396626,33910
1334.018391,32714.2
1337.634948,33132
1341.246307,32640.8
1344.85248,32495.4
1348.453477,32138.4
1352.049309,31921.8
1355.639987,32029.6
1359.225522,33511.4
1362.805925,32435.8
1366.381207,32444.4
1369.951379,32715.2
1373.516452,33035.8
1377.076436,33174.8
1380.631343,32954.4
1384.181184,32739.4
1387.725969,33071
1391.26571,32662.8
1394.800417,32872.6
1398.330102,33444.8
1401.854776,34178.6
1405.374448,34229
1408.889132,34203
1412.398837,33892.2
1415.903574,34421.4
1419.403355,35318.4
1422.89819,34063
1426.388091,33261.4
1429.873069,33193.8
1433.353134,31859
1436.828298,31539
1440.298571,31972.8
1443.763965,32220
1447.224491,32853.4
1450.68016,33521.2
1454.130983,35046
1457.576971,35283.6
1461.018135,35683.6
1464.454486,35496.2
1467.886036,33791.8
1471.312794,33086.4
1474.734774,31715.8
1478.151985,32458.2
1481.564439,31333.2
1484.972146,30548.2
1488.375119,29893.8
1491.773368,30329.4
1495.166904,31248.2
1498.555739,29973.8
1501.939883,30356.6
1505.319349,29668.6
1508.694146,30144
1512.064286,30193
1515.429781,30136.8
1518.790642,29416.2
1522.146879,29790.2
1525.498505,28870.2
1528.845529,28803.4
1532.187965,29722.8
1535.525822,29593.6
1538.859112,29493.4
1542.187846,30416.2
1545.512036,29053.2
1548.831693,31123.4
1552.146829,30298.4
1555.457453,29141.6
1558.763579,28111
1562.065216,29276.4
1565.362377,29721
1568.655073,30259.2
1571.943315,29643
1575.227114,29509
1578.506482,29484.6
1581.781431,30351.2
1585.051971,29637.4
1588.318114,29858.6
1591.579872,30489
1594.837255,30595.8
1598.090275,30830.2
1601.338945,31171.8
1604.583274,32115.4
1607.823275,31713.6
1611.058959,30840.4
1614.290338,31456.8
1617.517422,29989.4
1620.740224,30339.2
1623.958755,29356
1627.173027,28790
1630.38305,27786.2
1633.588838,28272
1636.7904,27333
1639.987749,27604
1643.180896,27486
1646.369853,26124.4
1649.554632,27406
1652.735244,26215.8
1655.9117,25404.2
1659.084013,25855.6
1662.252193,26572.6
1665.416254,24976.6
1668.576205,25433
1671.732059,25759
1674.883828,25716.6
1678.031523,24614.6
1681.175157,24938.6
1684.314739,24503
1687.450284,24339.8
1690.581801,24358.6
1693.709304,23917.2
1696.832803,23661.4
1699.952311,23931.8
1703.067839,23929.2
1706.179399,24059.2
1709.287003,24793.6
1712.390663,23958.6
1715.49039,23724
1718.586197,24232
1721.678095,24013.8
1724.766096,24062.8
1727.850213,22999.2
1730.930456,23645.6
1734.006838,23193.8
1737.079372,23790
1740.148067,23150
1743.212938,24871.8
1746.273996,23435.4
1749.331252,23356.4
1752.384718,23160.8
1755.434408,23243.2
1758.480332,23240.6
1761.522503,23342.2
1764.560933,22820.4
1767.595634,22113.8
1770.626618,23338.8
1773.653896,23486.2
1776.677482,22639.2
1779.697388,22601.2
1782.713625,23699.6
1785.726205,23515.6
1788.735141,23616.4
1791.740445,22789.4
1794.742129,22512.6
1797.740206,23582.6
1800.734687,23650.2
1803.725585,23162.8
1806.712912,23115.2
1809.69668,22455.8
1812.676902,22650.8
1815.65359,22060.6
1818.626756,22207.4
1821.596413,22460.6
1824.562573,22115
1827.525247,22707.6
1830.48445,22265
1833.440192,22352.2
1836.392487,22215.4
1839.341347,22586.2
1842.286784,22494
1845.22881,21922
1848.167439,22907.6
1851.102682,22421.6
1854.034553,22263
1856.963063,21934.2
1859.888226,23637
1862.810053,22744
1865.728557,22413.2
1868.643751,21999.2
1871.555648,21997
1874.46426,21305.2
1877.369599,22691
1880.271679,22354.4
1883.170512,21935.4
1886.06611,23070.2
1888.958487,22536.8
1891.847655,22276.4
1894.733626,22524.6
1897.616414,22766
1900.496032,21930
1903.372491,22539.4
1906.245805,23020.4
1909.115987,22903.8
1911.983049,22968.8
1914.847004,22662.8
1917.707866,22923.4
1920.565646,22758
1923.420359,22080.6
1926.272016,22573.6
1929.120631,22054.8
1931.966216,22528.6
1934.808786,22311.6
1937.648351,22876
1940.484927,22667.8
1943.318525,22976
1946.149158,23503.6
1948.97684,25262.6
1951.801584,23449.8
1954.623403,22871.8
1957.44231,22998.4
1960.258318,22240.6
1963.071439,22348
1965.881688,22598
1968.689078,22997.2
1971.493621,22463.6
