Ramanshift[cm-1],Intensity
-93.47115107,21016.6
-87.69374369,18884.6
-81.9253076,18647.6
-76.16582701,18961.2
-70.41528615,19037.4
-64.67366933,18379.6
-58.94096086,18528.8
-53.21714512,18740.6
-47.50220652,19055.6
-41.79612954,19181.4
-36.09889866,19548
-30.41049843,19652.4
-24.73091343,19011
-19.0601283,19211.6
-13.39812769,18862.4
-7.744896327,18650.2
-2.100418946,18380.6
3.535319659,19234.6
9.162334658,18304.2
14.78064118,18700
20.39025432,18167.4
25.99118913,18223.8
31.58346061,19068.8
37.16708375,18867.2
42.74207347,18107
48.30844468,18108.4
53.86621222,17911
59.41539093,17521.8
64.95599558,17516.4
70.48804091,17992.4
76.01154164,18164.6
81.52651243,17442.4
87.03296792,18069
92.5309227,18545.2
98.02039134,17560.4
103.5013884,18011.6
108.9739282,17602.8
114.4380255,17747.2
119.8936944,17851.8
125.3409495,19206.2
130.779805,17663
136.2102753,17314.6
141.6323747,17341.6
147.0461174,18090.2
152.4515176,17472
157.8485895,17323.6
163.2373472,17291
168.6178049,17612.8
173.9899766,18123.2
179.3538764,17496.6
184.7095182,17612.8
190.0569161,17889.8
195.396084,18038.2
200.7270358,17155.2
206.0497854,17353.6
211.3643466,16861.4
216.6707333,17509.6
221.9689593,17006.8
227.2590382,17300.8
232.5409839,17221.4
237.8148101,17131
243.0805303,17315.4
248.3381582,17279.8
253.5877075,17077.2
258.8291917,17433.6
264.0626244,17528.2
269.288019,17930.6
274.5053891,18048.2
279.7147481,18643.6
284.9161094,21181
290.1094865,31361
295.2948927,61439.6
300.4723414,64166.4
305.6418459,64166.4
310.8034194,64166.2
315.9570752,64167.4
321.1028267,64166.2
326.2406869,64166.4
331.370669,64166.2
336.4927863,64166.8
341.6070517,64166.6
346.7134786,64166
351.8120798,64165.8
356.9028684,64166
361.9858576,64166.2
367.0610602,64166
372.1284892,64165.8
377.1881577,64166.6
382.2400784,64165.4
387.2842644,64165.4
392.3207284,64166.2
397.3494833,64165.6
402.370542,64165.6
407.3839172,64165.6
412.3896217,64165.2
417.3876683,64165.6
422.3780697,64165.6
427.3608386,64165.4
432.3359876,64165.4
437.3035295,64166.4
442.2634769,64165
447.2158423,64165.2
452.1606383,64165
457.0978776,64164.8
462.0275727,64164.6
466.9497361,64165.2
471.8643802,64165.6
476.7715176,64165.2
481.6711608,64165.6
486.5633221,64165
491.448014,64165.2
496.3252488,64165.8
501.195039,64166
506.0573969,64165.6
510.9123349,64164.8
515.7598651,64165.4
520.6,64165.6
525.4327518,64165.8
530.2581327,64166.2
535.076155,64165.6
539.8868309,64165.2
544.6901726,64166.2
549.4861922,64165.6
554.2749019,64166
559.0563139,64165
563.8304402,64166
568.597293,64166.2
573.3568844,64166.4
578.1092263,64165.8
582.8543308,64166.4
587.5922101,64165.4
592.322876,64166.8
597.0463405,64165.8
601.7626157,64166.2
606.4717135,64166.4
611.1736458,64166.4
615.8684246,64165.8
620.5560617,64165.8
625.2365691,64165.6
629.9099585,64165.2
634.5762419,64165.8
639.2354312,64165.2
643.887538,64164.8
648.5325743,64165.4
653.1705518,64165
657.8014823,64164.6
662.4253775,64164.4
667.0422493,64164.6
671.6521092,64164.4
676.2549691,64164.6
680.8508407,64164.2
685.4397355,64164.6
690.0216654,64164.2
694.5966419,64165.4
699.1646767,64164.6
703.7257814,64165
708.2799676,64164.8
712.827247,64166
717.367631,64165.2
721.9011314,64165.2
726.4277595,64165.4
730.9475271,64165.6
735.4604456,64166.2
739.9665264,64166.6
744.4657813,64166.6
748.9582215,64167
753.4438587,64167
757.9227042,64166.8
762.3947696,64166.8
766.8600662,64167.2
771.3186056,64167
775.770399,64167.6
780.215458,64167.8
784.6537939,64167.6
789.0854181,64166.8
793.510342,64168.2
797.9285769,64167.6
802.3401342,64167.2
806.7450253,64167.4
811.1432614,64167
815.5348538,64166.8
819.9198139,64166.4
824.2981531,64166.6
828.6698824,64166.8
833.0350133,64166.4
837.393557,64166
841.7455248,64165.8
846.0909278,64165.6
850.4297774,64166
854.7620848,64165.8
859.0878611,64166.2
863.4071176,64165.8
867.7198655,64165.6
872.026116,64165.4
876.3258802,64166
880.6191693,64166
884.9059946,64165.6
889.186367,64165.4
893.4602979,64165.8
897.7277982,64165.8
901.9888793,64165
906.2435521,64166.2
910.4918277,64165.6
914.7337174,64165.4
918.9692321,64166
923.1983831,64165.8
927.4211813,64165.8
931.6376378,64165.6
935.8477637,64165.8
940.0515701,64165.6
944.249068,64165.2
948.4402684,64165.6
952.6251825,64165.8
956.8038212,64165.6
960.9761955,64165.4
965.1423166,64164.6
969.3021953,64164.8
973.4558427,64165.4
977.6032699,64165.6
981.7444877,64165.6
985.8795072,64166.4
990.0083394,64165.4
994.1309953,64166
998.2474857,64166.2
1002.357822,64165.8
1006.462014,64165.8
1010.560075,64166.2
1014.652013,64166
1018.737841,64166.2
1022.81757,64166.6
1026.891209,64166.2
1030.958771,64166
1035.020266,64165.4
1039.075705,64165.6
1043.1251,64165.8
1047.16846,64165.4
1051.205797,64166.6
1055.237121,64165.4
1059.262444,64165.2
1063.281777,64165.4
1067.295131,64165.2
1071.302515,64165.6
1075.303942,64165.2
1079.299422,64165.4
1083.288966,64165.4
1087.272585,64165
1091.250289,64165.4
1095.222091,64165.8
1099.187999,64166
1103.148026,64165.4
1107.102183,64166.4
1111.050479,64166.8
1114.992927,64166.4
1118.929536,64166.2
1122.860318,64166.2
1126.785283,64167.2
1130.704443,64166.6
1134.617808,64167
1138.52539,64166.4
1142.427198,64167.2
1146.323244,64167
1150.213538,64167.2
1154.098093,64167.4
1157.976917,64166.8
1161.850023,64167.2
1165.717421,64167.2
1169.579121,64168
1173.435135,64167.6
1177.285474,64167.2
1181.130148,64167.2
1184.969169,64166.6
1188.802547,64167
1192.630292,64166.2
1196.452416,64166.8
1200.26893,64166.8
1204.079844,64166.2
1207.88517,64166.8
1211.684917,64166.8
1215.479098,64166
1219.267722,64166.4
1223.050801,64166.2
1226.828346,64165.8
1230.600366,64165.2
1234.366874,64165.2
1238.12788,64164.8
1241.883395,64165.2
1245.633429,64164.8
1249.377994,64165.4
1253.1171,64164.6
1256.850759,64165.2
1260.578981,64165.6
1264.301776,64165.6
1268.019157,64164.8
1271.731133,64165.4
1275.437715,64165.2
1279.138915,64165.2
1282.834743,64165.2
1286.52521,64165.8
1290.210328,64166
1293.890106,64166.2
1297.564555,64165.8
1301.233688,64166.2
1304.897514,64166.4
1308.556044,64166.8
1312.209289,64166.6
1315.857261,64167.6
1319.499969,64167.4
1323.137425,64167
1326.769641,64167.4
1330.396626,64167.2
1334.018391,64167.2
1337.634948,64167.4
1341.246307,64167.6
1344.85248,64168
1348.453477,64167.6
1352.049309,64167.4
1355.639987,64167.6
1359.225522,64167.6
1362.805925,64167.2
1366.381207,64167.4
1369.951379,64166.6
1373.516452,64167.4
1377.076436,64167
1380.631343,64167.2
1384.181184,64166.4
1387.725969,64166.4
1391.26571,64166
1394.800417,64166.4
1398.330102,64165.8
1401.854776,64165.6
1405.374448,64165.2
1408.889132,64165.2
1412.398837,64164.6
1415.903574,64164.8
1419.403355,64164.4
1422.89819,64164.4
1426.388091,64163.8
1429.873069,64163.4
1433.353134,64163.2
1436.828298,64164.2
1440.298571,64163.8
1443.763965,64163.8
1447.224491,64163.8
1450.68016,64164
1454.130983,64164.8
1457.576971,64165.2
1461.018135,64165.2
1464.454486,64165.4
1467.886036,64165.4
1471.312794,64166.8
1474.734774,64166.4
1478.151985,64167
1481.564439,64166.6
1484.972146,64167
1488.375119,64167.2
1491.773368,64167.4
1495.166904,64167.2
1498.555739,64168.4
1501.939883,64168.6
1505.319349,64168.6
1508.694146,64168.4
1512.064286,64169.2
1515.429781,64168.2
1518.790642,64168.4
1522.146879,64168.6
1525.498505,64168.2
1528.845529,64168.6
1532.187965,64168.4
1535.525822,64168.8
1538.859112,64167.2
1542.187846,64167.4
1545.512036,64168
1548.831693,64167.4
1552.146829,64166.6
1555.457453,64166.4
1558.763579,64166.2
1562.065216,64165.2
1565.362377,64165.2
1568.655073,64165
1571.943315,64164.4
1575.227114,64163.6
1578.506482,64163.2
1581.781431,64163.4
1585.051971,64163.2
1588.318114,64163
1591.579872,64162.4
1594.837255,64162.2
1598.090275,64161.8
1601.338945,64162
1604.583274,64162.8
1607.823275,64162.2
1611.058959,64162.4
1614.290338,64162.8
1617.517422,64163.2
1620.740224,64164.2
1623.958755,64165
1627.173027,64165.4
1630.38305,64165.6
1633.588838,64166.8
1636.7904,64167.6
1639.987749,64167.6
1643.180896,64168.4
1646.369853,64169.2
1649.554632,64169.2
1652.735244,64170.4
1655.9117,64170.6
1659.084013,64171.4
1662.252193,64171.6
1665.416254,64171.6
1668.576205,64172
1671.732059,64171.8
1674.883828,64171.8
1678.031523,64171.4
1681.175157,64171.4
1684.314739,64171
1687.450284,64170.8
1690.581801,64170.4
1693.709304,64170
1696.832803,64169.2
1699.952311,64168.8
1703.067839,64168.2
1706.179399,64167.4
1709.287003,64167
1712.390663,64166.2
1715.49039,64165.2
1718.586197,64164.6
1721.678095,64163.8
1724.766096,64163.8
1727.850213,64163
1730.930456,64162.2
1734.006838,64162.4
1737.079372,64162
1740.148067,64162.4
1743.212938,64162.2
1746.273996,64162.6
1749.331252,64162.8
1752.384718,64162.2
1755.434408,64163.2
1758.480332,64163.6
1761.522503,64164.2
1764.560933,64165.2
1767.595634,64165.8
1770.626618,64166.6
1773.653896,64168.4
1776.677482,64168.6
1779.697388,64169.4
1782.713625,64170.8
1785.726205,64171.2
1788.735141,64172.6
1791.740445,64172.6
1794.742129,64174.6
1797.740206,64175
1800.734687,64175
1803.725585,64175.2
1806.712912,64175.6
1809.69668,64175.6
1812.676902,64176.4
1815.65359,64176.8
1818.626756,64176
1821.596413,64175.4
1824.562573,64174.8
1827.525247,64174
1830.48445,64174.2
1833.440192,64172
1836.392487,64171
1839.341347,64171
1842.286784,64168.8
1845.22881,64167.8
1848.167439,64166.8
1851.102682,64165.8
1854.034553,64164.6
1856.963063,64163
1859.888226,64162.2
1862.810053,64161
1865.728557,64160.6
1868.643751,64159.8
1871.555648,64159.6
1874.46426,64159.4
1877.369599,64158.6
1880.271679,64159.2
1883.170512,64159.2
1886.06611,64159.2
1888.958487,64159.2
1891.847655,64160.4
1894.733626,64161.4
1897.616414,64162.4
1900.496032,64163.4
1903.372491,64165.8
1906.245805,64166.8
1909.115987,64168
1911.983049,64169.6
1914.847004,64170.8
1917.707866,64172.4
1920.565646,64174.8
1923.420359,64174.8
1926.272016,64177
1929.120631,64178.2
1931.966216,64179.4
1934.808786,64180.2
1937.648351,64181.8
1940.484927,64182.2
1943.318525,64182.2
1946.149158,64181.6
1948.97684,64180.4
1951.801584,64177
1954.623403,64173.6
1957.44231,64169.8
1960.258318,64168.4
1963.071439,64173.2
1965.881688,64193.2
1968.689078,64261.8
1971.493621,64481.4
