Ramanshift[cm-1],Intensity
-93.47115107,13844.8
-87.69374369,12579.4
-81.9253076,12369.8
-76.16582701,12426.8
-70.41528615,12551.4
-64.67366933,12275.4
-58.94096086,12192.2
-53.21714512,12330.2
-47.50220652,12544.4
-41.79612954,12517.2
-36.09889866,13017.4
-30.41049843,13123
-24.73091343,12733.8
-19.0601283,12749.2
-13.39812769,12571
-7.744896327,12207
-2.100418946,12096.6
3.535319659,12649.2
9.162334658,12093.8
14.78064118,12472.4
20.39025432,12100
25.99118913,12219.4
31.58346061,12608.2
37.16708375,12494.8
42.74207347,12092.4
48.30844468,12140.4
53.86621222,12031.8
59.41539093,11616
64.95599558,11634.8
70.48804091,12076.4
76.01154164,12159.2
81.52651243,11530.6
87.03296792,12171.2
92.5309227,12319.8
98.02039134,11725.2
103.5013884,11978.8
108.9739282,11750.6
114.4380255,11849.2
119.8936944,11970.6
125.3409495,12898.8
130.779805,11842.4
136.2102753,11615.2
141.6323747,11565.2
147.0461174,12219.2
152.4515176,11792.4
157.8485895,11794.8
163.2373472,11637.6
168.6178049,11878.4
173.9899766,12166
179.3538764,11735.8
184.7095182,11717.8
190.0569161,12015
195.396084,12218.8
200.7270358,11563
206.0497854,11660.8
211.3643466,11375.4
216.6707333,11784.6
221.9689593,11350.8
227.2590382,11519.2
232.5409839,11583.6
237.8148101,11414.6
243.0805303,11457.8
248.3381582,11564.6
253.5877075,11369.6
258.8291917,11574.2
264.0626244,11629.8
269.288019,11784
274.5053891,11875.6
279.7147481,11627.6
284.9161094,11387
290.1094865,11535
295.2948927,11990.4
300.4723414,13269.4
305.6418459,13750.4
310.8034194,14469.4
315.9570752,15469.4
321.1028267,15722.2
326.2406869,15598.2
331.370669,15924.8
336.4927863,15885.2
341.6070517,16045
346.7134786,15921.6
351.8120798,16218
356.9028684,15759.6
361.9858576,16057
367.0610602,16306.4
372.1284892,16053.8
377.1881577,16644.4
382.2400784,16974
387.2842644,17720
392.3207284,18189.4
397.3494833,17494.4
402.370542,17386
407.3839172,16407.2
412.3896217,15842.6
417.3876683,15329
422.3780697,15359.4
427.3608386,15335.6
432.3359876,15791.8
437.3035295,15940.8
442.2634769,15988
447.2158423,15294
452.1606383,15324.8
457.0978776,15690.8
462.0275727,14883.2
466.9497361,15342
471.8643802,14836.2
476.7715176,15343.2
481.6711608,15202.6
486.5633221,15370
491.448014,15279.4
496.3252488,15187
501.195039,15218.6
506.0573969,15547
510.9123349,15252.4
515.7598651,14804.2
520.6,15240.6
525.4327518,15221.4
530.2581327,15226.8
535.076155,14746.4
539.8868309,15122.6
544.6901726,15335.6
549.4861922,14925.8
554.2749019,15933.4
559.0563139,14906.4
563.8304402,14681
568.597293,15626.6
573.3568844,15449.2
578.1092263,14868
582.8543308,15306
587.5922101,15281
592.322876,14939.4
597.0463405,15090.2
601.7626157,15289.2
606.4717135,14794.2
611.1736458,14975.2
615.8684246,14929.6
620.5560617,15203.2
625.2365691,14934.6
629.9099585,15401
634.5762419,15738.6
639.2354312,14965.4
643.887538,15234
648.5325743,14808.8
653.1705518,14899.2
657.8014823,14976.2
662.4253775,14415.4
667.0422493,14823
671.6521092,14847.2
676.2549691,15083.2
680.8508407,14817.8
685.4397355,14754.6
690.0216654,14940.2
694.5966419,14687
699.1646767,15337
703.7257814,14925.2
708.2799676,15105.4
712.827247,15035
717.367631,14850
721.9011314,14770
726.4277595,14330.6
730.9475271,14937.4
735.4604456,14817.6
739.9665264,15293.4
744.4657813,14882.4
748.9582215,14817
753.4438587,14369
757.9227042,14188.6
762.3947696,14835.2
766.8600662,14323.2
771.3186056,15677.2
775.770399,14729
780.215458,15129.8
784.6537939,14343.6
789.0854181,14139
793.510342,14401.4
797.9285769,14936
802.3401342,14357.8
806.7450253,14621.2
811.1432614,14410.2
815.5348538,14309.6
819.9198139,14067.6
824.2981531,14385
828.6698824,14433.2
833.0350133,14233.6
837.393557,13970.4
841.7455248,14291.6
846.0909278,14172.4
850.4297774,14093.4
854.7620848,14208.6
859.0878611,14418.4
863.4071176,13850
867.7198655,14233
872.026116,14649.2
876.3258802,15046.6
880.6191693,14555.4
884.9059946,14643
889.186367,14973.4
893.4602979,14007.8
897.7277982,13925.6
901.9888793,14302.8
906.2435521,14759
910.4918277,14114.6
914.7337174,14017.2
918.9692321,13940.6
923.1983831,14607.2
927.4211813,14200.8
931.6376378,14919.6
935.8477637,14321.2
940.0515701,14598
944.249068,14496.8
948.4402684,13867.6
952.6251825,14755.2
956.8038212,14293.8
960.9761955,14873
965.1423166,14297
969.3021953,14370.4
973.4558427,14438.4
977.6032699,14166.2
981.7444877,14388
985.8795072,14238.8
990.0083394,14331.6
994.1309953,14009.8
998.2474857,14397.6
1002.357822,13577.2
1006.462014,14271.2
1010.560075,13811.4
1014.652013,14281.6
1018.737841,14567.8
1022.81757,14118.6
1026.891209,13994.2
1030.958771,13903.2
1035.020266,14205
1039.075705,13894.6
1043.1251,13664.2
1047.16846,13932.6
1051.205797,13791
1055.237121,13610.4
1059.262444,13506.8
1063.281777,13403
1067.295131,13502.2
1071.302515,14910
1075.303942,14815.2
1079.299422,15623.6
1083.288966,14942
1087.272585,14436.2
1091.250289,14106.6
1095.222091,14046.4
1099.187999,13672.8
1103.148026,13912.2
1107.102183,13691.8
1111.050479,13901
1114.992927,13737.8
1118.929536,13593
1122.860318,13914.8
1126.785283,13376.6
1130.704443,13256.6
1134.617808,13982.2
1138.52539,13898.6
1142.427198,13891.2
1146.323244,14003.2
1150.213538,13502.8
1154.098093,13955.8
1157.976917,13383
1161.850023,13370.2
1165.717421,13887
1169.579121,13581.6
1173.435135,14057.8
1177.285474,13232
1181.130148,13405.6
1184.969169,13728.4
1188.802547,13631.4
1192.630292,13271.6
1196.452416,12943
1200.26893,13139
1204.079844,12828.6
1207.88517,12538.6
1211.684917,13088.4
1215.479098,12755.8
1219.267722,14341.8
1223.050801,12896.8
1226.828346,12882.6
1230.600366,13215.6
1234.366874,13361.4
1238.12788,13016.4
1241.883395,13017.4
1245.633429,13385.4
1249.377994,13427
1253.1171,12580
1256.850759,13030
1260.578981,12887.4
1264.301776,13013.6
1268.019157,12930.4
1271.731133,12644.2
1275.437715,12558
1279.138915,13115.8
1282.834743,13304.6
1286.52521,12911.4
1290.210328,12721.8
1293.890106,12788.4
1297.564555,13330.2
1301.233688,12683.8
1304.897514,12942.2
1308.556044,13202.6
1312.209289,13113.4
1315.857261,12632.4
1319.499969,12647
1323.137425,13478.4
1326.769641,12905.4
1330.396626,13561.4
1334.018391,12963.4
1337.634948,13134
1341.246307,12798.8
1344.85248,12773
1348.453477,12619.6
1352.049309,12542
1355.639987,12596.8
1359.225522,13253.8
1362.805925,12842.8
1366.381207,12890
1369.951379,12900.2
1373.516452,12864.8
1377.076436,13116.4
1380.631343,12917.6
1384.181184,12705.2
1387.725969,12844
1391.26571,12612
1394.800417,12451.6
1398.330102,12658.6
1401.854776,12940.2
1405.374448,12702.2
1408.889132,12279.4
1412.398837,11964.4
1415.903574,12308.8
1419.403355,12859.2
1422.89819,12485.4
1426.388091,12466.2
1429.873069,12977
1433.353134,12352.4
1436.828298,12417.2
1440.298571,12624.4
1443.763965,12408.4
1447.224491,12176.2
1450.68016,12261.6
1454.130983,12783
1457.576971,12676.8
1461.018135,12867.4
1464.454486,12986.6
1467.886036,12444.6
1471.312794,12566.4
1474.734774,12180.2
1478.151985,13042.4
1481.564439,12672.6
1484.972146,12597
1488.375119,12260.2
1491.773368,12546.2
1495.166904,13260
1498.555739,12550
1501.939883,12454.8
1505.319349,12152.2
1508.694146,12479.6
1512.064286,12504.2
1515.429781,12474.6
1518.790642,12308
1522.146879,12505.4
1525.498505,12017.2
1528.845529,12005.8
1532.187965,12821.4
1535.525822,12351.6
1538.859112,12394
1542.187846,12959
1545.512036,12161
1548.831693,13370.4
1552.146829,12866.6
1555.457453,12089.2
1558.763579,11707.6
1562.065216,12241.2
1565.362377,12640.6
1568.655073,12869.6
1571.943315,12654.6
1575.227114,12620
1578.506482,12634.8
1581.781431,13265.6
1585.051971,12878.2
1588.318114,12993.2
1591.579872,12876.2
1594.837255,12695.2
1598.090275,12503.6
1601.338945,12370.4
1604.583274,12712.6
1607.823275,12334
1611.058959,11877.8
1614.290338,13076.6
1617.517422,11852.8
1620.740224,12236.6
1623.958755,11843.2
1627.173027,11950.6
1630.38305,11693.2
1633.588838,12134.4
1636.7904,11820
1639.987749,12127.4
1643.180896,12234.6
1646.369853,11679
1649.554632,12476.4
1652.735244,11867.6
1655.9117,11529.6
1659.084013,11890.4
1662.252193,12535
1665.416254,11648.4
1668.576205,11980
1671.732059,12175.4
1674.883828,12184.6
1678.031523,11775
1681.175157,11821.6
1684.314739,11861.6
1687.450284,11780.8
1690.581801,11719
1693.709304,11531.2
1696.832803,11526.2
1699.952311,11750.8
1703.067839,11895.4
1706.179399,11737.4
1709.287003,12161.8
1712.390663,11707.4
1715.49039,11783.6
1718.586197,12241
1721.678095,12022.6
1724.766096,12014.4
1727.850213,11399.8
1730.930456,11851.4
1734.006838,11566.4
1737.079372,11879.2
1740.148067,11502.8
1743.212938,12665.2
1746.273996,11797.8
1749.331252,11674.6
1752.384718,11844.6
1755.434408,11868.2
1758.480332,11848.6
1761.522503,11829
1764.560933,11593
1767.595634,11387.2
1770.626618,12069
1773.653896,11966.2
1776.677482,11621.2
1779.697388,11634.6
1782.713625,12195.4
1785.726205,12147.8
1788.735141,12122.2
1791.740445,11649.2
1794.742129,11582.6
1797.740206,12045.2
1800.734687,12127
1803.725585,11822.2
1806.712912,11868.4
1809.69668,11563.6
1812.676902,11632
1815.65359,11422.6
1818.626756,11431.4
1821.596413,11729.2
1824.562573,11366.8
1827.525247,11708.6
1830.48445,11437
1833.440192,11574.2
1836.392487,11582.6
1839.341347,11784.8
1842.286784,11687.4
1845.22881,11277
1848.167439,11807.2
1851.102682,11573.4
1854.034553,11505.2
1856.963063,11416.4
1859.888226,12301.2
1862.810053,11781
1865.728557,11661.8
1868.643751,11300.2
1871.555648,11289.2
1874.46426,11115.2
1877.369599,11755.4
1880.271679,11610.6
1883.170512,11366.8
1886.06611,11877.8
1888.958487,11549.2
1891.847655,11592
1894.733626,11669
1897.616414,11750
1900.496032,11316.4
1903.372491,11600.6
1906.245805,11888
1909.115987,11971.2
1911.983049,11835.2
1914.847004,11765.8
1917.707866,12018.4
1920.565646,11899.6
1923.420359,11481
1926.272016,11783.4
1929.120631,11426
1931.966216,11637.8
1934.808786,11538.2
1937.648351,11830.2
1940.484927,11735.2
1943.318525,11903.6
1946.149158,12013.4
1948.97684,13059.4
1951.801584,12146
1954.623403,11894
1957.44231,11949.8
1960.258318,11445
1963.071439,11563.8
1965.881688,11741
1968.689078,11870.2
1971.493621,11664.2
