Ramanshift[cm-1],Intensity
-93.47115107,22962
-87.69374369,20798
-81.9253076,20536.2
-76.16582701,20992
-70.41528615,20979.4
-64.67366933,20466.4
-58.94096086,20438.4
-53.21714512,20567.8
-47.50220652,20777
-41.79612954,21146.4
-36.09889866,21491.2
-30.41049843,21631.2
-24.73091343,21054.2
-19.0601283,21030.6
-13.39812769,20748.4
-7.744896327,20533.8
-2.100418946,20162.8
3.535319659,21029.2
9.162334658,20130.4
14.78064118,20651.6
20.39025432,20021.4
25.99118913,20243.4
31.58346061,20820.4
37.16708375,20547.8
42.74207347,19976.4
48.30844468,20043.4
53.86621222,19635.2
59.41539093,19209.4
64.95599558,19212.6
70.48804091,19874.8
76.01154164,20051.4
81.52651243,19025.6
87.03296792,19816.8
92.5309227,20393.8
98.02039134,19351.4
103.5013884,19676.4
108.9739282,19411.6
114.4380255,19539
119.8936944,19593.8
125.3409495,21051.6
130.779805,19171.2
136.2102753,18875.8
141.6323747,18954.6
147.0461174,19963
152.4515176,19123.6
157.8485895,19057.4
163.2373472,18928.2
168.6178049,19353
173.9899766,19866.6
179.3538764,19161
184.7095182,19189.2
190.0569161,19543.2
195.396084,19726.8
200.7270358,18650.2
206.0497854,18834
211.3643466,18298.2
216.6707333,18948.2
221.9689593,18534
227.2590382,18670.4
232.5409839,18583.6
237.8148101,18581.2
243.0805303,18729.8
248.3381582,18675.4
253.5877075,18472.6
258.8291917,18752
264.0626244,18761.8
269.288019,19264.4
274.5053891,19190.2
279.7147481,18825
284.9161094,18629.8
290.1094865,19508.2
295.2948927,21780.8
300.4723414,26783.2
305.6418459,32080.4
310.8034194,37257.8
315.9570752,41112.4
321.1028267,41964.6
326.2406869,41961.2
331.370669,42656
336.4927863,42909.4
341.6070517,43210.6
346.7134786,43572
351.8120798,43939.8
356.9028684,43492.8
361.9858576,43560.4
367.0610602,43992.8
372.1284892,43281
377.1881577,44155
382.2400784,44487
387.2842644,45382.6
392.3207284,46907
397.3494833,46161.4
402.370542,46118
407.3839172,45406
412.3896217,45039.8
417.3876683,44874.8
422.3780697,45039.2
427.3608386,44243.2
432.3359876,43951.6
437.3035295,43065
442.2634769,42610.6
447.2158423,40631.8
452.1606383,40383.2
457.0978776,40360.4
462.0275727,39345.8
466.9497361,39930.8
471.8643802,39238.6
476.7715176,40008.8
481.6711608,40176.2
486.5633221,40733.4
491.448014,40459.8
496.3252488,40134.4
501.195039,40099.2
506.0573969,40121
510.9123349,39702.6
515.7598651,39166.8
520.6,39908.2
525.4327518,39586.8
530.2581327,38957.4
535.076155,38127.2
539.8868309,38762.2
544.6901726,39041.2
549.4861922,38274.6
554.2749019,39485.6
559.0563139,37563.8
563.8304402,37341.2
568.597293,39141
573.3568844,38794
578.1092263,37766.2
582.8543308,38259.2
587.5922101,38248.2
592.322876,37390.8
597.0463405,37634.8
601.7626157,37983.2
606.4717135,37228.4
611.1736458,37039.2
615.8684246,36892.8
620.5560617,37352.8
625.2365691,36926.2
629.9099585,37393.2
634.5762419,37589
639.2354312,36356.4
643.887538,36741.4
648.5325743,36062.8
653.1705518,36275.6
657.8014823,36507.8
662.4253775,35240.8
667.0422493,36090
671.6521092,35885
676.2549691,35883.6
680.8508407,35879.2
685.4397355,35833.4
690.0216654,35711.2
694.5966419,35412.6
699.1646767,36464.6
703.7257814,36001
708.2799676,36130.4
712.827247,36431.4
717.367631,35980
721.9011314,35875.2
726.4277595,34796.4
730.9475271,35462.4
735.4604456,35345.6
739.9665264,36032.6
744.4657813,35435.4
748.9582215,34925.2
753.4438587,34136.6
757.9227042,33494.2
762.3947696,33919
766.8600662,33249.4
771.3186056,35449.2
775.770399,33723.6
780.215458,34228.4
784.6537939,33071.8
789.0854181,32832.4
793.510342,32910.2
797.9285769,33764.8
802.3401342,33048.8
806.7450253,33096.2
811.1432614,32852.8
815.5348538,32341.4
819.9198139,31920.6
824.2981531,32346.2
828.6698824,32376.6
833.0350133,32148.6
837.393557,31611
841.7455248,31970.4
846.0909278,31486
850.4297774,31529.2
854.7620848,31533.4
859.0878611,31770.4
863.4071176,30778.4
867.7198655,31512.2
872.026116,32194.2
876.3258802,32694.2
880.6191693,31896.6
884.9059946,32039.4
889.186367,32450.4
893.4602979,30745.6
897.7277982,30487
901.9888793,31408.8
906.2435521,32182
910.4918277,31267.6
914.7337174,31380.2
918.9692321,31106.4
923.1983831,32191.4
927.4211813,31644
931.6376378,32576.6
935.8477637,32040
940.0515701,32085.6
944.249068,32216
948.4402684,30990.2
952.6251825,32603.6
956.8038212,31838.2
960.9761955,32996
965.1423166,32126.6
969.3021953,32146
973.4558427,32106.6
977.6032699,31803
981.7444877,32056.4
985.8795072,31949.6
990.0083394,31926
994.1309953,31343.2
998.2474857,32296.2
1002.357822,30741.2
1006.462014,31963.2
1010.560075,31595.4
1014.652013,31886.2
1018.737841,32036.6
1022.81757,31346.6
1026.891209,31256.6
1030.958771,31123.4
1035.020266,31918.2
1039.075705,31366.8
1043.1251,30845
1047.16846,31254
1051.205797,31184
1055.237121,30886.8
1059.262444,31760.2
1063.281777,32439.8
1067.295131,34406.6
1071.302515,37613.6
1075.303942,37295.4
1079.299422,38258.2
1083.288966,36415
1087.272585,34642.8
1091.250289,34230
1095.222091,34753.6
1099.187999,35257.2
1103.148026,36049.2
1107.102183,35801
1111.050479,34957.6
1114.992927,33611.4
1118.929536,32477.4
1122.860318,32822
1126.785283,32607.4
1130.704443,33621.8
1134.617808,36399.2
1138.52539,37344.6
1142.427198,37177.6
1146.323244,36231.6
1150.213538,34404.4
1154.098093,34356.4
1157.976917,33648
1161.850023,34108.6
1165.717421,35902.8
1169.579121,35429.4
1173.435135,35708.4
1177.285474,33114.6
1181.130148,32411.2
1184.969169,32613.6
1188.802547,32145.2
1192.630292,31206.6
1196.452416,30749.6
1200.26893,30489
1204.079844,29795.8
1207.88517,29181.2
1211.684917,30366.4
1215.479098,29748.8
1219.267722,31869.2
1223.050801,29387.2
1226.828346,29362
1230.600366,29675
1234.366874,29423.2
1238.12788,29068.2
1241.883395,29073.8
1245.633429,29416.4
1249.377994,29540
1253.1171,28286.2
1256.850759,29064
1260.578981,28808.4
1264.301776,29037.4
1268.019157,28954.8
1271.731133,28568.6
1275.437715,28462
1279.138915,29436.8
1282.834743,29585
1286.52521,28957
1290.210328,28485.6
1293.890106,29093.2
1297.564555,29764.8
1301.233688,29060.4
1304.897514,29695.8
1308.556044,29891.8
1312.209289,29714.4
1315.857261,28963
1319.499969,29076.4
1323.137425,30449.8
1326.769641,29421.2
1330.396626,30584.4
1334.018391,29654.2
1337.634948,29844.4
1341.246307,29453.8
1344.85248,29327.8
1348.453477,29182
1352.049309,29081.4
1355.639987,29137
1359.225522,30292.6
1362.805925,29602
1366.381207,29614.6
1369.951379,29784.8
1373.516452,29958
1377.076436,30671.4
1380.631343,30710.6
1384.181184,30952.8
1387.725969,31788.4
1391.26571,31332.4
1394.800417,30842
1398.330102,30564.4
1401.854776,30210
1405.374448,29715.2
1408.889132,29284.6
1412.398837,29052.8
1415.903574,30448.6
1419.403355,31988.8
1422.89819,31951.8
1426.388091,32072.2
1429.873069,32721.2
1433.353134,31627.2
1436.828298,30761.6
1440.298571,30180.4
1443.763965,29367.6
1447.224491,28913.8
1450.68016,29096.2
1454.130983,30322.4
1457.576971,30557
1461.018135,30734.8
1464.454486,30399.4
1467.886036,29141.4
1471.312794,28730.6
1474.734774,27706.4
1478.151985,28376
1481.564439,27575.8
1484.972146,27048.6
1488.375119,26353
1491.773368,26831.2
1495.166904,27687
1498.555739,26522
1501.939883,26696.6
1505.319349,25886.8
1508.694146,26295.2
1512.064286,26464.4
1515.429781,26316.6
1518.790642,25953.4
1522.146879,26301.8
1525.498505,25613
1528.845529,25539.4
1532.187965,26466.6
1535.525822,26077.6
1538.859112,26071.2
1542.187846,27039
1545.512036,25825.6
1548.831693,27789.4
1552.146829,26971
1555.457453,26313.4
1558.763579,25707.4
1562.065216,26957.4
1565.362377,27523.2
1568.655073,28227.8
1571.943315,27997
1575.227114,27961.4
1578.506482,28056.6
1581.781431,28722.6
1585.051971,27735.4
1588.318114,27713.2
1591.579872,27681
1594.837255,27231.8
1598.090275,26901
1601.338945,26681
1604.583274,27280.6
1607.823275,26619.4
1611.058959,25635.4
1614.290338,26374.2
1617.517422,25289.2
1620.740224,25655.2
1623.958755,24840.6
1627.173027,24489.4
1630.38305,23731.8
1633.588838,24118
1636.7904,23504.8
1639.987749,23929.8
1643.180896,23952
1646.369853,22752.2
1649.554632,24140
1652.735244,23009.6
1655.9117,22438.2
1659.084013,22838.2
1662.252193,23574.4
1665.416254,22178.8
1668.576205,22650.8
1671.732059,23099.2
1674.883828,22867.8
1678.031523,21940
1681.175157,22218.6
1684.314739,22052.2
1687.450284,21827.2
1690.581801,21831.4
1693.709304,21425.2
1696.832803,21306.2
1699.952311,21639.2
1703.067839,21565.4
1706.179399,21448.4
1709.287003,22152
1712.390663,21356.2
1715.49039,21357.2
1718.586197,21844
1721.678095,21578.6
1724.766096,21558.6
1727.850213,20615.4
1730.930456,21137.8
1734.006838,20938.2
1737.079372,21219
1740.148067,20690.8
1743.212938,22252.6
1746.273996,21083.4
1749.331252,21016.8
1752.384718,20794.2
1755.434408,20876.6
1758.480332,20773.4
1761.522503,20971.4
1764.560933,20463.8
1767.595634,19981.6
1770.626618,21149.8
1773.653896,21070.6
1776.677482,20400
1779.697388,20410
1782.713625,21249.2
1785.726205,21113.8
1788.735141,21199.4
1791.740445,20456
1794.742129,20278
1797.740206,21146.4
1800.734687,21351.6
1803.725585,20777.2
1806.712912,20756.6
1809.69668,20286.2
1812.676902,20357.6
1815.65359,19770.2
1818.626756,20081.8
1821.596413,20440.4
1824.562573,19691.6
1827.525247,20358.6
1830.48445,20048.8
1833.440192,20157.4
1836.392487,20007.6
1839.341347,20312.4
1842.286784,20349.4
1845.22881,19715.8
1848.167439,20599.2
1851.102682,20165
1854.034553,20127.8
1856.963063,19885.6
1859.888226,21234.6
1862.810053,20499
1865.728557,20226.4
1868.643751,19838.2
1871.555648,19804
1874.46426,19356.4
1877.369599,20452.4
1880.271679,20060.2
1883.170512,19999
1886.06611,20802.4
1888.958487,20273.6
1891.847655,20290.4
1894.733626,20242.4
1897.616414,20404.8
1900.496032,19772.6
1903.372491,20266.6
1906.245805,20720
1909.115987,20729.2
1911.983049,20731
1914.847004,20503.4
1917.707866,20589
1920.565646,20629.6
1923.420359,19996.8
1926.272016,20323.4
1929.120631,19944.4
1931.966216,20381.2
1934.808786,20180.2
1937.648351,20523.8
1940.484927,20390.2
1943.318525,20699.2
1946.149158,21020.8
1948.97684,22866.6
1951.801584,21141.6
1954.623403,20707.6
1957.44231,20852.6
1960.258318,20075
1963.071439,20162.4
1965.881688,20362.2
1968.689078,20751.4
1971.493621,20209.4
