Ramanshift[cm-1],Intensity
-93.47115107,13157.6
-87.69374369,11834.4
-81.9253076,11700.6
-76.16582701,11810.8
-70.41528615,11819.6
-64.67366933,11581.6
-58.94096086,11586.8
-53.21714512,11792.4
-47.50220652,11887.6
-41.79612954,11896
-36.09889866,12332.8
-30.41049843,12383
-24.73091343,11988.6
-19.0601283,12051.4
-13.39812769,11857.8
-7.744896327,11619.8
-2.100418946,11395.6
3.535319659,12033
9.162334658,11524.6
14.78064118,11854.2
20.39025432,11467.4
25.99118913,11475.4
31.58346061,11992.6
37.16708375,11834.6
42.74207347,11509
48.30844468,11570.8
53.86621222,11360.8
59.41539093,10989.2
64.95599558,11073.2
70.48804091,11398.8
76.01154164,11456.2
81.52651243,10872.2
87.03296792,11448
92.5309227,11784.4
98.02039134,11096.6
103.5013884,11403.2
108.9739282,11229.4
114.4380255,11249.4
119.8936944,11394.8
125.3409495,12244.4
130.779805,11154.4
136.2102753,10913.4
141.6323747,10949
147.0461174,11525.2
152.4515176,11106.6
157.8485895,11109.8
163.2373472,10927
168.6178049,11367.4
173.9899766,11515
179.3538764,11099.4
184.7095182,11214.6
190.0569161,11311.2
195.396084,11611.8
200.7270358,11037.8
206.0497854,11122.2
211.3643466,10787.2
216.6707333,11122.4
221.9689593,10802.4
227.2590382,10999.4
232.5409839,10922.8
237.8148101,10820
243.0805303,10907
248.3381582,10893
253.5877075,10742
258.8291917,10973.4
264.0626244,11068.8
269.288019,11167
274.5053891,11211.4
279.7147481,10938.6
284.9161094,10778.2
290.1094865,10860.2
295.2948927,11251.8
300.4723414,12403.8
305.6418459,12854.4
310.8034194,13364
315.9570752,14260.4
321.1028267,14511
326.2406869,14466.4
331.370669,14756.8
336.4927863,14672.4
341.6070517,14822
346.7134786,14730.8
351.8120798,15001.8
356.9028684,14591.4
361.9858576,14708
367.0610602,15101.4
372.1284892,14778.8
377.1881577,15358
382.2400784,15542.2
387.2842644,15978.4
392.3207284,16471
397.3494833,15849.2
402.370542,15828.6
407.3839172,15143.2
412.3896217,14740
417.3876683,14305.6
422.3780697,14311.2
427.3608386,14215.6
432.3359876,14595.8
437.3035295,14824.4
442.2634769,14803.4
447.2158423,14202
452.1606383,14150.4
457.0978776,14377
462.0275727,13798.4
466.9497361,14372.6
471.8643802,13782.4
476.7715176,14200.6
481.6711608,14188.2
486.5633221,14410.4
491.448014,14168.2
496.3252488,14175.4
501.195039,14175.8
506.0573969,14378.2
510.9123349,14155.4
515.7598651,13648.8
520.6,14195.6
525.4327518,14132
530.2581327,14179
535.076155,13635.6
539.8868309,14060.2
544.6901726,14033.8
549.4861922,13907.2
554.2749019,14769.6
559.0563139,13780.6
563.8304402,13717.6
568.597293,14606.2
573.3568844,14338.2
578.1092263,13824.6
582.8543308,14227.4
587.5922101,14170.8
592.322876,13919.6
597.0463405,13963.4
601.7626157,14264.6
606.4717135,13840
611.1736458,13816.8
615.8684246,13788.2
620.5560617,14213.4
625.2365691,13910
629.9099585,14309.8
634.5762419,14536.4
639.2354312,13884
643.887538,14082.8
648.5325743,13834.6
653.1705518,13730.8
657.8014823,14042
662.4253775,13387
667.0422493,13741.8
671.6521092,13726.6
676.2549691,13949.8
680.8508407,13934.6
685.4397355,13725.4
690.0216654,13880.4
694.5966419,13605.8
699.1646767,14048
703.7257814,13853.8
708.2799676,13957.6
712.827247,14076.8
717.367631,13806
721.9011314,13806.6
726.4277595,13137.6
730.9475271,13894.2
735.4604456,13767.8
739.9665264,14221.8
744.4657813,13710.8
748.9582215,13769
753.4438587,13374.6
757.9227042,13365.6
762.3947696,13726.8
766.8600662,13285.4
771.3186056,14639.4
775.770399,13537
780.215458,14010.6
784.6537939,13414.8
789.0854181,13168.4
793.510342,13365.6
797.9285769,13892.2
802.3401342,13243.2
806.7450253,13621.4
811.1432614,13464.2
815.5348538,13428
819.9198139,13067.8
824.2981531,13323.2
828.6698824,13418.6
833.0350133,13336.8
837.393557,13062
841.7455248,13292.4
846.0909278,13157.2
850.4297774,13094.4
854.7620848,13215.4
859.0878611,13434
863.4071176,12799.8
867.7198655,13488.4
872.026116,13555.2
876.3258802,13982.2
880.6191693,13626.2
884.9059946,13457.4
889.186367,14008.8
893.4602979,12844.8
897.7277982,12909.8
901.9888793,13275.8
906.2435521,13631.4
910.4918277,12989
914.7337174,13003.6
918.9692321,12988
923.1983831,13495
927.4211813,13157.6
931.6376378,13846.2
935.8477637,13223.2
940.0515701,13469.4
944.249068,13438.6
948.4402684,12691.2
952.6251825,13480.8
956.8038212,13191.4
960.9761955,13773.4
965.1423166,13263.6
969.3021953,13377
973.4558427,13356.2
977.6032699,13149.4
981.7444877,13297.8
985.8795072,13212.2
990.0083394,13233.6
994.1309953,13023.2
998.2474857,13284.2
1002.357822,12487.4
1006.462014,13110
1010.560075,12843.8
1014.652013,13177.2
1018.737841,13483.6
1022.81757,12973
1026.891209,13017.6
1030.958771,12815.2
1035.020266,13207.4
1039.075705,12984
1043.1251,12690.4
1047.16846,12903
1051.205797,12866.4
1055.237121,12595.2
1059.262444,12604
1063.281777,12418.8
1067.295131,12545.2
1071.302515,13634.4
1075.303942,13333.4
1079.299422,14326
1083.288966,13710.6
1087.272585,13247
1091.250289,13045.2
1095.222091,13111
1099.187999,12685
1103.148026,12889.2
1107.102183,12786
1111.050479,12846
1114.992927,12767
1118.929536,12570.2
1122.860318,12962.8
1126.785283,12470.6
1130.704443,12334.4
1134.617808,13042.6
1138.52539,12895.2
1142.427198,12803
1146.323244,12928.6
1150.213538,12605.2
1154.098093,13025.2
1157.976917,12521.8
1161.850023,12378.4
1165.717421,12883.4
1169.579121,12580.2
1173.435135,13038.2
1177.285474,12238.8
1181.130148,12352.6
1184.969169,12718.8
1188.802547,12643.4
1192.630292,12305.2
1196.452416,12010.4
1200.26893,12156.8
1204.079844,11928
1207.88517,11608.4
1211.684917,12317.8
1215.479098,11934
1219.267722,13346.2
1223.050801,11933.2
1226.828346,12000.6
1230.600366,12302.2
1234.366874,12496.6
1238.12788,12024.4
1241.883395,12051
1245.633429,12419.8
1249.377994,12393
1253.1171,11691.2
1256.850759,12057.6
1260.578981,11948.2
1264.301776,12069
1268.019157,11970.4
1271.731133,11725.2
1275.437715,11668.2
1279.138915,12133
1282.834743,12326
1286.52521,11899
1290.210328,11758
1293.890106,11924
1297.564555,12381.6
1301.233688,11761.8
1304.897514,12066
1308.556044,12169
1312.209289,12166.4
1315.857261,11727.8
1319.499969,11817.2
1323.137425,12443.8
1326.769641,11896.4
1330.396626,12503.2
1334.018391,11940.6
1337.634948,12044.2
1341.246307,11785.2
1344.85248,11796
1348.453477,11508.4
1352.049309,11594.8
1355.639987,11812
1359.225522,12194.2
1362.805925,11889.4
1366.381207,11927.8
1369.951379,11901.6
1373.516452,12000.6
1377.076436,12104.4
1380.631343,11964.6
1384.181184,11787.2
1387.725969,11803
1391.26571,11591.6
1394.800417,11505.6
1398.330102,11698.8
1401.854776,11839
1405.374448,11763.2
1408.889132,11471.8
1412.398837,11079.8
1415.903574,11478.2
1419.403355,11936
1422.89819,11531.4
1426.388091,11564.6
1429.873069,12105.6
1433.353134,11382.6
1436.828298,11589.8
1440.298571,11741
1443.763965,11444.2
1447.224491,11396
1450.68016,11393.8
1454.130983,11913.4
1457.576971,11683.8
1461.018135,11945.4
1464.454486,12077.6
1467.886036,11554.2
1471.312794,11666.6
1474.734774,11365.2
1478.151985,12054
1481.564439,11730.4
1484.972146,11734.4
1488.375119,11380.8
1491.773368,11700.6
1495.166904,12299.6
1498.555739,11583.6
1501.939883,11819.4
1505.319349,11298
1508.694146,11615.2
1512.064286,11700.8
1515.429781,11589.6
1518.790642,11488.2
1522.146879,11669.8
1525.498505,11216
1528.845529,11280.2
1532.187965,11978.6
1535.525822,11539
1538.859112,11562.4
1542.187846,12098.6
1545.512036,11252
1548.831693,12545.6
1552.146829,11949.2
1555.457453,11308.6
1558.763579,10927.6
1562.065216,11408.4
1565.362377,11630
1568.655073,11865.4
1571.943315,11679.8
1575.227114,11686.6
1578.506482,11689
1581.781431,12208.8
1585.051971,11828.4
1588.318114,11899.2
1591.579872,11886.2
1594.837255,11784.8
1598.090275,11451
1601.338945,11525.8
1604.583274,11848.6
1607.823275,11362.8
1611.058959,11108.8
1614.290338,12220.2
1617.517422,11016
1620.740224,11424.2
1623.958755,11078.8
1627.173027,11224.2
1630.38305,10890.4
1633.588838,11330.8
1636.7904,11100.8
1639.987749,11272.8
1643.180896,11395.8
1646.369853,10833.6
1649.554632,11682.6
1652.735244,11021
1655.9117,10664.8
1659.084013,11076.2
1662.252193,11703.2
1665.416254,10849
1668.576205,11115.8
1671.732059,11405.8
1674.883828,11491.2
1678.031523,10970
1681.175157,11146.8
1684.314739,11186.8
1687.450284,11017.2
1690.581801,10969
1693.709304,10838.2
1696.832803,10812.6
1699.952311,11116.8
1703.067839,11093
1706.179399,11065.2
1709.287003,11421.8
1712.390663,11058
1715.49039,11102.2
1718.586197,11533.8
1721.678095,11286.2
1724.766096,11276.2
1727.850213,10685.2
1730.930456,11157.8
1734.006838,10882
1737.079372,11224
1740.148067,10860
1743.212938,11850.4
1746.273996,11017.2
1749.331252,11104.8
1752.384718,11174.8
1755.434408,11186
1758.480332,11083.4
1761.522503,11166.2
1764.560933,10950.8
1767.595634,10640.8
1770.626618,11324
1773.653896,11251.8
1776.677482,10985.2
1779.697388,10946.8
1782.713625,11482
1785.726205,11345.8
1788.735141,11398.2
1791.740445,10828
1794.742129,10886.2
1797.740206,11355
1800.734687,11341.8
1803.725585,11102.4
1806.712912,11187.4
1809.69668,10891.6
1812.676902,10970.6
1815.65359,10696.4
1818.626756,10792.4
1821.596413,10982.4
1824.562573,10597.4
1827.525247,10936.4
1830.48445,10750.4
1833.440192,10907.4
1836.392487,10816.4
1839.341347,11061.2
1842.286784,11069.8
1845.22881,10558.6
1848.167439,11074.6
1851.102682,10854.8
1854.034553,10929.4
1856.963063,10703
1859.888226,11520.2
1862.810053,11082.2
1865.728557,10809.4
1868.643751,10788.4
1871.555648,10690.6
1874.46426,10533.8
1877.369599,11074.4
1880.271679,10892.8
1883.170512,10737.6
1886.06611,11148.4
1888.958487,10910.2
1891.847655,10840.6
1894.733626,10982.6
1897.616414,11059.6
1900.496032,10568.2
1903.372491,10916.4
1906.245805,11175
1909.115987,11245.2
1911.983049,11206.4
1914.847004,11151.2
1917.707866,11241
1920.565646,11134.2
1923.420359,10787.4
1926.272016,11066.4
1929.120631,10835.2
1931.966216,10956.6
1934.808786,10921.6
1937.648351,11218
1940.484927,11135
1943.318525,11177.6
1946.149158,11369.4
1948.97684,12451.8
1951.801584,11396.2
1954.623403,11207.2
1957.44231,11264.8
1960.258318,10869.6
1963.071439,10782
1965.881688,11035.8
1968.689078,11143.8
1971.493621,10872.4
