Ramanshift[cm-1],Intensity
-93.47115107,23045.8
-87.69374369,20965.6
-81.9253076,20567.6
-76.16582701,20825.6
-70.41528615,20920.2
-64.67366933,20294.8
-58.94096086,20395.4
-53.21714512,20735.4
-47.50220652,20791.6
-41.79612954,20973.6
-36.09889866,21562.6
-30.41049843,21561.6
-24.73091343,21019.8
-19.0601283,21080.8
-13.39812769,20826
-7.744896327,20522
-2.100418946,20110.4
3.535319659,21144.4
9.162334658,20124.4
14.78064118,20629
20.39025432,19963.4
25.99118913,20027.8
31.58346061,20729.8
37.16708375,20519.6
42.74207347,19868.6
48.30844468,19947.2
53.86621222,19701.2
59.41539093,19109
64.95599558,19139.8
70.48804091,19845.2
76.01154164,19944
81.52651243,19008
87.03296792,19807.2
92.5309227,20408.2
98.02039134,19267.6
103.5013884,19667.8
108.9739282,19290
114.4380255,19370.4
119.8936944,19721.2
125.3409495,21181.8
130.779805,19281.4
136.2102753,18888.2
141.6323747,18881.6
147.0461174,19887.8
152.4515176,19053.4
157.8485895,19068.6
163.2373472,18834.6
168.6178049,19217.2
173.9899766,19629.8
179.3538764,19102
184.7095182,19213.2
190.0569161,19470
195.396084,19728.2
200.7270358,18747.2
206.0497854,18941
211.3643466,18383
216.6707333,19054.8
221.9689593,18566.4
227.2590382,18732.4
232.5409839,18676.2
237.8148101,18410.8
243.0805303,18685.6
248.3381582,18637.8
253.5877075,18469
258.8291917,18745.4
264.0626244,18580.4
269.288019,19298.2
274.5053891,19285.8
279.7147481,18803.6
284.9161094,18631.8
290.1094865,19445.4
295.2948927,21731.8
300.4723414,26715.4
305.6418459,32117.6
310.8034194,37308
315.9570752,41104.4
321.1028267,42218.6
326.2406869,42470.2
331.370669,43194
336.4927863,43535
341.6070517,43886.4
346.7134786,44227.4
351.8120798,44709.4
356.9028684,44340.2
361.9858576,44211.2
367.0610602,44814.4
372.1284892,44097.4
377.1881577,45282.4
382.2400784,46131.8
387.2842644,47960
392.3207284,49652.2
397.3494833,49037.8
402.370542,48383.8
407.3839172,46545.6
412.3896217,45017.4
417.3876683,44201
422.3780697,43786.6
427.3608386,43064.6
432.3359876,43012.4
437.3035295,42346
442.2634769,42497.8
447.2158423,40923.2
452.1606383,40566.4
457.0978776,40864.4
462.0275727,39660
466.9497361,40478.8
471.8643802,39677.8
476.7715176,40549
481.6711608,41101
486.5633221,41618.4
491.448014,41371.4
496.3252488,41054.6
501.195039,40751.2
506.0573969,40696.2
510.9123349,39954.6
515.7598651,39344.4
520.6,39954
525.4327518,39728.8
530.2581327,39482
535.076155,38638.4
539.8868309,39363.4
544.6901726,39661.2
549.4861922,38716.2
554.2749019,40017.4
559.0563139,38118.6
563.8304402,38001
568.597293,39511.8
573.3568844,39169.4
578.1092263,38034
582.8543308,38759.4
587.5922101,38670.2
592.322876,37899
597.0463405,38024.4
601.7626157,38262.4
606.4717135,37434.2
611.1736458,37442.6
615.8684246,37452
620.5560617,37919
625.2365691,37417
629.9099585,38034
634.5762419,38073.2
639.2354312,37124.6
643.887538,37397.8
648.5325743,36679.6
653.1705518,36776.2
657.8014823,37168.8
662.4253775,35864.8
667.0422493,36539.8
671.6521092,36588
676.2549691,36462.4
680.8508407,36234.8
685.4397355,36039.6
690.0216654,36164.2
694.5966419,35861.4
699.1646767,36815.4
703.7257814,36564
708.2799676,36830.4
712.827247,37133.2
717.367631,36602.8
721.9011314,36526.6
726.4277595,35260.2
730.9475271,35829.8
735.4604456,35426.8
739.9665264,36298.8
744.4657813,35496.6
748.9582215,35274.6
753.4438587,34324.8
757.9227042,33634.2
762.3947696,34504.4
766.8600662,33701.2
771.3186056,35642.2
775.770399,34132.4
780.215458,34580.4
784.6537939,33411.8
789.0854181,33220.2
793.510342,33410.4
797.9285769,34011.4
802.3401342,33341.8
806.7450253,33608.2
811.1432614,33344
815.5348538,32801.2
819.9198139,32199.4
824.2981531,32715.6
828.6698824,32581.2
833.0350133,32195.4
837.393557,31812.4
841.7455248,32229.6
846.0909278,31783.6
850.4297774,31918.8
854.7620848,31908
859.0878611,32188.2
863.4071176,31207.6
867.7198655,31868.4
872.026116,32676.4
876.3258802,33233.6
880.6191693,32406.4
884.9059946,32544
889.186367,33058
893.4602979,31341.4
897.7277982,31332.4
901.9888793,31952
906.2435521,32837.4
910.4918277,31830
914.7337174,32014.8
918.9692321,31850
923.1983831,32758.2
927.4211813,32191.6
931.6376378,33374.8
935.8477637,32342
940.0515701,32702.8
944.249068,32845
948.4402684,31549.2
952.6251825,32965.6
956.8038212,32293.2
960.9761955,33552.2
965.1423166,32468.8
969.3021953,32624.2
973.4558427,32612.6
977.6032699,32140.2
981.7444877,32313
985.8795072,32397.6
990.0083394,32324.2
994.1309953,32035
998.2474857,32459
1002.357822,31576.6
1006.462014,32673.6
1010.560075,32375.4
1014.652013,32671.2
1018.737841,32728
1022.81757,31853.4
1026.891209,31787.4
1030.958771,31459.6
1035.020266,32162.4
1039.075705,31713.8
1043.1251,31393.8
1047.16846,32024.6
1051.205797,31936.4
1055.237121,31953.8
1059.262444,32869.6
1063.281777,34513.4
1067.295131,37496.2
1071.302515,41681.6
1075.303942,41840.4
1079.299422,42523
1083.288966,39244.4
1087.272585,36202.4
1091.250289,34484.4
1095.222091,33875.4
1099.187999,33201.4
1103.148026,33637.6
1107.102183,33240
1111.050479,33233.4
1114.992927,32878.4
1118.929536,32577.4
1122.860318,33665.8
1126.785283,34036.8
1130.704443,36102.2
1134.617808,39716.2
1138.52539,41351.2
1142.427198,41068
1146.323244,39279.4
1150.213538,36482.6
1154.098093,35152.8
1157.976917,33601
1161.850023,33229.6
1165.717421,34097
1169.579121,33624.6
1173.435135,34339.2
1177.285474,32472.4
1181.130148,32500.4
1184.969169,33135.6
1188.802547,32837.2
1192.630292,32166.6
1196.452416,31481.4
1200.26893,30905.2
1204.079844,30262.6
1207.88517,29530.6
1211.684917,30279.2
1215.479098,29701.4
1219.267722,31931.6
1223.050801,29575.4
1226.828346,29629.4
1230.600366,29914.4
1234.366874,29880.4
1238.12788,29531.2
1241.883395,29612
1245.633429,30017.6
1249.377994,30060.6
1253.1171,28775.4
1256.850759,29525.4
1260.578981,29256.6
1264.301776,29414.4
1268.019157,29329.4
1271.731133,28940.2
1275.437715,28987.6
1279.138915,29826
1282.834743,30235
1286.52521,29294
1290.210328,29102.6
1293.890106,29585.6
1297.564555,30504.2
1301.233688,29617
1304.897514,30440.6
1308.556044,30563.2
1312.209289,30327.2
1315.857261,29238.8
1319.499969,29209
1323.137425,30687.6
1326.769641,29793.6
1330.396626,30727.4
1334.018391,29949.4
1337.634948,30032.8
1341.246307,29584.4
1344.85248,29619.6
1348.453477,29366.4
1352.049309,29354
1355.639987,29531.6
1359.225522,30614
1362.805925,29912.8
1366.381207,29950.6
1369.951379,30226
1373.516452,30652
1377.076436,31334.8
1380.631343,31868.8
1384.181184,32460.6
1387.725969,33462.4
1391.26571,33071.6
1394.800417,32323.8
1398.330102,31366.8
1401.854776,30760
1405.374448,29647.4
1408.889132,28932.4
1412.398837,28613.6
1415.903574,29796.2
1419.403355,31838.6
1422.89819,32530.8
1426.388091,33523.4
1429.873069,34709.4
1433.353134,33725.8
1436.828298,32931.8
1440.298571,31590.8
1443.763965,30286.8
1447.224491,29088
1450.68016,28809.4
1454.130983,29414.2
1457.576971,29000.8
1461.018135,29292.2
1464.454486,29253.4
1467.886036,28098
1471.312794,28136.4
1474.734774,27473.6
1478.151985,28238.2
1481.564439,27602.4
1484.972146,27050.4
1488.375119,26253.6
1491.773368,26842.2
1495.166904,27724.8
1498.555739,26505.8
1501.939883,26611
1505.319349,25864.6
1508.694146,26292
1512.064286,26423.2
1515.429781,26399.6
1518.790642,26013
1522.146879,26464
1525.498505,25530.4
1528.845529,25479.2
1532.187965,26506.4
1535.525822,26150
1538.859112,26250.4
1542.187846,27147.2
1545.512036,25831.4
1548.831693,27928.6
1552.146829,27132
1555.457453,26606.2
1558.763579,26059
1562.065216,27269
1565.362377,28006.6
1568.655073,28845.4
1571.943315,28833.8
1575.227114,28793.2
1578.506482,28908.8
1581.781431,29617.4
1585.051971,28630.2
1588.318114,28450.8
1591.579872,28005
1594.837255,27314.6
1598.090275,26642.6
1601.338945,26103.6
1604.583274,26336.4
1607.823275,25783.8
1611.058959,24759
1614.290338,25344.6
1617.517422,24278.2
1620.740224,24891.6
1623.958755,24293
1627.173027,23995.2
1630.38305,23330.8
1633.588838,23857.8
1636.7904,23187.2
1639.987749,23824.2
1643.180896,23865.2
1646.369853,22855.4
1649.554632,24023.8
1652.735244,23042
1655.9117,22283.8
1659.084013,22690.4
1662.252193,23741.4
1665.416254,22099
1668.576205,22534.8
1671.732059,23063.6
1674.883828,22815.2
1678.031523,22096.6
1681.175157,22163.4
1684.314739,22033.6
1687.450284,21756
1690.581801,21781.6
1693.709304,21321.2
1696.832803,21290.6
1699.952311,21572
1703.067839,21443.4
1706.179399,21536
1709.287003,22222.6
1712.390663,21415.6
1715.49039,21384
1718.586197,21920.4
1721.678095,21682.4
1724.766096,21535
1727.850213,20514.2
1730.930456,21229.2
1734.006838,20968.6
1737.079372,21263.2
1740.148067,20728
1743.212938,22349.6
1746.273996,21109
1749.331252,21001.4
1752.384718,20958.6
1755.434408,20912.4
1758.480332,21089.2
1761.522503,20914.2
1764.560933,20682.2
1767.595634,20009.8
1770.626618,21211.8
1773.653896,21231
1776.677482,20479.8
1779.697388,20555.8
1782.713625,21378.2
1785.726205,21387.6
1788.735141,21328
1791.740445,20603.8
1794.742129,20399.8
1797.740206,21302.8
1800.734687,21351.4
1803.725585,20952
1806.712912,20972.8
1809.69668,20446
1812.676902,20376.8
1815.65359,19932
1818.626756,20140.8
1821.596413,20365.2
1824.562573,19833.8
1827.525247,20543.4
1830.48445,20133.8
1833.440192,20361.8
1836.392487,20201
1839.341347,20636.8
1842.286784,20487.4
1845.22881,19782
1848.167439,20764.6
1851.102682,20317.6
1854.034553,20078.6
1856.963063,20052.2
1859.888226,21320.2
1862.810053,20528.8
1865.728557,20430.2
1868.643751,19865.8
1871.555648,19875.6
1874.46426,19381.8
1877.369599,20525.4
1880.271679,20163.6
1883.170512,20050.6
1886.06611,20877.4
1888.958487,20291.6
1891.847655,20235.8
1894.733626,20484.2
1897.616414,20520.6
1900.496032,19943.8
1903.372491,20442.4
1906.245805,20829.8
1909.115987,20891.4
1911.983049,20780.8
1914.847004,20416
1917.707866,20691.8
1920.565646,20479.2
1923.420359,20036
1926.272016,20445
1929.120631,19922.4
1931.966216,20549.6
1934.808786,20259.6
1937.648351,20757
1940.484927,20545
1943.318525,20810.2
1946.149158,21137.6
1948.97684,22931.4
1951.801584,21333.2
1954.623403,20800.2
1957.44231,20851.8
1960.258318,20274
1963.071439,20057.8
1965.881688,20459.2
1968.689078,20805.2
1971.493621,20331.6
