Ramanshift[cm-1],Intensity
-93.47115107,13427.2
-87.69374369,12155.4
-81.9253076,12023.2
-76.16582701,12098.8
-70.41528615,12129.8
-64.67366933,11911.8
-58.94096086,11876.6
-53.21714512,12050.6
-47.50220652,12170.8
-41.79612954,12140.8
-36.09889866,12680.8
-30.41049843,12723
-24.73091343,12225.4
-19.0601283,12344.6
-13.39812769,12113.2
-7.744896327,11889
-2.100418946,11703
3.535319659,12430.8
9.162334658,11773.8
14.78064118,12122.8
20.39025432,11673.4
25.99118913,11800.6
31.58346061,12222.2
37.16708375,12039.2
42.74207347,11696.6
48.30844468,11734.8
53.86621222,11663.4
59.41539093,11403.4
64.95599558,11219
70.48804091,11667
76.01154164,11792.8
81.52651243,11243
87.03296792,11737.4
92.5309227,11937.8
98.02039134,11267.8
103.5013884,11579.4
108.9739282,11435
114.4380255,11388.4
119.8936944,11618.6
125.3409495,12508.6
130.779805,11398.8
136.2102753,11117.6
141.6323747,11183.2
147.0461174,11847
152.4515176,11348
157.8485895,11320.6
163.2373472,11294.6
168.6178049,11514
173.9899766,11835.2
179.3538764,11346
184.7095182,11497
190.0569161,11633.4
195.396084,11836.2
200.7270358,11230
206.0497854,11249.2
211.3643466,11023.2
216.6707333,11392.4
221.9689593,11010.8
227.2590382,11172.4
232.5409839,11230.6
237.8148101,11108.8
243.0805303,11199.6
248.3381582,11212.2
253.5877075,11071.4
258.8291917,11198.2
264.0626244,11152.8
269.288019,11462.4
274.5053891,11565.4
279.7147481,11243.6
284.9161094,11010.8
290.1094865,11162.2
295.2948927,11572.4
300.4723414,12523.4
305.6418459,12974.2
310.8034194,13519
315.9570752,14447.8
321.1028267,14582.4
326.2406869,14571.8
331.370669,14822.4
336.4927863,14734.4
341.6070517,14808.6
346.7134786,14630.8
351.8120798,15037.4
356.9028684,14611.4
361.9858576,14809
367.0610602,15138
372.1284892,14841
377.1881577,15269
382.2400784,15318
387.2842644,15554
392.3207284,16021.8
397.3494833,15363.4
402.370542,15543.6
407.3839172,15004.8
412.3896217,14624.6
417.3876683,14198.8
422.3780697,14401.8
427.3608386,14446.8
432.3359876,14903.4
437.3035295,14898.6
442.2634769,14973.2
447.2158423,14288
452.1606383,14360.2
457.0978776,14613.2
462.0275727,14034
466.9497361,14505
471.8643802,13886.2
476.7715176,14349.2
481.6711608,14317
486.5633221,14634.4
491.448014,14376.8
496.3252488,14228
501.195039,14233.2
506.0573969,14599.4
510.9123349,14396.2
515.7598651,13895.6
520.6,14319.4
525.4327518,14286.2
530.2581327,14252.6
535.076155,13871.4
539.8868309,14190.2
544.6901726,14368
549.4861922,13989.8
554.2749019,14990.2
559.0563139,13988.6
563.8304402,13724.8
568.597293,14738.4
573.3568844,14495.6
578.1092263,14004.8
582.8543308,14451.8
587.5922101,14324.4
592.322876,14045.6
597.0463405,14030
601.7626157,14369.4
606.4717135,13934.8
611.1736458,14004.6
615.8684246,14113.2
620.5560617,14351.2
625.2365691,14039.2
629.9099585,14381.6
634.5762419,14663
639.2354312,14036.8
643.887538,14274
648.5325743,13870.6
653.1705518,13877
657.8014823,14155
662.4253775,13550
667.0422493,13833.6
671.6521092,13899.2
676.2549691,14115.4
680.8508407,14056.8
685.4397355,13887.4
690.0216654,14033
694.5966419,13784.2
699.1646767,14307.8
703.7257814,14015.8
708.2799676,14109.6
712.827247,14232.2
717.367631,13985.8
721.9011314,13966
726.4277595,13352.6
730.9475271,14098.2
735.4604456,13865
739.9665264,14408
744.4657813,13876
748.9582215,13879.8
753.4438587,13488.4
757.9227042,13367.2
762.3947696,13925
766.8600662,13461.4
771.3186056,14880.4
775.770399,13756.8
780.215458,14156.6
784.6537939,13397.2
789.0854181,13349
793.510342,13444.6
797.9285769,14006
802.3401342,13534
806.7450253,13632.6
811.1432614,13738.6
815.5348538,13424.8
819.9198139,13167.8
824.2981531,13455.8
828.6698824,13569.8
833.0350133,13493.4
837.393557,13132.2
841.7455248,13538.6
846.0909278,13350
850.4297774,13220.6
854.7620848,13282.6
859.0878611,13593.4
863.4071176,12976.8
867.7198655,13617.8
872.026116,13852.2
876.3258802,14204.2
880.6191693,13636
884.9059946,13687.6
889.186367,14098.6
893.4602979,12984
897.7277982,12989.4
901.9888793,13432.4
906.2435521,13759
910.4918277,13144.6
914.7337174,13145.4
918.9692321,13049
923.1983831,13671.2
927.4211813,13261.6
931.6376378,13844.4
935.8477637,13436
940.0515701,13644.8
944.249068,13563.2
948.4402684,12824.2
952.6251825,13616.8
956.8038212,13219.6
960.9761955,13852.2
965.1423166,13226.8
969.3021953,13389.8
973.4558427,13337
977.6032699,13203.2
981.7444877,13329.6
985.8795072,13228.6
990.0083394,13408.4
994.1309953,13086.8
998.2474857,13388
1002.357822,12577.8
1006.462014,13365.8
1010.560075,12924.2
1014.652013,13289
1018.737841,13638.6
1022.81757,13264.8
1026.891209,13073.6
1030.958771,12973.4
1035.020266,13413.2
1039.075705,13047
1043.1251,12785
1047.16846,13112.8
1051.205797,13004.4
1055.237121,12747.6
1059.262444,12695.6
1063.281777,12436
1067.295131,12488.8
1071.302515,13632
1075.303942,13087.6
1079.299422,14081.4
1083.288966,13511.8
1087.272585,13397.2
1091.250289,13259.4
1095.222091,13113.8
1099.187999,12908.6
1103.148026,13021.8
1107.102183,12847.6
1111.050479,13005
1114.992927,13038.8
1118.929536,12870.6
1122.860318,13066.2
1126.785283,12725.4
1130.704443,12501.8
1134.617808,13182.8
1138.52539,13134.4
1142.427198,13030.6
1146.323244,13158.4
1150.213538,12706.8
1154.098093,13173.6
1157.976917,12580.4
1161.850023,12509.2
1165.717421,13106.6
1169.579121,12854.4
1173.435135,13192
1177.285474,12336.2
1181.130148,12500.2
1184.969169,12738.6
1188.802547,12803.2
1192.630292,12518.2
1196.452416,12279.2
1200.26893,12354.6
1204.079844,12127.8
1207.88517,11783.6
1211.684917,12434
1215.479098,12106.8
1219.267722,13628
1223.050801,12118.2
1226.828346,12223.6
1230.600366,12418.6
1234.366874,12488.2
1238.12788,12199.8
1241.883395,12166
1245.633429,12505.2
1249.377994,12502.2
1253.1171,11770
1256.850759,12231.2
1260.578981,12078.8
1264.301776,12208
1268.019157,12228.8
1271.731133,11902
1275.437715,11731.2
1279.138915,12329
1282.834743,12520.8
1286.52521,12050.8
1290.210328,11882.8
1293.890106,12103
1297.564555,12560.4
1301.233688,11894.6
1304.897514,12238.4
1308.556044,12318.4
1312.209289,12349
1315.857261,11906.4
1319.499969,11920.2
1323.137425,12675.2
1326.769641,12156.6
1330.396626,12762.6
1334.018391,12196.8
1337.634948,12226.4
1341.246307,12018
1344.85248,11862.8
1348.453477,11738
1352.049309,11710.6
1355.639987,11854.6
1359.225522,12433.2
1362.805925,12048.2
1366.381207,12019.6
1369.951379,12144.6
1373.516452,12124.2
1377.076436,12356.4
1380.631343,12158.8
1384.181184,11943
1387.725969,12137.2
1391.26571,11801.6
1394.800417,11702.8
1398.330102,11816
1401.854776,12148.6
1405.374448,11936.6
1408.889132,11559.6
1412.398837,11282.2
1415.903574,11629.4
1419.403355,12162.2
1422.89819,11755.2
1426.388091,11719.8
1429.873069,12217.2
1433.353134,11568.4
1436.828298,11785.6
1440.298571,11881.8
1443.763965,11620.4
1447.224491,11591.6
1450.68016,11567.4
1454.130983,12015.8
1457.576971,11907
1461.018135,12149
1464.454486,12232.2
1467.886036,11787
1471.312794,11954.4
1474.734774,11527.6
1478.151985,12206.2
1481.564439,11943
1484.972146,11931.4
1488.375119,11520.2
1491.773368,11880
1495.166904,12466.8
1498.555739,11796.8
1501.939883,11955.2
1505.319349,11460
1508.694146,11821.4
1512.064286,11819.8
1515.429781,11752.4
1518.790642,11572.4
1522.146879,11814.2
1525.498505,11406.4
1528.845529,11360.6
1532.187965,12062.4
1535.525822,11705.8
1538.859112,11717
1542.187846,12341.6
1545.512036,11395.8
1548.831693,12658.2
1552.146829,12123.8
1555.457453,11404.8
1558.763579,11038
1562.065216,11604.2
1565.362377,11783
1568.655073,12068.4
1571.943315,11754.6
1575.227114,11787.8
1578.506482,11659.2
1581.781431,12258.4
1585.051971,11839.4
1588.318114,11904.4
1591.579872,11939.6
1594.837255,11690.2
1598.090275,11596.4
1601.338945,11618.4
1604.583274,11963.6
1607.823275,11689.4
1611.058959,11368.8
1614.290338,12476.4
1617.517422,11146
1620.740224,11476
1623.958755,11273
1627.173027,11328
1630.38305,11072.2
1633.588838,11485.8
1636.7904,11142
1639.987749,11445.4
1643.180896,11581.8
1646.369853,11089.8
1649.554632,11895.6
1652.735244,11194.8
1655.9117,10905
1659.084013,11271.4
1662.252193,11981.2
1665.416254,11129.4
1668.576205,11313
1671.732059,11637.8
1674.883828,11678.8
1678.031523,11037.8
1681.175157,11285.6
1684.314739,11342.4
1687.450284,11198.6
1690.581801,11274.6
1693.709304,10970
1696.832803,11060.4
1699.952311,11187.2
1703.067839,11276.2
1706.179399,11259.6
1709.287003,11683.8
1712.390663,11306
1715.49039,11255.4
1718.586197,11739.8
1721.678095,11463
1724.766096,11447.4
1727.850213,10937.4
1730.930456,11225.8
1734.006838,11076.4
1737.079372,11258.4
1740.148067,10999.8
1743.212938,12045.6
1746.273996,11324.6
1749.331252,11236.8
1752.384718,11306.6
1755.434408,11328.4
1758.480332,11366.4
1761.522503,11281.6
1764.560933,11060.4
1767.595634,10898.2
1770.626618,11542.6
1773.653896,11553.6
1776.677482,11236.6
1779.697388,11175.8
1782.713625,11721.2
1785.726205,11611.4
1788.735141,11579
1791.740445,11082.6
1794.742129,11109.6
1797.740206,11628.8
1800.734687,11580.6
1803.725585,11310.2
1806.712912,11398.6
1809.69668,11043.8
1812.676902,11204.6
1815.65359,10906.2
1818.626756,10986.2
1821.596413,11184.2
1824.562573,10865.2
1827.525247,11187.8
1830.48445,10995
1833.440192,11180.6
1836.392487,11078.4
1839.341347,11257.2
1842.286784,11308.2
1845.22881,10774.4
1848.167439,11280.8
1851.102682,11111
1854.034553,11037.2
1856.963063,10908.6
1859.888226,11764.6
1862.810053,11233
1865.728557,11195.6
1868.643751,10899.8
1871.555648,10877
1874.46426,10613.2
1877.369599,11163
1880.271679,11117
1883.170512,10949.8
1886.06611,11360.8
1888.958487,11108
1891.847655,10966
1894.733626,11192.4
1897.616414,11188.4
1900.496032,10803.2
1903.372491,11036
1906.245805,11357.4
1909.115987,11498.6
1911.983049,11406.2
1914.847004,11248.6
1917.707866,11417.6
1920.565646,11455.6
1923.420359,11008.6
1926.272016,11234.6
1929.120631,11080.4
1931.966216,11205
1934.808786,11038
1937.648351,11330.2
1940.484927,11293.4
1943.318525,11326.6
1946.149158,11559.6
1948.97684,12652.4
1951.801584,11610.2
1954.623403,11403.2
1957.44231,11448.2
1960.258318,10995.2
1963.071439,11122.8
1965.881688,11207.8
1968.689078,11335
1971.493621,11111.6
