Ramanshift[cm-1],Intensity
-93.47115107,21010.8
-87.69374369,19010.6
-81.9253076,18820
-76.16582701,19022.4
-70.41528615,19155.2
-64.67366933,18587.4
-58.94096086,18602.8
-53.21714512,18817.6
-47.50220652,19039.4
-41.79612954,19063.8
-36.09889866,19736.8
-30.41049843,19707.2
-24.73091343,19147.2
-19.0601283,19291.6
-13.39812769,18904.4
-7.744896327,18683.2
-2.100418946,18330.4
3.535319659,19330
9.162334658,18361.6
14.78064118,18717
20.39025432,18307
25.99118913,18452
31.58346061,18907.8
37.16708375,18651.6
42.74207347,18109.2
48.30844468,18285
53.86621222,17966
59.41539093,17505.4
64.95599558,17544.4
70.48804091,18100.2
76.01154164,18333
81.52651243,17369.4
87.03296792,18121
92.5309227,18557
98.02039134,17546.4
103.5013884,18011.2
108.9739282,17688.8
114.4380255,17778.6
119.8936944,18041
125.3409495,19304.8
130.779805,17562.2
136.2102753,17364.2
141.6323747,17365.8
147.0461174,18240
152.4515176,17551.6
157.8485895,17474
163.2373472,17356.4
168.6178049,17758
173.9899766,18167
179.3538764,17522.6
184.7095182,17694.6
190.0569161,17869.6
195.396084,18187.6
200.7270358,17262.2
206.0497854,17426.2
211.3643466,16912.4
216.6707333,17583.8
221.9689593,17005.2
227.2590382,17418.8
232.5409839,17208.6
237.8148101,17151.6
243.0805303,17327.2
248.3381582,17323.8
253.5877075,17253
258.8291917,17438.2
264.0626244,17651
269.288019,17997
274.5053891,18441.2
279.7147481,18889.6
284.9161094,21834
290.1094865,33321.6
295.2948927,64069.4
300.4723414,64164.6
305.6418459,64164.4
310.8034194,64164
315.9570752,64164.4
321.1028267,64163.8
326.2406869,64163.6
331.370669,64164.4
336.4927863,64164.2
341.6070517,64164.2
346.7134786,64165
351.8120798,64164.6
356.9028684,64165.4
361.9858576,64165.2
367.0610602,64166.2
372.1284892,64166.6
377.1881577,64166.4
382.2400784,64166.4
387.2842644,64167
392.3207284,64166.4
397.3494833,64166.6
402.370542,64166.6
407.3839172,64166.6
412.3896217,64167.4
417.3876683,64167.4
422.3780697,64167.4
427.3608386,64167.2
432.3359876,64167.4
437.3035295,64166.8
442.2634769,64166.2
447.2158423,64166.2
452.1606383,64166
457.0978776,64166.6
462.0275727,64166.6
466.9497361,64166.8
471.8643802,64166
476.7715176,64166
481.6711608,64165.8
486.5633221,64165.6
491.448014,64165.2
496.3252488,64165
501.195039,64164.2
506.0573969,64165.2
510.9123349,64164.4
515.7598651,64164.2
520.6,64164.6
525.4327518,64163.6
530.2581327,64164.6
535.076155,64163.8
539.8868309,64165
544.6901726,64164.4
549.4861922,64165
554.2749019,64164.6
559.0563139,64165.2
563.8304402,64164.4
568.597293,64165.6
573.3568844,64166
578.1092263,64166
582.8543308,64166.4
587.5922101,64165.6
592.322876,64165.8
597.0463405,64166
601.7626157,64166.6
606.4717135,64167.6
611.1736458,64166.6
615.8684246,64166.8
620.5560617,64166.2
625.2365691,64166.8
629.9099585,64167
634.5762419,64166.4
639.2354312,64166.6
643.887538,64165.8
648.5325743,64166
653.1705518,64165.8
657.8014823,64166
662.4253775,64165.6
667.0422493,64165.6
671.6521092,64166
676.2549691,64165.4
680.8508407,64165.2
685.4397355,64165.2
690.0216654,64165
694.5966419,64164.6
699.1646767,64165
703.7257814,64165.2
708.2799676,64164.6
712.827247,64165.2
717.367631,64164.6
721.9011314,64164.4
726.4277595,64164.6
730.9475271,64165
735.4604456,64165
739.9665264,64164.4
744.4657813,64164.6
748.9582215,64165.4
753.4438587,64164.6
757.9227042,64166
762.3947696,64166
766.8600662,64165.6
771.3186056,64165.8
775.770399,64166.2
780.215458,64166.6
784.6537939,64168
789.0854181,64167.4
793.510342,64167.6
797.9285769,64167.4
802.3401342,64167.6
806.7450253,64168.2
811.1432614,64167.6
815.5348538,64166.8
819.9198139,64168
824.2981531,64167
828.6698824,64167.4
833.0350133,64167.6
837.393557,64167.8
841.7455248,64168
846.0909278,64167.6
850.4297774,64167
854.7620848,64167.4
859.0878611,64166.2
863.4071176,64165.4
867.7198655,64165.8
872.026116,64165
876.3258802,64165
880.6191693,64164.8
884.9059946,64164.4
889.186367,64165
893.4602979,64163.8
897.7277982,64164
901.9888793,64163.8
906.2435521,64164.8
910.4918277,64163.2
914.7337174,64163.8
918.9692321,64163.8
923.1983831,64163.8
927.4211813,64164.2
931.6376378,64164.8
935.8477637,64165.4
940.0515701,64165
944.249068,64164.4
948.4402684,64165.6
952.6251825,64165.8
956.8038212,64166.4
960.9761955,64167
965.1423166,64166.6
969.3021953,64166.6
973.4558427,64167
977.6032699,64167
981.7444877,64167.4
985.8795072,64167.8
990.0083394,64167.2
994.1309953,64168.2
998.2474857,64167.2
1002.357822,64167.2
1006.462014,64167.4
1010.560075,64167
1014.652013,64167.6
1018.737841,64167.4
1022.81757,64166.6
1026.891209,64166.8
1030.958771,64167
1035.020266,64166.4
1039.075705,64166.2
1043.1251,64165
1047.16846,64165
1051.205797,64164.4
1055.237121,64164.8
1059.262444,64163.4
1063.281777,64163.2
1067.295131,64164.2
1071.302515,64163.8
1075.303942,64163.6
1079.299422,64163.6
1083.288966,64162.6
1087.272585,64163.6
1091.250289,64163.8
1095.222091,64164
1099.187999,64163.6
1103.148026,64163
1107.102183,64164.4
1111.050479,64164.4
1114.992927,64165.2
1118.929536,64165.4
1122.860318,64165.6
1126.785283,64164.6
1130.704443,64165.8
1134.617808,64167.2
1138.52539,64166.6
1142.427198,64167.2
1146.323244,64167.6
1150.213538,64168.4
1154.098093,64168.8
1157.976917,64168.8
1161.850023,64168.6
1165.717421,64168.8
1169.579121,64168.8
1173.435135,64169.2
1177.285474,64168.4
1181.130148,64169.2
1184.969169,64168.4
1188.802547,64168.2
1192.630292,64168.4
1196.452416,64167.4
1200.26893,64166.8
1204.079844,64167.2
1207.88517,64166.6
1211.684917,64167
1215.479098,64166.4
1219.267722,64165.8
1223.050801,64165.6
1226.828346,64164.8
1230.600366,64165
1234.366874,64163.4
1238.12788,64163.2
1241.883395,64163
1245.633429,64162.6
1249.377994,64163
1253.1171,64162.8
1256.850759,64161.8
1260.578981,64162.2
1264.301776,64162.6
1268.019157,64161.8
1271.731133,64162.6
1275.437715,64163.2
1279.138915,64163
1282.834743,64163.4
1286.52521,64164
1290.210328,64164.2
1293.890106,64165
1297.564555,64164.8
1301.233688,64165.8
1304.897514,64166.4
1308.556044,64166.6
1312.209289,64166.4
1315.857261,64167
1319.499969,64168.2
1323.137425,64168
1326.769641,64168
1330.396626,64169
1334.018391,64169
1337.634948,64169.4
1341.246307,64168.8
1344.85248,64169.2
1348.453477,64169.2
1352.049309,64169.6
1355.639987,64169.6
1359.225522,64169
1362.805925,64169
1366.381207,64168.6
1369.951379,64168
1373.516452,64168.8
1377.076436,64168.2
1380.631343,64168.2
1384.181184,64167.6
1387.725969,64166.8
1391.26571,64166
1394.800417,64166.6
1398.330102,64165.4
1401.854776,64164.6
1405.374448,64164.6
1408.889132,64164.4
1412.398837,64164
1415.903574,64164
1419.403355,64163
1422.89819,64163.8
1426.388091,64163
1429.873069,64162.8
1433.353134,64162.6
1436.828298,64162.8
1440.298571,64163
1443.763965,64163.2
1447.224491,64162.8
1450.68016,64163.4
1454.130983,64163.2
1457.576971,64164
1461.018135,64164.2
1464.454486,64164.8
1467.886036,64165
1471.312794,64165.8
1474.734774,64166.4
1478.151985,64167
1481.564439,64167.2
1484.972146,64167.2
1488.375119,64168
1491.773368,64168.6
1495.166904,64168.6
1498.555739,64169
1501.939883,64169.4
1505.319349,64170.6
1508.694146,64169.6
1512.064286,64170.6
1515.429781,64170
1518.790642,64170.6
1522.146879,64169.8
1525.498505,64169.4
1528.845529,64170
1532.187965,64169.6
1535.525822,64169.2
1538.859112,64169.4
1542.187846,64168.2
1545.512036,64167.4
1548.831693,64166.6
1552.146829,64166.2
1555.457453,64165.6
1558.763579,64165.4
1562.065216,64164
1565.362377,64163.2
1568.655073,64163.2
1571.943315,64163.4
1575.227114,64162.2
1578.506482,64162.4
1581.781431,64161.6
1585.051971,64161.8
1588.318114,64161.4
1591.579872,64161.6
1594.837255,64161.6
1598.090275,64161
1601.338945,64161.8
1604.583274,64162.4
1607.823275,64163.2
1611.058959,64164.2
1614.290338,64163.8
1617.517422,64164.6
1620.740224,64165
1623.958755,64165.6
1627.173027,64166
1630.38305,64167.4
1633.588838,64168.2
1636.7904,64168.8
1639.987749,64170
1643.180896,64170.2
1646.369853,64170.6
1649.554632,64170.8
1652.735244,64170.8
1655.9117,64171.4
1659.084013,64172
1662.252193,64172.2
1665.416254,64172.2
1668.576205,64172
1671.732059,64172.4
1674.883828,64171.2
1678.031523,64171
1681.175157,64170.6
1684.314739,64169.8
1687.450284,64170.2
1690.581801,64169
1693.709304,64168.6
1696.832803,64167.6
1699.952311,64166.4
1703.067839,64166.2
1706.179399,64165.6
1709.287003,64164.4
1712.390663,64164.2
1715.49039,64163
1718.586197,64161.6
1721.678095,64161.2
1724.766096,64160.8
1727.850213,64160.2
1730.930456,64159.8
1734.006838,64159.4
1737.079372,64159.6
1740.148067,64159.2
1743.212938,64160
1746.273996,64159.8
1749.331252,64160.6
1752.384718,64161
1755.434408,64161.6
1758.480332,64162
1761.522503,64163
1764.560933,64164.2
1767.595634,64165.2
1770.626618,64166.6
1773.653896,64168.6
1776.677482,64169.2
1779.697388,64170.4
1782.713625,64170.4
1785.726205,64172
1788.735141,64172.6
1791.740445,64174.6
1794.742129,64174.8
1797.740206,64175.4
1800.734687,64175.2
1803.725585,64175.6
1806.712912,64176
1809.69668,64175.8
1812.676902,64176.4
1815.65359,64176
1818.626756,64176.4
1821.596413,64175.6
1824.562573,64175.2
1827.525247,64174.4
1830.48445,64173
1833.440192,64172.6
1836.392487,64171.4
1839.341347,64170.6
1842.286784,64169.2
1845.22881,64168.2
1848.167439,64166.4
1851.102682,64165.6
1854.034553,64163.6
1856.963063,64162.6
1859.888226,64161.4
1862.810053,64161
1865.728557,64159.2
1868.643751,64159
1871.555648,64158.2
1874.46426,64158
1877.369599,64158
1880.271679,64157.8
1883.170512,64158.4
1886.06611,64159.4
1888.958487,64159.4
1891.847655,64161
1894.733626,64162
1897.616414,64163.2
1900.496032,64164.6
1903.372491,64166.2
1906.245805,64167.4
1909.115987,64169.6
1911.983049,64171.4
1914.847004,64172.8
1917.707866,64175.2
1920.565646,64175.6
1923.420359,64177.6
1926.272016,64178.4
1929.120631,64180
1931.966216,64181.2
1934.808786,64182.2
1937.648351,64183
1940.484927,64184.2
1943.318525,64184
1946.149158,64183.4
1948.97684,64181.6
1951.801584,64179
1954.623403,64175
1957.44231,64170.6
1960.258318,64168
1963.071439,64171.8
1965.881688,64192
1968.689078,64261
1971.493621,64480.6
