Ramanshift[cm-1],Intensity
-93.47115107,25677.8
-87.69374369,23408.6
-81.9253076,22946.2
-76.16582701,23357.8
-70.41528615,23565.8
-64.67366933,22812.4
-58.94096086,22915.8
-53.21714512,23104
-47.50220652,23412.6
-41.79612954,23599.2
-36.09889866,24199
-30.41049843,24118.4
-24.73091343,23435
-19.0601283,23610.2
-13.39812769,23289.2
-7.744896327,22952
-2.100418946,22526.6
3.535319659,23522.8
9.162334658,22572
14.78064118,22942.2
20.39025432,22446.2
25.99118913,22729.6
31.58346061,23377.4
37.16708375,22959
42.74207347,22317.4
48.30844468,22325.6
53.86621222,22091.6
59.41539093,21509.8
64.95599558,21445.4
70.48804091,22351.8
76.01154164,22255.8
81.52651243,21077.2
87.03296792,22150.2
92.5309227,22781.6
98.02039134,21514.2
103.5013884,21953.6
108.9739282,21604
114.4380255,21898
119.8936944,22145.6
125.3409495,23462.8
130.779805,21571.8
136.2102753,21131.2
141.6323747,21155.2
147.0461174,22343.6
152.4515176,21436.8
157.8485895,21240
163.2373472,20992.8
168.6178049,21660.8
173.9899766,22093.4
179.3538764,21319.6
184.7095182,21617.8
190.0569161,21727.4
195.396084,22024.8
200.7270358,20960.2
206.0497854,21085.2
211.3643466,20602.4
216.6707333,21352
221.9689593,20623
227.2590382,20979.4
232.5409839,20839
237.8148101,20754.2
243.0805303,20878
248.3381582,20812
253.5877075,20714.2
258.8291917,20905.8
264.0626244,21130.6
269.288019,21469.4
274.5053891,21455.4
279.7147481,21017.2
284.9161094,20619.4
290.1094865,21235
295.2948927,23005.6
300.4723414,26907
305.6418459,30630.8
310.8034194,34299.2
315.9570752,37459.4
321.1028267,38118.2
326.2406869,37993
331.370669,38256.2
336.4927863,38201.8
341.6070517,38940.8
346.7134786,39109.8
351.8120798,39710
356.9028684,39194.8
361.9858576,38969.8
367.0610602,39510.2
372.1284892,39042.8
377.1881577,39594.6
382.2400784,39042.6
387.2842644,38786.4
392.3207284,39393
397.3494833,38588
402.370542,39708.2
407.3839172,39941
412.3896217,40949
417.3876683,42455.6
422.3780697,43835.6
427.3608386,43626
432.3359876,42971
437.3035295,41707.8
442.2634769,41025.4
447.2158423,38600.2
452.1606383,38097.2
457.0978776,38152
462.0275727,36779
466.9497361,37774.6
471.8643802,36541.2
476.7715176,37423
481.6711608,37074.4
486.5633221,37323
491.448014,37025.4
496.3252488,36947.8
501.195039,37283.6
506.0573969,37701
510.9123349,37679.8
515.7598651,36961.8
520.6,37948.4
525.4327518,37624.4
530.2581327,37211.2
535.076155,36207.4
539.8868309,36552.6
544.6901726,36725.4
549.4861922,36351.4
554.2749019,37766.8
559.0563139,36023.2
563.8304402,35685
568.597293,37948
573.3568844,37405.8
578.1092263,36233.2
582.8543308,36891.2
587.5922101,36938.2
592.322876,36099.8
597.0463405,36226.6
601.7626157,36743.4
606.4717135,35643.4
611.1736458,35509.2
615.8684246,35588.2
620.5560617,36243.6
625.2365691,35491.6
629.9099585,35893
634.5762419,36028.8
639.2354312,34891.8
643.887538,35068.2
648.5325743,34530.8
653.1705518,34666
657.8014823,35277.2
662.4253775,33946.2
667.0422493,34621.4
671.6521092,34566.6
676.2549691,34615.6
680.8508407,34390
685.4397355,34298
690.0216654,34470.2
694.5966419,34394.8
699.1646767,35318.2
703.7257814,34921
708.2799676,35043
712.827247,35108.2
717.367631,34206.4
721.9011314,34218.6
726.4277595,33119.8
730.9475271,34298.8
735.4604456,34359
739.9665264,35364.2
744.4657813,34592.2
748.9582215,34307.4
753.4438587,33341.8
757.9227042,32450
762.3947696,33246.2
766.8600662,32510.4
771.3186056,34812.8
775.770399,33107.2
780.215458,33483.2
784.6537939,32279.2
789.0854181,31930
793.510342,32097.4
797.9285769,32932.2
802.3401342,31950.4
806.7450253,32305.4
811.1432614,31948.2
815.5348538,31557.4
819.9198139,31071.8
824.2981531,31572.2
828.6698824,31655.4
833.0350133,31507.2
837.393557,31241
841.7455248,31806.6
846.0909278,31322.2
850.4297774,31096.8
854.7620848,30940
859.0878611,31306.2
863.4071176,30358
867.7198655,31456.8
872.026116,32043.2
876.3258802,32548.6
880.6191693,31799.2
884.9059946,31867.2
889.186367,32244.6
893.4602979,30124.2
897.7277982,29933.4
901.9888793,30624.4
906.2435521,31576.6
910.4918277,30315
914.7337174,30307.2
918.9692321,29929
923.1983831,30934.2
927.4211813,30250.2
931.6376378,31729.6
935.8477637,30799.6
940.0515701,31394.6
944.249068,31410
948.4402684,30373.8
952.6251825,31648.2
956.8038212,30878.4
960.9761955,32167.2
965.1423166,31327.6
969.3021953,31257
973.4558427,31430.2
977.6032699,31205.2
981.7444877,31264.2
985.8795072,31515.4
990.0083394,31397.6
994.1309953,31045.6
998.2474857,31637
1002.357822,30073.6
1006.462014,31255.8
1010.560075,30916.4
1014.652013,31447
1018.737841,32054.8
1022.81757,31078.4
1026.891209,31042.6
1030.958771,31023.4
1035.020266,31964.4
1039.075705,31278.8
1043.1251,30841.6
1047.16846,31068.2
1051.205797,30645.2
1055.237121,30243
1059.262444,30005
1063.281777,29786.6
1067.295131,30112
1071.302515,31752.8
1075.303942,30641
1079.299422,32390.6
1083.288966,31950.4
1087.272585,32559.2
1091.250289,34290.6
1095.222091,36753.4
1099.187999,38709.4
1103.148026,40761.8
1107.102183,40776.6
1111.050479,39739.2
1114.992927,37153.6
1118.929536,34350.2
1122.860318,33456
1126.785283,31873.6
1130.704443,31392.8
1134.617808,32623.2
1138.52539,32288.2
1142.427198,32107.6
1146.323244,32265.4
1150.213538,32106.4
1154.098093,33876.6
1157.976917,34330.4
1161.850023,36116.6
1165.717421,39253.2
1169.579121,39661
1173.435135,39600.4
1177.285474,36183.6
1181.130148,34439
1184.969169,33739.2
1188.802547,32880
1192.630292,31907.2
1196.452416,31340.6
1200.26893,31546.4
1204.079844,31074.8
1207.88517,30863.2
1211.684917,32360.2
1215.479098,31964.4
1219.267722,34338.2
1223.050801,31509.4
1226.828346,31354.8
1230.600366,31555.2
1234.366874,31287.2
1238.12788,30549.2
1241.883395,30603.4
1245.633429,31125
1249.377994,31386.8
1253.1171,30221
1256.850759,31008.8
1260.578981,30879
1264.301776,31023.6
1268.019157,30853.2
1271.731133,30333
1275.437715,30360.4
1279.138915,31340.8
1282.834743,31842.2
1286.52521,30769.8
1290.210328,30604.2
1293.890106,30961.4
1297.564555,31585.4
1301.233688,30793.6
1304.897514,31525.6
1308.556044,31601
1312.209289,31593
1315.857261,30773.2
1319.499969,31028.8
1323.137425,32671.6
1326.769641,31973.6
1330.396626,33503.4
1334.018391,32569.8
1337.634948,32968.6
1341.246307,32481
1344.85248,32313
1348.453477,31914.6
1352.049309,31769.4
1355.639987,31864
1359.225522,33092.6
1362.805925,32070.8
1366.381207,32070.8
1369.951379,32107.2
1373.516452,32564.4
1377.076436,32847.8
1380.631343,32716.4
1384.181184,32599.8
1387.725969,32713.2
1391.26571,32250.2
1394.800417,32294.2
1398.330102,32956.4
1401.854776,33770
1405.374448,33537.2
1408.889132,33644.6
1412.398837,33879.6
1415.903574,35068
1419.403355,36162.2
1422.89819,34834.6
1426.388091,33367.4
1429.873069,33021.2
1433.353134,31656
1436.828298,31239.6
1440.298571,31253.2
1443.763965,31105.6
1447.224491,31593.8
1450.68016,32816.2
1454.130983,34859.8
1457.576971,35374.2
1461.018135,36360.6
1464.454486,36081.8
1467.886036,34234.8
1471.312794,33401.4
1474.734774,31901.8
1478.151985,32318
1481.564439,31303.4
1484.972146,30428.8
1488.375119,29587
1491.773368,29990.4
1495.166904,30904.6
1498.555739,29963.6
1501.939883,30235.8
1505.319349,29451
1508.694146,29762.8
1512.064286,29761.4
1515.429781,29681
1518.790642,29314
1522.146879,29450
1525.498505,28571.2
1528.845529,28404.8
1532.187965,29319
1535.525822,29033.8
1538.859112,29247.8
1542.187846,30240.4
1545.512036,28441.4
1548.831693,30901.8
1552.146829,29978
1555.457453,28996
1558.763579,28130.2
1562.065216,28939.4
1565.362377,29424.6
1568.655073,30039.4
1571.943315,29454.6
1575.227114,29257.8
1578.506482,29161
1581.781431,30100.8
1585.051971,29207.8
1588.318114,29437.4
1591.579872,30043.4
1594.837255,30144.2
1598.090275,30428.8
1601.338945,30972.8
1604.583274,31928.4
1607.823275,31521.2
1611.058959,30525.2
1614.290338,31436
1617.517422,30301.4
1620.740224,30680
1623.958755,29546.4
1627.173027,29043
1630.38305,27802.2
1633.588838,28075.8
1636.7904,27152.8
1639.987749,27481.2
1643.180896,27432.4
1646.369853,26173.6
1649.554632,27306.8
1652.735244,26048.2
1655.9117,25324
1659.084013,25825.8
1662.252193,26647.4
1665.416254,24963
1668.576205,25406.4
1671.732059,25810.8
1674.883828,25579.8
1678.031523,24716.8
1681.175157,24940.6
1684.314739,24695.8
1687.450284,24261.4
1690.581801,24254.8
1693.709304,23880.2
1696.832803,23780.6
1699.952311,23967.4
1703.067839,23897.8
1706.179399,23959
1709.287003,24663.2
1712.390663,23726.6
1715.49039,23745.8
1718.586197,24183.2
1721.678095,23931.6
1724.766096,23890.2
1727.850213,22918
1730.930456,23572
1734.006838,23193.8
1737.079372,23509.6
1740.148067,22937.4
1743.212938,24799.8
1746.273996,23443.6
1749.331252,23194.8
1752.384718,23038.6
1755.434408,23238
1758.480332,23069.2
1761.522503,23232.2
1764.560933,22742.4
1767.595634,22082.4
1770.626618,23282
1773.653896,23234.8
1776.677482,22580.8
1779.697388,22665.4
1782.713625,23645.6
1785.726205,23440.8
1788.735141,23517.8
1791.740445,22749.8
1794.742129,22351.6
1797.740206,23286.8
1800.734687,23661.2
1803.725585,23174
1806.712912,22949.6
1809.69668,22534.2
1812.676902,22489.6
1815.65359,21896.6
1818.626756,22226.4
1821.596413,22411.6
1824.562573,21891.8
1827.525247,22665
1830.48445,22314
1833.440192,22291.6
1836.392487,22085
1839.341347,22579.8
1842.286784,22467
1845.22881,21815.6
1848.167439,22637.2
1851.102682,22277.8
1854.034553,22210.6
1856.963063,21964
1859.888226,23524.2
1862.810053,22693.6
1865.728557,22469.4
1868.643751,21918.6
1871.555648,21912
1874.46426,21311.6
1877.369599,22539.6
1880.271679,22249
1883.170512,21962.2
1886.06611,23101.6
1888.958487,22340.2
1891.847655,22383.2
1894.733626,22427.4
1897.616414,22557.4
1900.496032,21755.4
1903.372491,22548.8
1906.245805,22897.8
1909.115987,22904.6
1911.983049,22983.2
1914.847004,22561
1917.707866,22884.6
1920.565646,22628.2
1923.420359,21936.4
1926.272016,22635.8
1929.120631,21965
1931.966216,22438.6
1934.808786,22231.6
1937.648351,22703.6
1940.484927,22656.6
1943.318525,22965.2
1946.149158,23331
1948.97684,25137.6
1951.801584,23388.6
1954.623403,22880.4
1957.44231,23127.8
1960.258318,22215
1963.071439,22328.6
1965.881688,22614.4
1968.689078,22958.6
1971.493621,22381.2
