Ramanshift[cm-1],Intensity
-93.47115107,13771.4
-87.69374369,12523.8
-81.9253076,12271.6
-76.16582701,12427
-70.41528615,12453.8
-64.67366933,12180.8
-58.94096086,12236.4
-53.21714512,12393.8
-47.50220652,12449.2
-41.79612954,12561.6
-36.09889866,12977.6
-30.41049843,12949.2
-24.73091343,12660.8
-19.0601283,12766
-13.39812769,12525.8
-7.744896327,12186.2
-2.100418946,12120
3.535319659,12752.8
9.162334658,12076.8
14.78064118,12433.2
20.39025432,12029.4
25.99118913,12127.6
31.58346061,12613.8
37.16708375,12286.8
42.74207347,12062.4
48.30844468,12125.4
53.86621222,11973
59.41539093,11651.6
64.95599558,11641.6
70.48804091,11995.4
76.01154164,12085.2
81.52651243,11563
87.03296792,12063.2
92.5309227,12347
98.02039134,11753.2
103.5013884,11898.6
108.9739282,11725.6
114.4380255,11709
119.8936944,12049.4
125.3409495,12916.6
130.779805,11783.8
136.2102753,11439.8
141.6323747,11605.8
147.0461174,12207.6
152.4515176,11727.4
157.8485895,11650.2
163.2373472,11563.2
168.6178049,11847.8
173.9899766,12145
179.3538764,11749.2
184.7095182,11765
190.0569161,12012.2
195.396084,12145
200.7270358,11591.8
206.0497854,11662.8
211.3643466,11274.8
216.6707333,11719.8
221.9689593,11321.2
227.2590382,11555.4
232.5409839,11444.2
237.8148101,11420.6
243.0805303,11554.2
248.3381582,11453.2
253.5877075,11414.2
258.8291917,11505.2
264.0626244,11514
269.288019,11791.6
274.5053891,11708.6
279.7147481,11545.4
284.9161094,11265.2
290.1094865,11409.8
295.2948927,11680.8
300.4723414,12635.4
305.6418459,12802.4
310.8034194,13017.4
315.9570752,13950.4
321.1028267,14092.2
326.2406869,14107.4
331.370669,14277.6
336.4927863,14231.4
341.6070517,14255.8
346.7134786,14077.4
351.8120798,14299
356.9028684,13921.6
361.9858576,14140.8
367.0610602,14492.4
372.1284892,14177.4
377.1881577,14653
382.2400784,14537.6
387.2842644,14650.6
392.3207284,15024.2
397.3494833,14543.4
402.370542,14678.8
407.3839172,14249.8
412.3896217,13847.6
417.3876683,13606.8
422.3780697,13819
427.3608386,13934.4
432.3359876,14128.8
437.3035295,14442.2
442.2634769,14394.4
447.2158423,13690.8
452.1606383,13787.2
457.0978776,13965
462.0275727,13446.2
466.9497361,13918.4
471.8643802,13380
476.7715176,13850.8
481.6711608,13730.8
486.5633221,13948.2
491.448014,13771.8
496.3252488,13710
501.195039,13732.4
506.0573969,13948.6
510.9123349,13813.4
515.7598651,13242.8
520.6,13832.2
525.4327518,13772.4
530.2581327,13859.4
535.076155,13334.4
539.8868309,13713.2
544.6901726,13796.6
549.4861922,13618.2
554.2749019,14463
559.0563139,13493.2
563.8304402,13230.4
568.597293,14318.6
573.3568844,14083.2
578.1092263,13518
582.8543308,13984
587.5922101,13875.4
592.322876,13554
597.0463405,13625.8
601.7626157,13907
606.4717135,13492.4
611.1736458,13439.6
615.8684246,13681.6
620.5560617,13738.4
625.2365691,13573.4
629.9099585,13953.4
634.5762419,14321
639.2354312,13608.6
643.887538,13949.4
648.5325743,13468
653.1705518,13534.2
657.8014823,13734.2
662.4253775,13072.4
667.0422493,13531.2
671.6521092,13481
676.2549691,13670.2
680.8508407,13546.8
685.4397355,13448
690.0216654,13603.2
694.5966419,13308.2
699.1646767,13869.6
703.7257814,13638.2
708.2799676,13753.2
712.827247,13782
717.367631,13522.2
721.9011314,13602.8
726.4277595,12980.2
730.9475271,13686.8
735.4604456,13480.2
739.9665264,14031.2
744.4657813,13541.4
748.9582215,13584.8
753.4438587,13137.4
757.9227042,12950.4
762.3947696,13488.8
766.8600662,13175.8
771.3186056,14582
775.770399,13548.8
780.215458,13869.2
784.6537939,13133.8
789.0854181,13026.6
793.510342,13156.2
797.9285769,13708.6
802.3401342,13184.2
806.7450253,13329
811.1432614,13238
815.5348538,13147.2
819.9198139,12837.8
824.2981531,13155.6
828.6698824,13299.6
833.0350133,13233.8
837.393557,12932.8
841.7455248,13324.4
846.0909278,13033
850.4297774,12990
854.7620848,13087.2
859.0878611,13312.6
863.4071176,12746.6
867.7198655,13195
872.026116,13439.4
876.3258802,14005.4
880.6191693,13325.2
884.9059946,13361.6
889.186367,13875.8
893.4602979,12804.4
897.7277982,12790.6
901.9888793,13191
906.2435521,13499
910.4918277,12889.2
914.7337174,12844.2
918.9692321,12792.2
923.1983831,13409.4
927.4211813,13023.2
931.6376378,13658.4
935.8477637,13150.2
940.0515701,13245.2
944.249068,13327.8
948.4402684,12561
952.6251825,13399
956.8038212,12996.2
960.9761955,13709.4
965.1423166,12961.2
969.3021953,13075.2
973.4558427,13139.4
977.6032699,12900
981.7444877,13049.2
985.8795072,12981.6
990.0083394,13132
994.1309953,12808.4
998.2474857,13236
1002.357822,12395.2
1006.462014,12947.6
1010.560075,12675.4
1014.652013,13126
1018.737841,13431.8
1022.81757,12956.4
1026.891209,12876.6
1030.958771,12765.4
1035.020266,13076.6
1039.075705,12876.2
1043.1251,12652
1047.16846,12890.8
1051.205797,12796.8
1055.237121,12540.6
1059.262444,12504.8
1063.281777,12208.6
1067.295131,12335.8
1071.302515,13413.2
1075.303942,12929.6
1079.299422,13726.4
1083.288966,13248.6
1087.272585,13044.6
1091.250289,13014
1095.222091,12948
1099.187999,12668.2
1103.148026,12887
1107.102183,12715
1111.050479,12934.8
1114.992927,12759.8
1118.929536,12738.6
1122.860318,13063.2
1126.785283,12443.4
1130.704443,12257.4
1134.617808,13008.8
1138.52539,12994.4
1142.427198,12836.8
1146.323244,12990.4
1150.213538,12614
1154.098093,13038.4
1157.976917,12449.8
1161.850023,12412
1165.717421,12992.6
1169.579121,12695.2
1173.435135,13071.4
1177.285474,12162.4
1181.130148,12329.8
1184.969169,12670.4
1188.802547,12609.6
1192.630292,12384
1196.452416,12201.2
1200.26893,12286.2
1204.079844,11982.8
1207.88517,11681
1211.684917,12325.6
1215.479098,11910
1219.267722,13555.2
1223.050801,12049.2
1226.828346,12163
1230.600366,12355.2
1234.366874,12424.8
1238.12788,12058
1241.883395,12251.6
1245.633429,12497.4
1249.377994,12523.8
1253.1171,11719.2
1256.850759,12152.2
1260.578981,12088.4
1264.301776,12157.6
1268.019157,12099.4
1271.731133,11828.6
1275.437715,11702.6
1279.138915,12282
1282.834743,12392
1286.52521,12015.6
1290.210328,11866.8
1293.890106,12051.6
1297.564555,12462.2
1301.233688,11799
1304.897514,12250.6
1308.556044,12212.6
1312.209289,12324.2
1315.857261,11780.2
1319.499969,11955.4
1323.137425,12683.2
1326.769641,12180.6
1330.396626,12782.2
1334.018391,12082.6
1337.634948,12317.8
1341.246307,11993.8
1344.85248,11915.8
1348.453477,11766.4
1352.049309,11796.4
1355.639987,11770
1359.225522,12415.4
1362.805925,12075
1366.381207,12100.6
1369.951379,12174.8
1373.516452,12202.8
1377.076436,12330
1380.631343,12182.6
1384.181184,11969.6
1387.725969,12082
1391.26571,11843.8
1394.800417,11648.8
1398.330102,11965.2
1401.854776,12187
1405.374448,11969.8
1408.889132,11628.2
1412.398837,11186.4
1415.903574,11678.6
1419.403355,12222.2
1422.89819,11833
1426.388091,11753.6
1429.873069,12168.6
1433.353134,11530.2
1436.828298,11689.4
1440.298571,11891.6
1443.763965,11641
1447.224491,11502.2
1450.68016,11569.8
1454.130983,12124.4
1457.576971,11981.4
1461.018135,12234
1464.454486,12279.2
1467.886036,11859.2
1471.312794,11917
1474.734774,11692.2
1478.151985,12327.8
1481.564439,12038.2
1484.972146,11979.4
1488.375119,11592.2
1491.773368,11941.4
1495.166904,12563
1498.555739,11913.6
1501.939883,11956.2
1505.319349,11588.2
1508.694146,11939.4
1512.064286,11984.4
1515.429781,11833.8
1518.790642,11670.8
1522.146879,11911.8
1525.498505,11561.6
1528.845529,11513.6
1532.187965,12108
1535.525822,11863.2
1538.859112,11784
1542.187846,12402
1545.512036,11497.8
1548.831693,12869.8
1552.146829,12202.2
1555.457453,11526.4
1558.763579,11165
1562.065216,11725
1565.362377,11953.2
1568.655073,12190
1571.943315,11907.2
1575.227114,11885.6
1578.506482,11765.6
1581.781431,12336.4
1585.051971,11891.2
1588.318114,11897.4
1591.579872,11929
1594.837255,11758.8
1598.090275,11745.2
1601.338945,11674.4
1604.583274,12191.8
1607.823275,11896
1611.058959,11407.6
1614.290338,12537
1617.517422,11238.6
1620.740224,11715
1623.958755,11292.4
1627.173027,11517.4
1630.38305,11106.8
1633.588838,11541.6
1636.7904,11301.2
1639.987749,11663.2
1643.180896,11757.2
1646.369853,11143.4
1649.554632,12008.2
1652.735244,11390
1655.9117,11026.6
1659.084013,11453.8
1662.252193,12043
1665.416254,11189
1668.576205,11563.8
1671.732059,11741
1674.883828,11826.8
1678.031523,11266.4
1681.175157,11452.8
1684.314739,11433
1687.450284,11301
1690.581801,11319
1693.709304,11185.6
1696.832803,11186.8
1699.952311,11381.2
1703.067839,11482.4
1706.179399,11368.6
1709.287003,11868.4
1712.390663,11424.6
1715.49039,11414.6
1718.586197,11820.8
1721.678095,11627.6
1724.766096,11652.2
1727.850213,11115.2
1730.930456,11496.8
1734.006838,11172.4
1737.079372,11565.8
1740.148067,11231
1743.212938,12302.8
1746.273996,11337.6
1749.331252,11422.4
1752.384718,11396
1755.434408,11469.2
1758.480332,11432.6
1761.522503,11540.4
1764.560933,11279.8
1767.595634,10994.6
1770.626618,11688.6
1773.653896,11695.2
1776.677482,11288
1779.697388,11310.6
1782.713625,11859.8
1785.726205,11836.4
1788.735141,11763.6
1791.740445,11346.2
1794.742129,11248
1797.740206,11748.2
1800.734687,11802.8
1803.725585,11578.4
1806.712912,11634.6
1809.69668,11237
1812.676902,11392.6
1815.65359,11084.4
1818.626756,11146.2
1821.596413,11379.2
1824.562573,11041.8
1827.525247,11380.4
1830.48445,11142
1833.440192,11346.2
1836.392487,11184
1839.341347,11446.2
1842.286784,11411.8
1845.22881,10986
1848.167439,11472
1851.102682,11305.6
1854.034553,11253.8
1856.963063,11059
1859.888226,11928.4
1862.810053,11408.4
1865.728557,11268.4
1868.643751,11039
1871.555648,11038.4
1874.46426,10842
1877.369599,11509.4
1880.271679,11250
1883.170512,11110.2
1886.06611,11634.2
1888.958487,11226.8
1891.847655,11228.4
1894.733626,11421.4
1897.616414,11514.2
1900.496032,11042
1903.372491,11282.8
1906.245805,11609.2
1909.115987,11670.4
1911.983049,11610.6
1914.847004,11526
1917.707866,11666
1920.565646,11660.6
1923.420359,11224.6
1926.272016,11483.4
1929.120631,11220.8
1931.966216,11407.8
1934.808786,11304
1937.648351,11644.2
1940.484927,11433.4
1943.318525,11610.8
1946.149158,11822.4
1948.97684,12847.2
1951.801584,11865
1954.623403,11617.6
1957.44231,11798.6
1960.258318,11222.8
1963.071439,11304.8
1965.881688,11404.4
1968.689078,11531
1971.493621,11366.4
