Ramanshift[cm-1],Intensity
-93.47115107,13630.4
-87.69374369,12391.2
-81.9253076,12223.6
-76.16582701,12378.2
-70.41528615,12333.4
-64.67366933,12096.2
-58.94096086,12081.6
-53.21714512,12333.8
-47.50220652,12355.2
-41.79612954,12488.6
-36.09889866,12966.2
-30.41049843,12965.2
-24.73091343,12595.6
-19.0601283,12557.4
-13.39812769,12407.6
-7.744896327,12139.6
-2.100418946,11931.2
3.535319659,12627.8
9.162334658,12042.8
14.78064118,12372.4
20.39025432,12032.2
25.99118913,12036.4
31.58346061,12606.6
37.16708375,12380.4
42.74207347,11929.4
48.30844468,11998
53.86621222,11900
59.41539093,11617
64.95599558,11544.6
70.48804091,11932.8
76.01154164,12087.4
81.52651243,11372.8
87.03296792,11941.6
92.5309227,12241.6
98.02039134,11562.2
103.5013884,11893.2
108.9739282,11675.8
114.4380255,11704.6
119.8936944,11894
125.3409495,12766.6
130.779805,11609.8
136.2102753,11543.6
141.6323747,11438
147.0461174,12028
152.4515176,11610.8
157.8485895,11542.6
163.2373472,11406.8
168.6178049,11750.2
173.9899766,12125.4
179.3538764,11572.8
184.7095182,11730.4
190.0569161,11876.6
195.396084,12125.4
200.7270358,11430.2
206.0497854,11441.8
211.3643466,11256.6
216.6707333,11663.2
221.9689593,11265.8
227.2590382,11478.2
232.5409839,11457.6
237.8148101,11342.2
243.0805303,11432.2
248.3381582,11423
253.5877075,11318.8
258.8291917,11400.2
264.0626244,11487.4
269.288019,11614.4
274.5053891,11851
279.7147481,11511.6
284.9161094,11309.6
290.1094865,11380.2
295.2948927,11887.4
300.4723414,13041.6
305.6418459,13581
310.8034194,14323.8
315.9570752,15480.2
321.1028267,15561.2
326.2406869,15596.6
331.370669,15778.2
336.4927863,15826.8
341.6070517,15916.8
346.7134786,15851
351.8120798,16056.4
356.9028684,15771.8
361.9858576,15912
367.0610602,16279
372.1284892,16005.8
377.1881577,16543.2
382.2400784,16940.6
387.2842644,17706.8
392.3207284,18563.6
397.3494833,18004.6
402.370542,17847
407.3839172,16755.6
412.3896217,16050.8
417.3876683,15443.6
422.3780697,15379.8
427.3608386,15326.2
432.3359876,15683
437.3035295,15830
442.2634769,15874.8
447.2158423,15115.6
452.1606383,15116.4
457.0978776,15352.4
462.0275727,14778.8
466.9497361,15341
471.8643802,14743.4
476.7715176,15193.4
481.6711608,15112.8
486.5633221,15285
491.448014,15193.4
496.3252488,15057.2
501.195039,15179.2
506.0573969,15351.2
510.9123349,15170.6
515.7598651,14622.4
520.6,15245.8
525.4327518,15235.6
530.2581327,15161.6
535.076155,14633.2
539.8868309,15010
544.6901726,15236
549.4861922,14841.8
554.2749019,15772.8
559.0563139,14716.2
563.8304402,14516.4
568.597293,15662.4
573.3568844,15309.6
578.1092263,14763.4
582.8543308,15256.4
587.5922101,15098.2
592.322876,14858.8
597.0463405,14855.2
601.7626157,15232.6
606.4717135,14785.4
611.1736458,14757.8
615.8684246,14883.8
620.5560617,15141.4
625.2365691,14903.2
629.9099585,15317
634.5762419,15584.6
639.2354312,14851.8
643.887538,15083.4
648.5325743,14798.2
653.1705518,14812.2
657.8014823,15015.2
662.4253775,14383.6
667.0422493,14716
671.6521092,14757
676.2549691,14887.4
680.8508407,14854
685.4397355,14751.2
690.0216654,14948.6
694.5966419,14591
699.1646767,15128.4
703.7257814,14868
708.2799676,14972
712.827247,15078.2
717.367631,14771.6
721.9011314,14735.4
726.4277595,14170.4
730.9475271,14794.4
735.4604456,14648.4
739.9665264,15258.6
744.4657813,14763.8
748.9582215,14705.6
753.4438587,14195
757.9227042,14138.8
762.3947696,14619.2
766.8600662,14188.6
771.3186056,15713.2
775.770399,14494
780.215458,14970
784.6537939,14259.2
789.0854181,14178.8
793.510342,14335.4
797.9285769,14892.2
802.3401342,14428.4
806.7450253,14583.8
811.1432614,14477
815.5348538,14344.4
819.9198139,14021.6
824.2981531,14210
828.6698824,14390.8
833.0350133,14201.6
837.393557,13884.4
841.7455248,14244
846.0909278,14119.4
850.4297774,14038.6
854.7620848,13977.4
859.0878611,14333.2
863.4071176,13629.2
867.7198655,14236.8
872.026116,14539.2
876.3258802,14889.4
880.6191693,14355.8
884.9059946,14429.2
889.186367,14970.2
893.4602979,13797.2
897.7277982,13804.4
901.9888793,14168.2
906.2435521,14596.6
910.4918277,14096
914.7337174,14051.6
918.9692321,13893.8
923.1983831,14601.6
927.4211813,14189
931.6376378,14834.8
935.8477637,14331.2
940.0515701,14517.4
944.249068,14549.2
948.4402684,13759.8
952.6251825,14710.6
956.8038212,14325.8
960.9761955,14867.6
965.1423166,14269.8
969.3021953,14405.2
973.4558427,14406
977.6032699,14154.6
981.7444877,14432.4
985.8795072,14200.8
990.0083394,14366.4
994.1309953,13992.6
998.2474857,14457.2
1002.357822,13627
1006.462014,14142.4
1010.560075,13866
1014.652013,14251.8
1018.737841,14507
1022.81757,14000.8
1026.891209,13921.4
1030.958771,13807.6
1035.020266,14068.4
1039.075705,13804
1043.1251,13629.4
1047.16846,13848.4
1051.205797,13864
1055.237121,13514.6
1059.262444,13561
1063.281777,13213.8
1067.295131,13497
1071.302515,14887
1075.303942,14858
1079.299422,15932
1083.288966,15241.2
1087.272585,14651
1091.250289,14220.2
1095.222091,14092.2
1099.187999,13672.4
1103.148026,13785.2
1107.102183,13660.8
1111.050479,13740.4
1114.992927,13712.6
1118.929536,13554.8
1122.860318,13906.8
1126.785283,13352
1130.704443,13250.8
1134.617808,14059.6
1138.52539,13883.8
1142.427198,13795.4
1146.323244,13927
1150.213538,13495.6
1154.098093,13943.2
1157.976917,13338.6
1161.850023,13290.4
1165.717421,13849.2
1169.579121,13577.6
1173.435135,13970.8
1177.285474,13088.8
1181.130148,13449.8
1184.969169,13758
1188.802547,13683.2
1192.630292,13236.4
1196.452416,12931.8
1200.26893,13111.6
1204.079844,12843.4
1207.88517,12473.8
1211.684917,13170.8
1215.479098,12658.2
1219.267722,14294.6
1223.050801,12793.6
1226.828346,12735.2
1230.600366,13130.2
1234.366874,13285.4
1238.12788,12860.4
1241.883395,12979.8
1245.633429,13281
1249.377994,13254
1253.1171,12464.4
1256.850759,12891
1260.578981,12860
1264.301776,13022.2
1268.019157,12934.2
1271.731133,12557.4
1275.437715,12524.6
1279.138915,13030.6
1282.834743,13230.2
1286.52521,12821.2
1290.210328,12523.6
1293.890106,12848
1297.564555,13270.2
1301.233688,12606
1304.897514,13013.8
1308.556044,13023.8
1312.209289,13013.6
1315.857261,12589.4
1319.499969,12666.4
1323.137425,13352.6
1326.769641,12918.6
1330.396626,13484.2
1334.018391,12778.8
1337.634948,12970.2
1341.246307,12630.6
1344.85248,12584.8
1348.453477,12435.6
1352.049309,12503.8
1355.639987,12517
1359.225522,13152.2
1362.805925,12727.8
1366.381207,12771.8
1369.951379,12791.6
1373.516452,12976.4
1377.076436,13036.2
1380.631343,12836.6
1384.181184,12720
1387.725969,12817.2
1391.26571,12438.8
1394.800417,12322.4
1398.330102,12566.8
1401.854776,12907
1405.374448,12547
1408.889132,12213.4
1412.398837,11852.2
1415.903574,12220
1419.403355,12853.4
1422.89819,12472.8
1426.388091,12381.8
1429.873069,12855.4
1433.353134,12330.6
1436.828298,12475.6
1440.298571,12547.8
1443.763965,12312.4
1447.224491,12132
1450.68016,12263.8
1454.130983,12752.4
1457.576971,12634.2
1461.018135,12798
1464.454486,12891.8
1467.886036,12462.4
1471.312794,12466.4
1474.734774,12227
1478.151985,12858.8
1481.564439,12558
1484.972146,12537
1488.375119,12158.6
1491.773368,12501.4
1495.166904,13097.4
1498.555739,12376.6
1501.939883,12420.4
1505.319349,12051.8
1508.694146,12336.8
1512.064286,12420.2
1515.429781,12357.6
1518.790642,12217.8
1522.146879,12426.4
1525.498505,11939.4
1528.845529,12015.2
1532.187965,12683.6
1535.525822,12283.8
1538.859112,12404.2
1542.187846,12860.6
1545.512036,11924.8
1548.831693,13289.8
1552.146829,12772.6
1555.457453,11899.6
1558.763579,11671
1562.065216,12189.8
1565.362377,12424.6
1568.655073,12700
1571.943315,12533.8
1575.227114,12479.4
1578.506482,12531.8
1581.781431,13155
1585.051971,12868.2
1588.318114,12982.4
1591.579872,12974.4
1594.837255,12779.4
1598.090275,12399
1601.338945,12338.2
1604.583274,12588.8
1607.823275,12275.2
1611.058959,11840.2
1614.290338,13036.4
1617.517422,11730.4
1620.740224,12182.6
1623.958755,11798.6
1627.173027,11898.8
1630.38305,11587.6
1633.588838,11956
1636.7904,11788.4
1639.987749,12013.6
1643.180896,12157.4
1646.369853,11500.6
1649.554632,12386.6
1652.735244,11798.8
1655.9117,11399.2
1659.084013,11800.4
1662.252193,12432.8
1665.416254,11544
1668.576205,11809.2
1671.732059,12072
1674.883828,12237.8
1678.031523,11740.4
1681.175157,11775.4
1684.314739,11792.8
1687.450284,11696.4
1690.581801,11578.2
1693.709304,11483.2
1696.832803,11534.8
1699.952311,11669.8
1703.067839,11700.2
1706.179399,11693.4
1709.287003,12088.6
1712.390663,11695.8
1715.49039,11726.4
1718.586197,12162.8
1721.678095,11789
1724.766096,11929.6
1727.850213,11357.2
1730.930456,11789.4
1734.006838,11528
1737.079372,11835.8
1740.148067,11537
1743.212938,12506.6
1746.273996,11719.6
1749.331252,11630
1752.384718,11707.6
1755.434408,11801.4
1758.480332,11739.2
1761.522503,11840
1764.560933,11545
1767.595634,11242.8
1770.626618,11994.6
1773.653896,12041.6
1776.677482,11624.8
1779.697388,11543.4
1782.713625,12163.8
1785.726205,12086.8
1788.735141,12048.8
1791.740445,11547.2
1794.742129,11483.6
1797.740206,12072.8
1800.734687,11996
1803.725585,11776.4
1806.712912,11784.8
1809.69668,11513
1812.676902,11666.2
1815.65359,11262.6
1818.626756,11348.6
1821.596413,11556.6
1824.562573,11252.8
1827.525247,11604.4
1830.48445,11411
1833.440192,11502
1836.392487,11395
1839.341347,11652.2
1842.286784,11583.4
1845.22881,11056.6
1848.167439,11751
1851.102682,11471.8
1854.034553,11450.6
1856.963063,11291.2
1859.888226,12231.4
1862.810053,11655.8
1865.728557,11457.4
1868.643751,11305.4
1871.555648,11377.8
1874.46426,11035.4
1877.369599,11673.6
1880.271679,11468.2
1883.170512,11388.2
1886.06611,11839
1888.958487,11501.6
1891.847655,11514.6
1894.733626,11612.4
1897.616414,11703.2
1900.496032,11183.6
1903.372491,11518.4
1906.245805,11828.6
1909.115987,11912.2
1911.983049,11835.4
1914.847004,11630
1917.707866,11856.2
1920.565646,11848.8
1923.420359,11416.4
1926.272016,11597
1929.120631,11394.4
1931.966216,11563.2
1934.808786,11521.6
1937.648351,11801.6
1940.484927,11712.6
1943.318525,11802.2
1946.149158,11956.8
1948.97684,13121.6
1951.801584,11945
1954.623403,11735.2
1957.44231,11930.4
1960.258318,11423
1963.071439,11447.8
1965.881688,11656
1968.689078,11759.4
1971.493621,11636.2
