Ramanshift[cm-1],Intensity
-93.47115107,13249.2
-87.69374369,11961
-81.9253076,11832.4
-76.16582701,11883
-70.41528615,11899.2
-64.67366933,11608.6
-58.94096086,11642.8
-53.21714512,11889.2
-47.50220652,11987.4
-41.79612954,11956
-36.09889866,12323.2
-30.41049843,12443.8
-24.73091343,12045.8
-19.0601283,12119
-13.39812769,11980
-7.744896327,11639.8
-2.100418946,11537.2
3.535319659,12112
9.162334658,11536.8
14.78064118,11875.4
20.39025432,11591
25.99118913,11520
31.58346061,12057
37.16708375,11907.6
42.74207347,11540.6
48.30844468,11602.4
53.86621222,11422.2
59.41539093,11206
64.95599558,11027.2
70.48804091,11432.4
76.01154164,11524
81.52651243,10910
87.03296792,11556
92.5309227,11846.6
98.02039134,11079.4
103.5013884,11423.2
108.9739282,11193.8
114.4380255,11282.4
119.8936944,11434.2
125.3409495,12300.6
130.779805,11252
136.2102753,10942.8
141.6323747,10970
147.0461174,11566.4
152.4515176,11214
157.8485895,11165.2
163.2373472,11032.4
168.6178049,11419.6
173.9899766,11654.6
179.3538764,11188.2
184.7095182,11312.8
190.0569161,11424
195.396084,11620.2
200.7270358,11032
206.0497854,11092.6
211.3643466,10804.6
216.6707333,11212.6
221.9689593,10837
227.2590382,11091.2
232.5409839,10980.2
237.8148101,10949
243.0805303,11020.2
248.3381582,10964.6
253.5877075,10865
258.8291917,11019.2
264.0626244,11040
269.288019,11243.4
274.5053891,11395.2
279.7147481,11086.6
284.9161094,10932
290.1094865,11210.4
295.2948927,11893
300.4723414,13586.8
305.6418459,15052.6
310.8034194,16478.4
315.9570752,17875
321.1028267,18219.8
326.2406869,18194.6
331.370669,18444.2
336.4927863,18634.2
341.6070517,18749
346.7134786,18879.2
351.8120798,19180
356.9028684,18886.8
361.9858576,18896.2
367.0610602,19164.2
372.1284892,19131.6
377.1881577,20187
382.2400784,21204.4
387.2842644,22844.6
392.3207284,23799.4
397.3494833,22812
402.370542,21793.8
407.3839172,20332.4
412.3896217,19100
417.3876683,18233
422.3780697,18043.2
427.3608386,17723.4
432.3359876,18079.6
437.3035295,18025.6
442.2634769,18014.4
447.2158423,17236.8
452.1606383,17251
457.0978776,17311.4
462.0275727,16734.2
466.9497361,17316
471.8643802,16662.6
476.7715176,17272.6
481.6711608,17374
486.5633221,17841.8
491.448014,17542.2
496.3252488,17340.6
501.195039,17322.4
506.0573969,17405.8
510.9123349,17086.2
515.7598651,16475.8
520.6,16867
525.4327518,16854.8
530.2581327,16853.4
535.076155,16376.2
539.8868309,16896.4
544.6901726,16898.8
549.4861922,16433
554.2749019,17245.6
559.0563139,16399.8
563.8304402,16170.6
568.597293,17083.4
573.3568844,16763.8
578.1092263,16322
582.8543308,16696.8
587.5922101,16557.8
592.322876,16346.2
597.0463405,16419.4
601.7626157,16733.6
606.4717135,16179.2
611.1736458,16373
615.8684246,16320.4
620.5560617,16629
625.2365691,16289.2
629.9099585,16845
634.5762419,17046
639.2354312,16266.2
643.887538,16488.4
648.5325743,16144.6
653.1705518,16143.6
657.8014823,16425.2
662.4253775,15763
667.0422493,16074.4
671.6521092,16078.6
676.2549691,16239.8
680.8508407,16189.6
685.4397355,15868.2
690.0216654,16027.8
694.5966419,15848.4
699.1646767,16515.6
703.7257814,16218.4
708.2799676,16466
712.827247,16477.6
717.367631,16207.4
721.9011314,16090.6
726.4277595,15418.4
730.9475271,15913.2
735.4604456,15838.8
739.9665264,16402.6
744.4657813,15810.4
748.9582215,15864.4
753.4438587,15337.4
757.9227042,15208
762.3947696,15681.2
766.8600662,15265.4
771.3186056,16644.6
775.770399,15586.2
780.215458,15869.4
784.6537939,15284
789.0854181,15290
793.510342,15440
797.9285769,16031.6
802.3401342,15582.8
806.7450253,15579
811.1432614,15431.6
815.5348538,15296.6
819.9198139,14978.4
824.2981531,15220.6
828.6698824,15293.6
833.0350133,14958.8
837.393557,14798
841.7455248,15129.8
846.0909278,14810.8
850.4297774,14854.4
854.7620848,14950.8
859.0878611,15080
863.4071176,14506.4
867.7198655,15002
872.026116,15326.6
876.3258802,15604.2
880.6191693,15310.4
884.9059946,15284.6
889.186367,15829.8
893.4602979,14673
897.7277982,14657.6
901.9888793,15108.8
906.2435521,15517.6
910.4918277,14920.4
914.7337174,15021.8
918.9692321,14955.4
923.1983831,15669
927.4211813,15289.2
931.6376378,15938.2
935.8477637,15353.6
940.0515701,15523.6
944.249068,15695.8
948.4402684,14867.8
952.6251825,15652.4
956.8038212,15257
960.9761955,15958.8
965.1423166,15570.4
969.3021953,15449.8
973.4558427,15500.6
977.6032699,15332.6
981.7444877,15387
985.8795072,15272.6
990.0083394,15352
994.1309953,15123.4
998.2474857,15492.4
1002.357822,14706.4
1006.462014,15408.6
1010.560075,14957.8
1014.652013,15150.4
1018.737841,15394.8
1022.81757,15023.6
1026.891209,14862.4
1030.958771,14771
1035.020266,15213.4
1039.075705,14882.8
1043.1251,14546.4
1047.16846,14884
1051.205797,14931.6
1055.237121,14849
1059.262444,15153.2
1063.281777,15756.8
1067.295131,17007.8
1071.302515,19243.2
1075.303942,19213.8
1079.299422,19721.2
1083.288966,17942.4
1087.272585,16348.2
1091.250289,15551.4
1095.222091,15220.4
1099.187999,14648.4
1103.148026,14835
1107.102183,14596.4
1111.050479,14702.8
1114.992927,14671.8
1118.929536,14613.8
1122.860318,15149
1126.785283,14953
1130.704443,15501.8
1134.617808,16882.2
1138.52539,17207
1142.427198,16707.2
1146.323244,16095.6
1150.213538,15245.8
1154.098093,15377.8
1157.976917,14680.4
1161.850023,14638.6
1165.717421,15218.8
1169.579121,14972.8
1173.435135,15321.8
1177.285474,14736.6
1181.130148,14953.4
1184.969169,15268.8
1188.802547,15026.6
1192.630292,14638.2
1196.452416,14072.4
1200.26893,14114.4
1204.079844,13773.8
1207.88517,13387.2
1211.684917,14002.6
1215.479098,13688.2
1219.267722,15130.4
1223.050801,13748.4
1226.828346,13742
1230.600366,14053.4
1234.366874,14338.6
1238.12788,13922.6
1241.883395,13995.4
1245.633429,14252.8
1249.377994,14285
1253.1171,13491.2
1256.850759,13864.4
1260.578981,13805.2
1264.301776,13833.2
1268.019157,13849.4
1271.731133,13499.8
1275.437715,13433.4
1279.138915,14044.4
1282.834743,14178.6
1286.52521,13774.2
1290.210328,13649.2
1293.890106,13748.8
1297.564555,14254.8
1301.233688,13742.4
1304.897514,14125
1308.556044,14278.2
1312.209289,14231.8
1315.857261,13620.8
1319.499969,13777.4
1323.137425,14442.4
1326.769641,13979.4
1330.396626,14652
1334.018391,14113.4
1337.634948,14176.6
1341.246307,13917.6
1344.85248,13775.6
1348.453477,13747.6
1352.049309,13774.6
1355.639987,13778
1359.225522,14296.6
1362.805925,14070.2
1366.381207,14135
1369.951379,14094.2
1373.516452,14323.4
1377.076436,14471
1380.631343,14718.8
1384.181184,14685.4
1387.725969,15071.8
1391.26571,14644
1394.800417,14205.6
1398.330102,14190
1401.854776,13999.4
1405.374448,13822.4
1408.889132,13317
1412.398837,13081.2
1415.903574,13628.4
1419.403355,14483
1422.89819,14440.6
1426.388091,14615.8
1429.873069,15166.4
1433.353134,14312.8
1436.828298,14130
1440.298571,13922.6
1443.763965,13511.8
1447.224491,13249.4
1450.68016,13059.2
1454.130983,13426.4
1457.576971,13333.2
1461.018135,13475.4
1464.454486,13612.2
1467.886036,13092.2
1471.312794,13220.4
1474.734774,12912.4
1478.151985,13556.6
1481.564439,13222
1484.972146,13237.8
1488.375119,12794.6
1491.773368,13121.6
1495.166904,13710
1498.555739,12976
1501.939883,13019.8
1505.319349,12635.2
1508.694146,13040.4
1512.064286,13028
1515.429781,13031.6
1518.790642,12883.4
1522.146879,12962.4
1525.498505,12563.4
1528.845529,12533.8
1532.187965,13299.8
1535.525822,12934.6
1538.859112,12986.8
1542.187846,13583.2
1545.512036,12738.4
1548.831693,13990.8
1552.146829,13539.2
1555.457453,12826.2
1558.763579,12695.2
1562.065216,13290.8
1565.362377,13751.4
1568.655073,14142.6
1571.943315,14049.4
1575.227114,14144.6
1578.506482,14208.6
1581.781431,14889
1585.051971,14534.2
1588.318114,14469
1591.579872,14162.8
1594.837255,13619.4
1598.090275,13142.6
1601.338945,12828.6
1604.583274,13155.2
1607.823275,12788.2
1611.058959,12246.2
1614.290338,13393.6
1617.517422,12174.4
1620.740224,12550.6
1623.958755,12158.2
1627.173027,12184.6
1630.38305,11905.4
1633.588838,12195.8
1636.7904,12045.8
1639.987749,12244
1643.180896,12328.2
1646.369853,11732.6
1649.554632,12548
1652.735244,12015.8
1655.9117,11525.8
1659.084013,11917.4
1662.252193,12405.2
1665.416254,11694.2
1668.576205,11841.4
1671.732059,12055.2
1674.883828,12129.2
1678.031523,11654.4
1681.175157,11763
1684.314739,11733.6
1687.450284,11669
1690.581801,11573.4
1693.709304,11361.4
1696.832803,11402
1699.952311,11548.2
1703.067839,11654
1706.179399,11514
1709.287003,11983.8
1712.390663,11486.2
1715.49039,11565.4
1718.586197,11957.4
1721.678095,11682.4
1724.766096,11710.2
1727.850213,11208.2
1730.930456,11435.4
1734.006838,11264.2
1737.079372,11687.8
1740.148067,11312.2
1743.212938,12324.6
1746.273996,11484.2
1749.331252,11388
1752.384718,11444.8
1755.434408,11449.4
1758.480332,11506.2
1761.522503,11490.2
1764.560933,11300.8
1767.595634,11031.4
1770.626618,11685.6
1773.653896,11690.6
1776.677482,11425.4
1779.697388,11366
1782.713625,11935.6
1785.726205,11823
1788.735141,11731.6
1791.740445,11307.6
1794.742129,11209.4
1797.740206,11737.8
1800.734687,11703.8
1803.725585,11572.8
1806.712912,11604.8
1809.69668,11249
1812.676902,11345.8
1815.65359,11047.2
1818.626756,11155.6
1821.596413,11242.8
1824.562573,10936.8
1827.525247,11329.4
1830.48445,11027.2
1833.440192,11281
1836.392487,11223.4
1839.341347,11354.6
1842.286784,11432.2
1845.22881,10857
1848.167439,11500
1851.102682,11248.4
1854.034553,11187.6
1856.963063,11105.4
1859.888226,11935.4
1862.810053,11398.6
1865.728557,11185.2
1868.643751,10997.4
1871.555648,11010.2
1874.46426,10837
1877.369599,11332.4
1880.271679,11187.6
1883.170512,11039.8
1886.06611,11493.8
1888.958487,11219.8
1891.847655,11108.8
1894.733626,11333.4
1897.616414,11400.6
1900.496032,10888.6
1903.372491,11152.4
1906.245805,11525.8
1909.115987,11607.2
1911.983049,11454.4
1914.847004,11359.4
1917.707866,11505.2
1920.565646,11524.6
1923.420359,11038
1926.272016,11364.6
1929.120631,11116.2
1931.966216,11284.2
1934.808786,11112.4
1937.648351,11463.8
1940.484927,11397
1943.318525,11504.4
1946.149158,11623.8
1948.97684,12747
1951.801584,11699.8
1954.623403,11478
1957.44231,11505.2
1960.258318,11111.6
1963.071439,11142.4
1965.881688,11341.2
1968.689078,11420.8
1971.493621,11205
