Ramanshift[cm-1],Intensity
-93.47115107,14086.8
-87.69374369,12755.6
-81.9253076,12621.6
-76.16582701,12673.4
-70.41528615,12733.4
-64.67366933,12284.6
-58.94096086,12431.8
-53.21714512,12584.8
-47.50220652,12655.4
-41.79612954,12729.6
-36.09889866,13285.2
-30.41049843,13262.4
-24.73091343,12889.6
-19.0601283,12859
-13.39812769,12724.4
-7.744896327,12420.8
-2.100418946,12199
3.535319659,12985.4
9.162334658,12276.4
14.78064118,12558.2
20.39025432,12225
25.99118913,12379.4
31.58346061,12828.8
37.16708375,12584.2
42.74207347,12156.2
48.30844468,12321
53.86621222,12165.4
59.41539093,11825.8
64.95599558,11824.8
70.48804091,12271.6
76.01154164,12351.2
81.52651243,11693.4
87.03296792,12229.6
92.5309227,12508
98.02039134,11812.2
103.5013884,12184
108.9739282,11988.2
114.4380255,11951.8
119.8936944,12216.2
125.3409495,13006.4
130.779805,11905.4
136.2102753,11688
141.6323747,11700
147.0461174,12377.4
152.4515176,11885.8
157.8485895,11796
163.2373472,11762.6
168.6178049,12020.4
173.9899766,12366.4
179.3538764,11959.2
184.7095182,11981
190.0569161,12225.8
195.396084,12344
200.7270358,11772.8
206.0497854,11751
211.3643466,11509.2
216.6707333,11875.8
221.9689593,11510.6
227.2590382,11768
232.5409839,11666.6
237.8148101,11631.8
243.0805303,11662.4
248.3381582,11724
253.5877075,11484.4
258.8291917,11676.2
264.0626244,11780
269.288019,11870
274.5053891,12025.8
279.7147481,11700.8
284.9161094,11566.4
290.1094865,11671.4
295.2948927,12132.4
300.4723414,13210.4
305.6418459,13625.6
310.8034194,14156.8
315.9570752,15147.2
321.1028267,15455.8
326.2406869,15334.2
331.370669,15529.2
336.4927863,15542.2
341.6070517,15630.4
346.7134786,15458.6
351.8120798,15726.6
356.9028684,15350.2
361.9858576,15519
367.0610602,15887.8
372.1284892,15610
377.1881577,15983
382.2400784,16156.2
387.2842644,16634.4
392.3207284,17056.6
397.3494833,16650.2
402.370542,16642.2
407.3839172,15949.8
412.3896217,15435
417.3876683,15055.6
422.3780697,15102.8
427.3608386,15142
432.3359876,15497.6
437.3035295,15720.8
442.2634769,15764.4
447.2158423,14967.6
452.1606383,15041.6
457.0978776,15210.2
462.0275727,14572
466.9497361,15138.8
471.8643802,14521.4
476.7715176,15080.4
481.6711608,14922.8
486.5633221,15118.6
491.448014,15020.8
496.3252488,14903.2
501.195039,14916.4
506.0573969,15307
510.9123349,14972.4
515.7598651,14535.6
520.6,14980.4
525.4327518,15001.2
530.2581327,15051.6
535.076155,14488.6
539.8868309,14914.2
544.6901726,15084
549.4861922,14737
554.2749019,15726.2
559.0563139,14799.6
563.8304402,14549.2
568.597293,15565.4
573.3568844,15219.2
578.1092263,14785.6
582.8543308,15070.8
587.5922101,15050
592.322876,14657.4
597.0463405,14669
601.7626157,15061.8
606.4717135,14507
611.1736458,14626.4
615.8684246,14745.2
620.5560617,15024
625.2365691,14737.4
629.9099585,15233
634.5762419,15432.2
639.2354312,14770.4
643.887538,15052
648.5325743,14647.8
653.1705518,14655.2
657.8014823,14853
662.4253775,14284
667.0422493,14512
671.6521092,14524
676.2549691,14788.8
680.8508407,14654.6
685.4397355,14654.6
690.0216654,14729.6
694.5966419,14526.2
699.1646767,15113
703.7257814,14671.8
708.2799676,14760
712.827247,14895.2
717.367631,14643
721.9011314,14712
726.4277595,14074.8
730.9475271,14745.6
735.4604456,14590
739.9665264,15182.2
744.4657813,14605.8
748.9582215,14665.4
753.4438587,14175.2
757.9227042,14091.2
762.3947696,14529.6
766.8600662,14068.4
771.3186056,15574.6
775.770399,14533.4
780.215458,14907.6
784.6537939,14068.4
789.0854181,14076.6
793.510342,14247.2
797.9285769,14796.6
802.3401342,14228.2
806.7450253,14478.2
811.1432614,14279.8
815.5348538,14186.6
819.9198139,13902
824.2981531,14160.8
828.6698824,14344.2
833.0350133,14095
837.393557,13875.2
841.7455248,14246.6
846.0909278,14003.4
850.4297774,13945.8
854.7620848,13932.8
859.0878611,14217.6
863.4071176,13708.2
867.7198655,14132.4
872.026116,14616.6
876.3258802,14927.4
880.6191693,14351.4
884.9059946,14483.4
889.186367,14939.8
893.4602979,13852.6
897.7277982,13767.8
901.9888793,14163
906.2435521,14572
910.4918277,13881
914.7337174,13854
918.9692321,13771.4
923.1983831,14502.4
927.4211813,14214.2
931.6376378,14747.4
935.8477637,14132.2
940.0515701,14337
944.249068,14477.6
948.4402684,13655.8
952.6251825,14479
956.8038212,14047.8
960.9761955,14781.4
965.1423166,14278.6
969.3021953,14229.6
973.4558427,14347.2
977.6032699,14067.2
981.7444877,14179
985.8795072,14173.8
990.0083394,14222.4
994.1309953,13915
998.2474857,14254.2
1002.357822,13466.2
1006.462014,13980
1010.560075,13721.6
1014.652013,14183.8
1018.737841,14485.8
1022.81757,13949.2
1026.891209,13898.4
1030.958771,13813
1035.020266,14131.4
1039.075705,13790
1043.1251,13595.2
1047.16846,13875.2
1051.205797,13804.2
1055.237121,13544.4
1059.262444,13361.4
1063.281777,13245
1067.295131,13296.8
1071.302515,14621.4
1075.303942,14240.2
1079.299422,15337.6
1083.288966,14645.2
1087.272585,14338.8
1091.250289,14085.8
1095.222091,13995.4
1099.187999,13584
1103.148026,13766.6
1107.102183,13595.8
1111.050479,13800
1114.992927,13696.2
1118.929536,13657.6
1122.860318,13964.8
1126.785283,13392.2
1130.704443,13327
1134.617808,14174
1138.52539,13997.2
1142.427198,13870.6
1146.323244,13976
1150.213538,13623.8
1154.098093,14038.4
1157.976917,13301.8
1161.850023,13261.8
1165.717421,13858
1169.579121,13557.2
1173.435135,14017.2
1177.285474,13270.4
1181.130148,13340.2
1184.969169,13806.4
1188.802547,13569.2
1192.630292,13219.2
1196.452416,12967.6
1200.26893,13106
1204.079844,12898.6
1207.88517,12552
1211.684917,13109.6
1215.479098,12806
1219.267722,14398.8
1223.050801,12878.8
1226.828346,12845.8
1230.600366,13151
1234.366874,13354.2
1238.12788,12979.8
1241.883395,12997.2
1245.633429,13325
1249.377994,13225.8
1253.1171,12557.4
1256.850759,12977.8
1260.578981,12900.8
1264.301776,12949.6
1268.019157,12900.2
1271.731133,12651.8
1275.437715,12602.6
1279.138915,13070.8
1282.834743,13259
1286.52521,12855
1290.210328,12572.2
1293.890106,12828.6
1297.564555,13361
1301.233688,12657
1304.897514,12950.6
1308.556044,13021.6
1312.209289,13044.6
1315.857261,12568
1319.499969,12742.4
1323.137425,13456.8
1326.769641,12960.6
1330.396626,13512.6
1334.018391,12954.8
1337.634948,13066.4
1341.246307,12752.6
1344.85248,12655.8
1348.453477,12620.2
1352.049309,12563.4
1355.639987,12636
1359.225522,13241.2
1362.805925,12897.4
1366.381207,12901.6
1369.951379,12976.2
1373.516452,13018.4
1377.076436,13279.6
1380.631343,12982.8
1384.181184,12776.2
1387.725969,12919.6
1391.26571,12587
1394.800417,12511
1398.330102,12628.2
1401.854776,12952.4
1405.374448,12778.2
1408.889132,12379
1412.398837,12021.2
1415.903574,12444.2
1419.403355,12902.8
1422.89819,12491.8
1426.388091,12413.6
1429.873069,12918.8
1433.353134,12415
1436.828298,12422
1440.298571,12589.6
1443.763965,12400
1447.224491,12231.2
1450.68016,12328.2
1454.130983,12691.4
1457.576971,12722.8
1461.018135,13033
1464.454486,12988.2
1467.886036,12577
1471.312794,12689.2
1474.734774,12282.4
1478.151985,13098.6
1481.564439,12645.6
1484.972146,12725.4
1488.375119,12254.4
1491.773368,12660.6
1495.166904,13269.2
1498.555739,12522
1501.939883,12616
1505.319349,12194.8
1508.694146,12586.2
1512.064286,12553.2
1515.429781,12634.6
1518.790642,12437.2
1522.146879,12590.8
1525.498505,12074.6
1528.845529,12152
1532.187965,12868.8
1535.525822,12501.4
1538.859112,12464
1542.187846,13048.4
1545.512036,12042.4
1548.831693,13400
1552.146829,13019.6
1555.457453,12187.4
1558.763579,11852.4
1562.065216,12277
1565.362377,12582.2
1568.655073,12875
1571.943315,12602.4
1575.227114,12583.8
1578.506482,12574.2
1581.781431,13087.4
1585.051971,12750
1588.318114,12864.8
1591.579872,12843.6
1594.837255,12664.4
1598.090275,12507.4
1601.338945,12403.8
1604.583274,12740.8
1607.823275,12397.6
1611.058959,11974.4
1614.290338,13263.4
1617.517422,11851.6
1620.740224,12314
1623.958755,11974.2
1627.173027,12093.8
1630.38305,11665
1633.588838,12242.6
1636.7904,11986
1639.987749,12178
1643.180896,12313.8
1646.369853,11754
1649.554632,12491.2
1652.735244,11884.6
1655.9117,11617
1659.084013,11972.6
1662.252193,12607.8
1665.416254,11785.8
1668.576205,11990.6
1671.732059,12310.2
1674.883828,12378.2
1678.031523,11869.8
1681.175157,11923.2
1684.314739,12009.4
1687.450284,11937.2
1690.581801,11796.4
1693.709304,11605
1696.832803,11729.4
1699.952311,11898.4
1703.067839,11977.2
1706.179399,11860.2
1709.287003,12353.4
1712.390663,11934.8
1715.49039,11937
1718.586197,12301
1721.678095,12181.2
1724.766096,12197.8
1727.850213,11579.8
1730.930456,11966.6
1734.006838,11688.2
1737.079372,11990
1740.148067,11636.2
1743.212938,12727.4
1746.273996,11959.2
1749.331252,11818.2
1752.384718,11879.4
1755.434408,12017.4
1758.480332,12012.4
1761.522503,12017.6
1764.560933,11760.6
1767.595634,11474.6
1770.626618,12164.2
1773.653896,12227.4
1776.677482,11743
1779.697388,11692.6
1782.713625,12337.6
1785.726205,12275.4
1788.735141,12186.4
1791.740445,11764.8
1794.742129,11694.2
1797.740206,12258.4
1800.734687,12253.6
1803.725585,12030.6
1806.712912,11998.4
1809.69668,11702.2
1812.676902,11759.2
1815.65359,11459.6
1818.626756,11532.4
1821.596413,11804.6
1824.562573,11409
1827.525247,11807
1830.48445,11550.2
1833.440192,11751.6
1836.392487,11611.4
1839.341347,11824.6
1842.286784,11879.4
1845.22881,11419.8
1848.167439,11983.8
1851.102682,11739
1854.034553,11741.6
1856.963063,11473.8
1859.888226,12366
1862.810053,11900
1865.728557,11771
1868.643751,11509
1871.555648,11516.6
1874.46426,11281.4
1877.369599,11853.2
1880.271679,11722.6
1883.170512,11556.2
1886.06611,12041.8
1888.958487,11712
1891.847655,11727.6
1894.733626,11818.2
1897.616414,11921.8
1900.496032,11408
1903.372491,11731.2
1906.245805,12061.4
1909.115987,12030.8
1911.983049,12017.2
1914.847004,11979.8
1917.707866,12138
1920.565646,12081
1923.420359,11524.2
1926.272016,11860.8
1929.120631,11551.4
1931.966216,11721.4
1934.808786,11700.2
1937.648351,11953.6
1940.484927,11896.6
1943.318525,12052.8
1946.149158,12230
1948.97684,13307.2
1951.801584,12167
1954.623403,12001.4
1957.44231,12154.4
1960.258318,11617.6
1963.071439,11740.4
1965.881688,11872
1968.689078,11960.2
1971.493621,11761
