Ramanshift[cm-1],Intensity
-93.47115107,13778.4
-87.69374369,12462
-81.9253076,12197.8
-76.16582701,12298.8
-70.41528615,12278.2
-64.67366933,12048.6
-58.94096086,12105.2
-53.21714512,12232
-47.50220652,12362.6
-41.79612954,12394.8
-36.09889866,12963.8
-30.41049843,12947
-24.73091343,12575.2
-19.0601283,12584.8
-13.39812769,12400
-7.744896327,12137
-2.100418946,11976.4
3.535319659,12627.2
9.162334658,11996.6
14.78064118,12385
20.39025432,11977
25.99118913,12090.8
31.58346061,12533.8
37.16708375,12355.4
42.74207347,12004.2
48.30844468,11972.4
53.86621222,11868.8
59.41539093,11550.2
64.95599558,11424.8
70.48804091,11938
76.01154164,12017.4
81.52651243,11403.6
87.03296792,11894.8
92.5309227,12183
98.02039134,11478
103.5013884,11793.8
108.9739282,11629.2
114.4380255,11599
119.8936944,11788.2
125.3409495,12811.2
130.779805,11673
136.2102753,11343.4
141.6323747,11413.2
147.0461174,11995
152.4515176,11646.6
157.8485895,11528.6
163.2373472,11489.2
168.6178049,11782.2
173.9899766,12056
179.3538764,11556.2
184.7095182,11652
190.0569161,11837.8
195.396084,12025.6
200.7270358,11394.4
206.0497854,11578.6
211.3643466,11190.4
216.6707333,11640.6
221.9689593,11136
227.2590382,11433.4
232.5409839,11394.6
237.8148101,11262.4
243.0805303,11467.6
248.3381582,11422.6
253.5877075,11246
258.8291917,11487
264.0626244,11584
269.288019,11637
274.5053891,11706.4
279.7147481,11432.6
284.9161094,11266.8
290.1094865,11393.6
295.2948927,11764
300.4723414,12986.4
305.6418459,13349
310.8034194,13940.6
315.9570752,14857.4
321.1028267,15046.6
326.2406869,15242.4
331.370669,15415.2
336.4927863,15373
341.6070517,15503
346.7134786,15369.6
351.8120798,15684.6
356.9028684,15299.4
361.9858576,15497
367.0610602,15763.4
372.1284892,15642
377.1881577,16210
382.2400784,16758.4
387.2842644,17699.4
392.3207284,18732.6
397.3494833,17969.8
402.370542,17692.8
407.3839172,16340
412.3896217,15666.4
417.3876683,14987.2
422.3780697,14849.6
427.3608386,14911
432.3359876,15121.8
437.3035295,15216.8
442.2634769,15337.8
447.2158423,14529.6
452.1606383,14645
457.0978776,14901.6
462.0275727,14157.8
466.9497361,14755.4
471.8643802,14205.4
476.7715176,14587.4
481.6711608,14577
486.5633221,14798.6
491.448014,14591
496.3252488,14636
501.195039,14621.2
506.0573969,14909
510.9123349,14602.6
515.7598651,14114.4
520.6,14589.8
525.4327518,14633
530.2581327,14631
535.076155,14163
539.8868309,14514.6
544.6901726,14689.4
549.4861922,14286.2
554.2749019,15366.6
559.0563139,14267
563.8304402,14018.8
568.597293,15249.2
573.3568844,14825
578.1092263,14249
582.8543308,14725
587.5922101,14556.8
592.322876,14289.2
597.0463405,14437.8
601.7626157,14687
606.4717135,14179.8
611.1736458,14351.6
615.8684246,14253.4
620.5560617,14641.6
625.2365691,14337
629.9099585,14756
634.5762419,15080.6
639.2354312,14410.6
643.887538,14627.2
648.5325743,14250.6
653.1705518,14192
657.8014823,14461.6
662.4253775,13897.2
667.0422493,14236.8
671.6521092,14170
676.2549691,14411.2
680.8508407,14256
685.4397355,14095.8
690.0216654,14343.6
694.5966419,14150.2
699.1646767,14684.2
703.7257814,14365.2
708.2799676,14488.2
712.827247,14530.2
717.367631,14221.2
721.9011314,14302
726.4277595,13597
730.9475271,14280.6
735.4604456,14212.8
739.9665264,14784
744.4657813,14216.4
748.9582215,14250
753.4438587,13837.6
757.9227042,13576.8
762.3947696,14069.4
766.8600662,13714.6
771.3186056,15138.8
775.770399,14136
780.215458,14524.2
784.6537939,13759
789.0854181,13726.6
793.510342,13841.4
797.9285769,14589.8
802.3401342,14020.8
806.7450253,14142.4
811.1432614,14063.2
815.5348538,13906
819.9198139,13521.2
824.2981531,13991.2
828.6698824,13991.2
833.0350133,13833.8
837.393557,13424.6
841.7455248,13904.2
846.0909278,13712.6
850.4297774,13504.6
854.7620848,13638.4
859.0878611,13857.8
863.4071176,13296.8
867.7198655,13766.4
872.026116,14124.6
876.3258802,14501.8
880.6191693,14076.2
884.9059946,14072
889.186367,14516.6
893.4602979,13465.8
897.7277982,13390.8
901.9888793,13802
906.2435521,14301.4
910.4918277,13692.2
914.7337174,13668
918.9692321,13564.4
923.1983831,14152
927.4211813,13822
931.6376378,14573.8
935.8477637,14033
940.0515701,14205.2
944.249068,14215
948.4402684,13425.8
952.6251825,14367.2
956.8038212,13933.4
960.9761955,14631.8
965.1423166,14046.2
969.3021953,14095.2
973.4558427,14080.8
977.6032699,13824.6
981.7444877,14008.2
985.8795072,14008
990.0083394,14037.8
994.1309953,13759.8
998.2474857,14081.2
1002.357822,13278.6
1006.462014,13754
1010.560075,13589.8
1014.652013,13924.6
1018.737841,14188.8
1022.81757,13609.6
1026.891209,13574
1030.958771,13457.6
1035.020266,13893.4
1039.075705,13477.8
1043.1251,13218.2
1047.16846,13517.2
1051.205797,13455.6
1055.237121,13192.2
1059.262444,13125.8
1063.281777,12957
1067.295131,13251.4
1071.302515,14717.6
1075.303942,14849.4
1079.299422,16060
1083.288966,15251.8
1087.272585,14404.8
1091.250289,13830.4
1095.222091,13772.4
1099.187999,13258.2
1103.148026,13511.2
1107.102183,13216.6
1111.050479,13421.8
1114.992927,13426.8
1118.929536,13134.8
1122.860318,13505.6
1126.785283,12956.4
1130.704443,12866.2
1134.617808,13696.4
1138.52539,13445.2
1142.427198,13488.6
1146.323244,13540.2
1150.213538,13221.8
1154.098093,13586.4
1157.976917,12986.6
1161.850023,12963
1165.717421,13525.4
1169.579121,13266.6
1173.435135,13707.2
1177.285474,12892
1181.130148,13128.8
1184.969169,13532.4
1188.802547,13488.4
1192.630292,12972.8
1196.452416,12692
1200.26893,12770
1204.079844,12502.2
1207.88517,12181
1211.684917,12803
1215.479098,12405
1219.267722,13913
1223.050801,12485.2
1226.828346,12540.4
1230.600366,12865.6
1234.366874,12948.8
1238.12788,12593.4
1241.883395,12747.2
1245.633429,13071.4
1249.377994,13003.4
1253.1171,12205.8
1256.850759,12621.2
1260.578981,12487.2
1264.301776,12677.6
1268.019157,12545.4
1271.731133,12330
1275.437715,12222.2
1279.138915,12795.6
1282.834743,12858.4
1286.52521,12460.8
1290.210328,12186.8
1293.890106,12492.6
1297.564555,12924
1301.233688,12311.4
1304.897514,12626.8
1308.556044,12779.4
1312.209289,12640.4
1315.857261,12208.6
1319.499969,12334.2
1323.137425,13117
1326.769641,12637
1330.396626,13212.2
1334.018391,12554.2
1337.634948,12688.6
1341.246307,12436.2
1344.85248,12395.6
1348.453477,12147.2
1352.049309,12205
1355.639987,12208.4
1359.225522,12785.4
1362.805925,12580.2
1366.381207,12482.2
1369.951379,12609
1373.516452,12631.2
1377.076436,12682.8
1380.631343,12621.6
1384.181184,12443.6
1387.725969,12519.4
1391.26571,12166.2
1394.800417,12082.4
1398.330102,12352.6
1401.854776,12512.2
1405.374448,12303.6
1408.889132,12023.6
1412.398837,11602.2
1415.903574,11979.4
1419.403355,12644
1422.89819,12191.6
1426.388091,12057.8
1429.873069,12708
1433.353134,12095.6
1436.828298,12210.4
1440.298571,12350
1443.763965,12069.2
1447.224491,11906.4
1450.68016,12033.2
1454.130983,12449.6
1457.576971,12386.4
1461.018135,12532.2
1464.454486,12548.4
1467.886036,12233
1471.312794,12205.2
1474.734774,11988.8
1478.151985,12652.2
1481.564439,12302.4
1484.972146,12220.2
1488.375119,11964.4
1491.773368,12343.8
1495.166904,12968.4
1498.555739,12193.8
1501.939883,12155.8
1505.319349,11820
1508.694146,12117.4
1512.064286,12265.2
1515.429781,12251
1518.790642,12000.4
1522.146879,12149.6
1525.498505,11775.8
1528.845529,11886.8
1532.187965,12399.8
1535.525822,12091
1538.859112,12106
1542.187846,12655.4
1545.512036,11840
1548.831693,13129.2
1552.146829,12574.2
1555.457453,11813.8
1558.763579,11479.6
1562.065216,11945.6
1565.362377,12330.8
1568.655073,12608
1571.943315,12408
1575.227114,12426.4
1578.506482,12475.2
1581.781431,13151.6
1585.051971,12878.8
1588.318114,13106.8
1591.579872,13012.2
1594.837255,12705.4
1598.090275,12408.4
1601.338945,12261
1604.583274,12488.6
1607.823275,12107.2
1611.058959,11684.2
1614.290338,12823.4
1617.517422,11514.4
1620.740224,11930.6
1623.958755,11691.2
1627.173027,11704.8
1630.38305,11397.4
1633.588838,11825.2
1636.7904,11654.6
1639.987749,11788.6
1643.180896,11960.6
1646.369853,11345.2
1649.554632,12115
1652.735244,11645.6
1655.9117,11275.2
1659.084013,11557.2
1662.252193,12276.2
1665.416254,11275
1668.576205,11672.4
1671.732059,12009
1674.883828,11923.8
1678.031523,11472.6
1681.175157,11627.6
1684.314739,11600
1687.450284,11507.2
1690.581801,11486
1693.709304,11220.6
1696.832803,11376.2
1699.952311,11551
1703.067839,11521
1706.179399,11420.2
1709.287003,11861.8
1712.390663,11574
1715.49039,11447.8
1718.586197,11915.2
1721.678095,11649
1724.766096,11715.8
1727.850213,11254.4
1730.930456,11573.8
1734.006838,11443.6
1737.079372,11630.4
1740.148067,11222.6
1743.212938,12325.4
1746.273996,11470.2
1749.331252,11505.2
1752.384718,11592
1755.434408,11555.8
1758.480332,11577.8
1761.522503,11588.8
1764.560933,11334.2
1767.595634,11108.6
1770.626618,11709.6
1773.653896,11717.6
1776.677482,11397.4
1779.697388,11312.8
1782.713625,12026.2
1785.726205,11879.8
1788.735141,11862.4
1791.740445,11413.4
1794.742129,11306.8
1797.740206,11852.2
1800.734687,11853.4
1803.725585,11613
1806.712912,11646.6
1809.69668,11319
1812.676902,11477.6
1815.65359,11129.4
1818.626756,11194.6
1821.596413,11379.8
1824.562573,11031.8
1827.525247,11361.6
1830.48445,11221.4
1833.440192,11386
1836.392487,11294.4
1839.341347,11458.4
1842.286784,11546.8
1845.22881,10946.8
1848.167439,11597.6
1851.102682,11425.8
1854.034553,11386.8
1856.963063,11168.8
1859.888226,12136.2
1862.810053,11562
1865.728557,11303.6
1868.643751,11142.8
1871.555648,11129.6
1874.46426,10866.6
1877.369599,11464.2
1880.271679,11279.8
1883.170512,11204
1886.06611,11703.8
1888.958487,11333.8
1891.847655,11338.6
1894.733626,11429
1897.616414,11487.8
1900.496032,10986.8
1903.372491,11438.8
1906.245805,11693
1909.115987,11680
1911.983049,11612.6
1914.847004,11617.8
1917.707866,11699.6
1920.565646,11672.4
1923.420359,11271.4
1926.272016,11566.8
1929.120631,11277.6
1931.966216,11449.6
1934.808786,11325.8
1937.648351,11638.6
1940.484927,11569.2
1943.318525,11654.2
1946.149158,11883.6
1948.97684,12877.8
1951.801584,11828.8
1954.623403,11682.2
1957.44231,11767.8
1960.258318,11311
1963.071439,11294.2
1965.881688,11488.6
1968.689078,11587.6
1971.493621,11361.8
