Ramanshift[cm-1],Intensity
-93.47115107,13893.6
-87.69374369,12703.6
-81.9253076,12456.8
-76.16582701,12612.6
-70.41528615,12570.4
-64.67366933,12329.4
-58.94096086,12237.8
-53.21714512,12560.8
-47.50220652,12492.6
-41.79612954,12482.4
-36.09889866,13064.8
-30.41049843,13123.2
-24.73091343,12803.4
-19.0601283,12717
-13.39812769,12580.2
-7.744896327,12386.6
-2.100418946,12127.4
3.535319659,12809.6
9.162334658,12181.6
14.78064118,12506
20.39025432,12158.4
25.99118913,12250.6
31.58346061,12713.2
37.16708375,12467
42.74207347,12139.6
48.30844468,12225.6
53.86621222,12027
59.41539093,11715.4
64.95599558,11694.4
70.48804091,12070.2
76.01154164,12223.4
81.52651243,11592.8
87.03296792,12040.6
92.5309227,12507.6
98.02039134,11707.4
103.5013884,12010.8
108.9739282,11922.4
114.4380255,11819.8
119.8936944,12153
125.3409495,12978.2
130.779805,11794.6
136.2102753,11528.6
141.6323747,11624.8
147.0461174,12234.2
152.4515176,11773.6
157.8485895,11751.4
163.2373472,11721.4
168.6178049,11901.6
173.9899766,12226
179.3538764,11844.8
184.7095182,11831.2
190.0569161,12093.8
195.396084,12308.8
200.7270358,11688.4
206.0497854,11717.4
211.3643466,11384
216.6707333,11832
221.9689593,11425
227.2590382,11581.6
232.5409839,11675.4
237.8148101,11483
243.0805303,11523.2
248.3381582,11578.6
253.5877075,11506.4
258.8291917,11556
264.0626244,11774.4
269.288019,11715
274.5053891,11949.6
279.7147481,11681
284.9161094,11470.6
290.1094865,11607.2
295.2948927,12090
300.4723414,13451
305.6418459,13951.6
310.8034194,14865.6
315.9570752,15813.8
321.1028267,16177.8
326.2406869,16149.6
331.370669,16321.8
336.4927863,16386.6
341.6070517,16509.2
346.7134786,16489.8
351.8120798,16823.6
356.9028684,16484.6
361.9858576,16528.2
367.0610602,17008.6
372.1284892,16806.4
377.1881577,17671.2
382.2400784,18697.2
387.2842644,20195
392.3207284,21412.2
397.3494833,20442.2
402.370542,19521.4
407.3839172,17819.4
412.3896217,16684.2
417.3876683,15972
422.3780697,15820.4
427.3608386,15682.4
432.3359876,15992.8
437.3035295,16082.2
442.2634769,16284
447.2158423,15246.2
452.1606383,15458.4
457.0978776,15521
462.0275727,14917.2
466.9497361,15613.8
471.8643802,14957.8
476.7715176,15521.4
481.6711608,15428.8
486.5633221,15586.8
491.448014,15341.4
496.3252488,15308.8
501.195039,15263.4
506.0573969,15598.6
510.9123349,15343
515.7598651,14891.8
520.6,15391
525.4327518,15350.6
530.2581327,15358.6
535.076155,14819.4
539.8868309,15107.4
544.6901726,15281.4
549.4861922,15025.4
554.2749019,15856.2
559.0563139,14861
563.8304402,14738
568.597293,15861.6
573.3568844,15390.2
578.1092263,14862.2
582.8543308,15303.8
587.5922101,15256
592.322876,14909.8
597.0463405,14942.6
601.7626157,15326.4
606.4717135,14889.4
611.1736458,14867
615.8684246,14966
620.5560617,15274
625.2365691,14980.2
629.9099585,15406.6
634.5762419,15751.2
639.2354312,15054
643.887538,15206.8
648.5325743,14888.2
653.1705518,14878.4
657.8014823,15091
662.4253775,14476
667.0422493,14934.6
671.6521092,14838.8
676.2549691,14982.6
680.8508407,14999
685.4397355,14826
690.0216654,14912.4
694.5966419,14749
699.1646767,15332
703.7257814,15095.8
708.2799676,15141.4
712.827247,15202.6
717.367631,14813
721.9011314,14868.6
726.4277595,14248
730.9475271,14898
735.4604456,14739
739.9665264,15388.6
744.4657813,14694.2
748.9582215,14840.6
753.4438587,14374
757.9227042,14153.4
762.3947696,14713.8
766.8600662,14288.4
771.3186056,15731.6
775.770399,14778
780.215458,15149.2
784.6537939,14379.6
789.0854181,14255.6
793.510342,14483.4
797.9285769,15173
802.3401342,14664.4
806.7450253,14671.2
811.1432614,14477.4
815.5348538,14354.4
819.9198139,14045
824.2981531,14262.2
828.6698824,14392.2
833.0350133,14274.2
837.393557,13931.2
841.7455248,14293.4
846.0909278,14057.6
850.4297774,14039.2
854.7620848,14030
859.0878611,14480
863.4071176,13857.6
867.7198655,14287.4
872.026116,14654
876.3258802,15041.8
880.6191693,14650
884.9059946,14741
889.186367,15054.6
893.4602979,14037
897.7277982,13945.8
901.9888793,14421
906.2435521,14760.6
910.4918277,14126.2
914.7337174,14156.2
918.9692321,14064.6
923.1983831,14863.6
927.4211813,14503
931.6376378,15084
935.8477637,14485.2
940.0515701,14855.6
944.249068,14902.8
948.4402684,14079.8
952.6251825,15018
956.8038212,14560.6
960.9761955,15290
965.1423166,14706
969.3021953,14808.6
973.4558427,14743.4
977.6032699,14484.4
981.7444877,14557
985.8795072,14503
990.0083394,14679.6
994.1309953,14233
998.2474857,14686.4
1002.357822,13877.6
1006.462014,14397
1010.560075,14120
1014.652013,14460.2
1018.737841,14648.6
1022.81757,14128.8
1026.891209,14127.4
1030.958771,13952
1035.020266,14420.6
1039.075705,14039
1043.1251,13713
1047.16846,14069.8
1051.205797,13853
1055.237121,13615.6
1059.262444,13696
1063.281777,13699.6
1067.295131,14097
1071.302515,15942.4
1075.303942,16206
1079.299422,17237.4
1083.288966,16228.4
1087.272585,15069.2
1091.250289,14400.4
1095.222091,14103.8
1099.187999,13773.2
1103.148026,13866.6
1107.102183,13666.6
1111.050479,13846.8
1114.992927,13754.6
1118.929536,13540
1122.860318,13883.4
1126.785283,13370
1130.704443,13326.2
1134.617808,14314.2
1138.52539,14199.2
1142.427198,14060
1146.323244,14091.4
1150.213538,13587.8
1154.098093,14075.4
1157.976917,13414.4
1161.850023,13368.4
1165.717421,13985.4
1169.579121,13704.2
1173.435135,14182.4
1177.285474,13569.8
1181.130148,13955.6
1184.969169,14084
1188.802547,13856.4
1192.630292,13279
1196.452416,13005.2
1200.26893,13134
1204.079844,12843
1207.88517,12531
1211.684917,13167.2
1215.479098,12743.8
1219.267722,14455.4
1223.050801,12873
1226.828346,12902.6
1230.600366,13257.2
1234.366874,13389.2
1238.12788,13024.2
1241.883395,13123.2
1245.633429,13448.4
1249.377994,13544.2
1253.1171,12667.4
1256.850759,13164.4
1260.578981,12901
1264.301776,12967
1268.019157,13051.6
1271.731133,12693.2
1275.437715,12478.8
1279.138915,13155
1282.834743,13356.2
1286.52521,12949.4
1290.210328,12725.8
1293.890106,12929
1297.564555,13446.4
1301.233688,12666.4
1304.897514,13025.6
1308.556044,13182.4
1312.209289,13153.2
1315.857261,12553.6
1319.499969,12777.6
1323.137425,13602
1326.769641,13087.2
1330.396626,13597.8
1334.018391,13006.4
1337.634948,13153.2
1341.246307,12876.6
1344.85248,12822.2
1348.453477,12702.8
1352.049309,12698.8
1355.639987,12599.6
1359.225522,13254.6
1362.805925,12887.6
1366.381207,12931
1369.951379,13026
1373.516452,12935.8
1377.076436,13291.2
1380.631343,13098
1384.181184,12846
1387.725969,12975.2
1391.26571,12657.4
1394.800417,12504.8
1398.330102,12723.2
1401.854776,12919
1405.374448,12775.2
1408.889132,12303.4
1412.398837,11996.6
1415.903574,12406.8
1419.403355,13020.6
1422.89819,12719.8
1426.388091,12579.2
1429.873069,13218.6
1433.353134,12499.2
1436.828298,12551.4
1440.298571,12756.2
1443.763965,12524
1447.224491,12330.2
1450.68016,12360.4
1454.130983,12757
1457.576971,12757.8
1461.018135,12884.6
1464.454486,12975.8
1467.886036,12602.2
1471.312794,12612.8
1474.734774,12295
1478.151985,13014.8
1481.564439,12688.4
1484.972146,12824.8
1488.375119,12288.8
1491.773368,12637.2
1495.166904,13159.2
1498.555739,12466.6
1501.939883,12568.2
1505.319349,12036.2
1508.694146,12466.4
1512.064286,12518.6
1515.429781,12515
1518.790642,12321.8
1522.146879,12489.8
1525.498505,12174.6
1528.845529,12114.2
1532.187965,12678.2
1535.525822,12341.2
1538.859112,12408
1542.187846,13072
1545.512036,12100.4
1548.831693,13389.2
1552.146829,12822.6
1555.457453,12143
1558.763579,11783.8
1562.065216,12356.4
1565.362377,12669.6
1568.655073,12965
1571.943315,12943.4
1575.227114,13015.8
1578.506482,13070.4
1581.781431,13810.6
1585.051971,13548.2
1588.318114,13683
1591.579872,13656.4
1594.837255,13158
1598.090275,12740
1601.338945,12470
1604.583274,12908.6
1607.823275,12391.8
1611.058959,12030
1614.290338,13248.4
1617.517422,11866.8
1620.740224,12319.6
1623.958755,11875.4
1627.173027,12095.6
1630.38305,11568.6
1633.588838,12146.2
1636.7904,11960.2
1639.987749,12145.4
1643.180896,12310.6
1646.369853,11701.2
1649.554632,12425.8
1652.735244,11934
1655.9117,11500
1659.084013,11882.4
1662.252193,12481.8
1665.416254,11649.8
1668.576205,11892
1671.732059,12186.2
1674.883828,12174.6
1678.031523,11756.6
1681.175157,11814.4
1684.314739,11783
1687.450284,11761.6
1690.581801,11669.2
1693.709304,11378.4
1696.832803,11528.2
1699.952311,11668.6
1703.067839,11755.4
1706.179399,11623.8
1709.287003,12087.2
1712.390663,11669
1715.49039,11714.8
1718.586197,12224.4
1721.678095,11935
1724.766096,11987.4
1727.850213,11325
1730.930456,11704.6
1734.006838,11564.8
1737.079372,11686
1740.148067,11447.6
1743.212938,12533.2
1746.273996,11778
1749.331252,11668.2
1752.384718,11810.8
1755.434408,11746.4
1758.480332,11712.2
1761.522503,11710.8
1764.560933,11557
1767.595634,11158.2
1770.626618,11981.4
1773.653896,11980.8
1776.677482,11460.2
1779.697388,11567
1782.713625,12089.8
1785.726205,12073.8
1788.735141,12001.4
1791.740445,11554.2
1794.742129,11494
1797.740206,11986.8
1800.734687,11990.2
1803.725585,11731.2
1806.712912,11793
1809.69668,11524
1812.676902,11604.2
1815.65359,11181
1818.626756,11430.8
1821.596413,11568.8
1824.562573,11211.2
1827.525247,11576.8
1830.48445,11411.6
1833.440192,11464.6
1836.392487,11416.8
1839.341347,11672.8
1842.286784,11594.2
1845.22881,11156
1848.167439,11679
1851.102682,11420.6
1854.034553,11467.6
1856.963063,11272
1859.888226,12153.2
1862.810053,11707.6
1865.728557,11443.6
1868.643751,11292.4
1871.555648,11366.8
1874.46426,11092.6
1877.369599,11666.8
1880.271679,11510
1883.170512,11288.4
1886.06611,11831.4
1888.958487,11513.6
1891.847655,11324.4
1894.733626,11627.2
1897.616414,11632.6
1900.496032,11226.2
1903.372491,11506
1906.245805,11826.2
1909.115987,11832.2
1911.983049,11786
1914.847004,11753.8
1917.707866,11843.6
1920.565646,11837.4
1923.420359,11401.8
1926.272016,11595.8
1929.120631,11345
1931.966216,11512.4
1934.808786,11442
1937.648351,11711
1940.484927,11684.2
1943.318525,11786.8
1946.149158,12005.4
1948.97684,13050.8
1951.801584,12061.2
1954.623403,11819.4
1957.44231,11941.4
1960.258318,11442
1963.071439,11458
1965.881688,11590.8
1968.689078,11770.6
1971.493621,11526.8
