Ramanshift[cm-1],Intensity
-93.47115107,13939
-87.69374369,12613.2
-81.9253076,12511.4
-76.16582701,12502.4
-70.41528615,12681.2
-64.67366933,12272.8
-58.94096086,12303.8
-53.21714512,12554.6
-47.50220652,12500
-41.79612954,12554
-36.09889866,13178.8
-30.41049843,13101.4
-24.73091343,12792.8
-19.0601283,12781.8
-13.39812769,12589.8
-7.744896327,12374.4
-2.100418946,12132.4
3.535319659,12865.6
9.162334658,12153.6
14.78064118,12518.2
20.39025432,12262.4
25.99118913,12317.6
31.58346061,12740.4
37.16708375,12411.8
42.74207347,12188
48.30844468,12271.4
53.86621222,12036.2
59.41539093,11758.6
64.95599558,11693.4
70.48804091,12176.6
76.01154164,12286.6
81.52651243,11674.6
87.03296792,12221.4
92.5309227,12474.4
98.02039134,11712.4
103.5013884,12091.4
108.9739282,11923
114.4380255,11890
119.8936944,12120.8
125.3409495,13012
130.779805,11833.8
136.2102753,11732.2
141.6323747,11631.6
147.0461174,12345.4
152.4515176,11851
157.8485895,11752.6
163.2373472,11659.2
168.6178049,11993.4
173.9899766,12203.8
179.3538764,11735.4
184.7095182,11844
190.0569161,12101.2
195.396084,12282.6
200.7270358,11641
206.0497854,11725.4
211.3643466,11426.8
216.6707333,11858.6
221.9689593,11513
227.2590382,11676.4
232.5409839,11592.6
237.8148101,11515
243.0805303,11660
248.3381582,11588
253.5877075,11496.2
258.8291917,11599.8
264.0626244,11841
269.288019,11843.6
274.5053891,11990.2
279.7147481,11597
284.9161094,11496
290.1094865,11604.8
295.2948927,12054
300.4723414,13229.8
305.6418459,13658.6
310.8034194,14241.8
315.9570752,15415.2
321.1028267,15499.8
326.2406869,15471
331.370669,15709.4
336.4927863,15745
341.6070517,15769.4
346.7134786,15610.4
351.8120798,15942.2
356.9028684,15531.2
361.9858576,15657.4
367.0610602,15991.8
372.1284892,15810
377.1881577,16328.6
382.2400784,16678.8
387.2842644,17590.6
392.3207284,18309.4
397.3494833,17656.8
402.370542,17438.4
407.3839172,16319.4
412.3896217,15724.4
417.3876683,15181.6
422.3780697,15274.6
427.3608386,15141.8
432.3359876,15457.2
437.3035295,15705
442.2634769,15569.2
447.2158423,14920.4
452.1606383,14962.4
457.0978776,15129.6
462.0275727,14584.8
466.9497361,15028.8
471.8643802,14454.8
476.7715176,15005.8
481.6711608,14957.6
486.5633221,15181.6
491.448014,15026
496.3252488,14930
501.195039,14931.6
506.0573969,15205
510.9123349,15025.4
515.7598651,14457.6
520.6,15004
525.4327518,14895.8
530.2581327,15011
535.076155,14576.4
539.8868309,14987
544.6901726,15043
549.4861922,14748.2
554.2749019,15764.8
559.0563139,14894
563.8304402,14610.4
568.597293,15549.2
573.3568844,15169.4
578.1092263,14635.6
582.8543308,15010
587.5922101,14970.2
592.322876,14649.4
597.0463405,14720.4
601.7626157,15096.4
606.4717135,14586.8
611.1736458,14593
615.8684246,14649.8
620.5560617,14944.8
625.2365691,14601.2
629.9099585,15048.4
634.5762419,15370.6
639.2354312,14599.4
643.887538,14947.6
648.5325743,14613.6
653.1705518,14636.4
657.8014823,14819.2
662.4253775,14213.4
667.0422493,14565.8
671.6521092,14501.6
676.2549691,14678.6
680.8508407,14776.6
685.4397355,14557
690.0216654,14663.4
694.5966419,14352.2
699.1646767,14939
703.7257814,14762.4
708.2799676,14843
712.827247,14918.4
717.367631,14580.6
721.9011314,14560.4
726.4277595,14001.6
730.9475271,14668.6
735.4604456,14466.8
739.9665264,15119.8
744.4657813,14652.6
748.9582215,14566.6
753.4438587,14094
757.9227042,13908
762.3947696,14580.6
766.8600662,14035
771.3186056,15498.2
775.770399,14407.8
780.215458,14856
784.6537939,14186.8
789.0854181,13985
793.510342,14207
797.9285769,14745
802.3401342,14231.4
806.7450253,14375
811.1432614,14268.2
815.5348538,14150
819.9198139,13920.8
824.2981531,14157.8
828.6698824,14247.4
833.0350133,14128.2
837.393557,13912
841.7455248,14243.8
846.0909278,14067.4
850.4297774,13916
854.7620848,13992
859.0878611,14324
863.4071176,13693.2
867.7198655,14127.8
872.026116,14483.2
876.3258802,15004.8
880.6191693,14362.6
884.9059946,14437.8
889.186367,14899.4
893.4602979,13843.4
897.7277982,13736.8
901.9888793,14049.6
906.2435521,14505.2
910.4918277,13970.2
914.7337174,14012
918.9692321,13855.8
923.1983831,14506
927.4211813,14159.2
931.6376378,14957.4
935.8477637,14258.8
940.0515701,14513.6
944.249068,14476.2
948.4402684,13700.6
952.6251825,14674.2
956.8038212,14218
960.9761955,14935.6
965.1423166,14460.6
969.3021953,14405
973.4558427,14407.8
977.6032699,14215.4
981.7444877,14211.8
985.8795072,14190
990.0083394,14404.8
994.1309953,14058
998.2474857,14415.2
1002.357822,13591.6
1006.462014,14178.2
1010.560075,13804.6
1014.652013,14149.6
1018.737841,14451
1022.81757,13950.2
1026.891209,13824
1030.958771,13711.2
1035.020266,14162
1039.075705,13755.4
1043.1251,13620
1047.16846,13746.4
1051.205797,13756.8
1055.237121,13477.2
1059.262444,13503.2
1063.281777,13318.4
1067.295131,13640.4
1071.302515,15097.2
1075.303942,14908.4
1079.299422,16055.8
1083.288966,15336.8
1087.272585,14637.2
1091.250289,14061
1095.222091,13983
1099.187999,13586.6
1103.148026,13708
1107.102183,13547.6
1111.050479,13713.6
1114.992927,13625.8
1118.929536,13466.6
1122.860318,13866.8
1126.785283,13359
1130.704443,13430.2
1134.617808,14199.4
1138.52539,14224.4
1142.427198,14067
1146.323244,14123.2
1150.213538,13608.2
1154.098093,13975.2
1157.976917,13348.6
1161.850023,13170.6
1165.717421,13866.6
1169.579121,13488.6
1173.435135,13988.8
1177.285474,13131.6
1181.130148,13480.4
1184.969169,13739.2
1188.802547,13580.6
1192.630292,13296.2
1196.452416,13005.4
1200.26893,13109.8
1204.079844,12832.8
1207.88517,12464.2
1211.684917,13062.6
1215.479098,12698.6
1219.267722,14322
1223.050801,12821
1226.828346,12900.4
1230.600366,13052.4
1234.366874,13338.4
1238.12788,12943.8
1241.883395,12911.4
1245.633429,13262.4
1249.377994,13410.4
1253.1171,12536.6
1256.850759,13002.2
1260.578981,12767.2
1264.301776,12933
1268.019157,12810.2
1271.731133,12592.8
1275.437715,12394.8
1279.138915,13033.2
1282.834743,13284.2
1286.52521,12706.4
1290.210328,12625.6
1293.890106,12764.6
1297.564555,13208.8
1301.233688,12678.4
1304.897514,12974.6
1308.556044,13123.2
1312.209289,13041.2
1315.857261,12441
1319.499969,12666.2
1323.137425,13420.6
1326.769641,12950.2
1330.396626,13429.8
1334.018391,12876.8
1337.634948,12969.4
1341.246307,12775.6
1344.85248,12629
1348.453477,12563.4
1352.049309,12586.2
1355.639987,12595
1359.225522,13186.2
1362.805925,12804
1366.381207,12878.4
1369.951379,12907.4
1373.516452,13077
1377.076436,13248.2
1380.631343,13122.8
1384.181184,12909.2
1387.725969,13017.6
1391.26571,12764.8
1394.800417,12548.4
1398.330102,12771.6
1401.854776,12922.6
1405.374448,12692.4
1408.889132,12353.6
1412.398837,11874.6
1415.903574,12365
1419.403355,13006.4
1422.89819,12639.6
1426.388091,12628.8
1429.873069,13130.2
1433.353134,12482
1436.828298,12535
1440.298571,12710.2
1443.763965,12437
1447.224491,12202.8
1450.68016,12328.2
1454.130983,12783.2
1457.576971,12615.8
1461.018135,12947
1464.454486,12948.4
1467.886036,12409
1471.312794,12601.8
1474.734774,12210.4
1478.151985,12917.4
1481.564439,12532.2
1484.972146,12556
1488.375119,12161.4
1491.773368,12588.2
1495.166904,13231.6
1498.555739,12381.6
1501.939883,12563.4
1505.319349,12125.8
1508.694146,12517.2
1512.064286,12546.4
1515.429781,12507
1518.790642,12181.8
1522.146879,12504.2
1525.498505,12073
1528.845529,11954.4
1532.187965,12714.4
1535.525822,12396
1538.859112,12439.8
1542.187846,13023.4
1545.512036,11990.6
1548.831693,13271.6
1552.146829,12806.6
1555.457453,12023.2
1558.763579,11721
1562.065216,12270.2
1565.362377,12497.8
1568.655073,12796
1571.943315,12692.4
1575.227114,12657.2
1578.506482,12615.6
1581.781431,13249.8
1585.051971,12898.8
1588.318114,13057
1591.579872,13136.4
1594.837255,12919.2
1598.090275,12443.6
1601.338945,12337.6
1604.583274,12733.6
1607.823275,12355.8
1611.058959,11908.8
1614.290338,13092.8
1617.517422,11871.2
1620.740224,12245
1623.958755,11873.4
1627.173027,11965
1630.38305,11597.2
1633.588838,12096.8
1636.7904,11897.8
1639.987749,12110.6
1643.180896,12199.6
1646.369853,11592.2
1649.554632,12481
1652.735244,11847.2
1655.9117,11532.2
1659.084013,11908.8
1662.252193,12472.8
1665.416254,11573
1668.576205,11859.6
1671.732059,12250
1674.883828,12176.6
1678.031523,11696.4
1681.175157,11830.6
1684.314739,11851.2
1687.450284,11806.4
1690.581801,11704.8
1693.709304,11510
1696.832803,11612.8
1699.952311,11764.4
1703.067839,11826.4
1706.179399,11741.6
1709.287003,12215.8
1712.390663,11760
1715.49039,11829.6
1718.586197,12133.6
1721.678095,12001.8
1724.766096,11942
1727.850213,11333.2
1730.930456,11869.8
1734.006838,11537.2
1737.079372,11817.8
1740.148067,11488
1743.212938,12688.8
1746.273996,11874.6
1749.331252,11689
1752.384718,11786.6
1755.434408,11831.8
1758.480332,11848.6
1761.522503,11864.2
1764.560933,11664
1767.595634,11339.4
1770.626618,11954.2
1773.653896,11964.8
1776.677482,11646.2
1779.697388,11571.8
1782.713625,12180.2
1785.726205,12161.2
1788.735141,12109.8
1791.740445,11688
1794.742129,11537.2
1797.740206,12036.6
1800.734687,12129
1803.725585,11832.6
1806.712912,11817.2
1809.69668,11637.2
1812.676902,11628.6
1815.65359,11366.2
1818.626756,11416
1821.596413,11655.8
1824.562573,11321.8
1827.525247,11714.6
1830.48445,11467
1833.440192,11547
1836.392487,11546.2
1839.341347,11806.6
1842.286784,11790.2
1845.22881,11281
1848.167439,11858
1851.102682,11569.4
1854.034553,11525.4
1856.963063,11408.8
1859.888226,12303.6
1862.810053,11734.6
1865.728557,11555.4
1868.643751,11417.4
1871.555648,11285.2
1874.46426,11079.8
1877.369599,11667.6
1880.271679,11567.6
1883.170512,11454
1886.06611,11821.2
1888.958487,11613.2
1891.847655,11550.6
1894.733626,11733.6
1897.616414,11737.8
1900.496032,11229.8
1903.372491,11538.6
1906.245805,11831.8
1909.115987,11823.8
1911.983049,11875.6
1914.847004,11802
1917.707866,11942.2
1920.565646,11931.8
1923.420359,11501.8
1926.272016,11655.2
1929.120631,11444
1931.966216,11654.2
1934.808786,11539.6
1937.648351,11786.8
1940.484927,11736.6
1943.318525,11935.4
1946.149158,12138
1948.97684,13216.8
1951.801584,12127.4
1954.623403,11949.6
1957.44231,11940.8
1960.258318,11470.8
1963.071439,11448.4
1965.881688,11731.6
1968.689078,11823
1971.493621,11653.6
