Ramanshift[cm-1],Intensity
-93.47115107,13115.2
-87.69374369,11937.8
-81.9253076,11646.2
-76.16582701,11766.6
-70.41528615,11773.2
-64.67366933,11537.4
-58.94096086,11482.4
-53.21714512,11724.4
-47.50220652,11811.4
-41.79612954,11670.4
-36.09889866,12283.8
-30.41049843,12374
-24.73091343,12011.2
-19.0601283,12012.8
-13.39812769,11848.6
-7.744896327,11554.2
-2.100418946,11429.6
3.535319659,12027.8
9.162334658,11469.2
14.78064118,11734
20.39025432,11385.2
25.99118913,11511.8
31.58346061,11950
37.16708375,11681.6
42.74207347,11402
48.30844468,11414.2
53.86621222,11403.6
59.41539093,10977.2
64.95599558,10926
70.48804091,11327.2
76.01154164,11454.2
81.52651243,10841
87.03296792,11423.6
92.5309227,11707
98.02039134,11061.2
103.5013884,11322.4
108.9739282,11160.6
114.4380255,11209.8
119.8936944,11332.4
125.3409495,12185.8
130.779805,11078.8
136.2102753,10917.6
141.6323747,10992.6
147.0461174,11411.4
152.4515176,11106.4
157.8485895,11076.8
163.2373472,11012.2
168.6178049,11239
173.9899766,11499.8
179.3538764,11103.8
184.7095182,11130.2
190.0569161,11397.4
195.396084,11539.4
200.7270358,10959.8
206.0497854,10946.4
211.3643466,10759.4
216.6707333,11114.8
221.9689593,10708.4
227.2590382,10948
232.5409839,10861.2
237.8148101,10774.8
243.0805303,10967.2
248.3381582,10881.6
253.5877075,10793.6
258.8291917,10912.2
264.0626244,10833.8
269.288019,11089.8
274.5053891,11286.6
279.7147481,10947
284.9161094,10814.2
290.1094865,10945.4
295.2948927,11421
300.4723414,12829.6
305.6418459,13521.2
310.8034194,14293.4
315.9570752,15505.4
321.1028267,15640.4
326.2406869,15707.4
331.370669,15878.2
336.4927863,15884.6
341.6070517,16097
346.7134786,15961.6
351.8120798,16231
356.9028684,15963.8
361.9858576,16001.2
367.0610602,16418.4
372.1284892,16176.8
377.1881577,16733.6
382.2400784,16929.2
387.2842644,17437.8
392.3207284,17947
397.3494833,17453.6
402.370542,17287
407.3839172,16573.2
412.3896217,16105.8
417.3876683,15575
422.3780697,15625.2
427.3608386,15642.4
432.3359876,15957
437.3035295,16242.8
442.2634769,16137.4
447.2158423,15376.4
452.1606383,15529.6
457.0978776,15616.8
462.0275727,15063.4
466.9497361,15572.6
471.8643802,14956.2
476.7715176,15543.6
481.6711608,15414.2
486.5633221,15630.8
491.448014,15436
496.3252488,15355.4
501.195039,15446.8
506.0573969,15644
510.9123349,15461.4
515.7598651,15037.4
520.6,15463.6
525.4327518,15300.4
530.2581327,15344.6
535.076155,14849.2
539.8868309,15195
544.6901726,15374.4
549.4861922,14959.2
554.2749019,15948.8
559.0563139,15052.6
563.8304402,14753.6
568.597293,15763.2
573.3568844,15429.6
578.1092263,15047.2
582.8543308,15582.4
587.5922101,15383.6
592.322876,15023.4
597.0463405,15122.8
601.7626157,15381
606.4717135,14982.4
611.1736458,14944.2
615.8684246,14978.2
620.5560617,15239
625.2365691,15102.6
629.9099585,15393
634.5762419,15609.4
639.2354312,15026
643.887538,15212.4
648.5325743,14812.2
653.1705518,14846.6
657.8014823,15125
662.4253775,14480.8
667.0422493,14720.8
671.6521092,14753.4
676.2549691,14970.6
680.8508407,14898
685.4397355,14860
690.0216654,14862.8
694.5966419,14753.8
699.1646767,15166
703.7257814,14940.8
708.2799676,15022.4
712.827247,15059.8
717.367631,14834
721.9011314,14934.4
726.4277595,14272.6
730.9475271,14892.8
735.4604456,14870.6
739.9665264,15238.4
744.4657813,14819.6
748.9582215,14763
753.4438587,14308.8
757.9227042,14083.8
762.3947696,14653.4
766.8600662,14284.8
771.3186056,15625.6
775.770399,14518.8
780.215458,15031.8
784.6537939,14183.6
789.0854181,14139
793.510342,14275.6
797.9285769,14876
802.3401342,14281.2
806.7450253,14409.8
811.1432614,14434
815.5348538,14226.6
819.9198139,13981.4
824.2981531,14210.4
828.6698824,14275
833.0350133,14241.4
837.393557,13965.4
841.7455248,14369.4
846.0909278,14074.4
850.4297774,13995.4
854.7620848,14067
859.0878611,14222.6
863.4071176,13583.6
867.7198655,14056.2
872.026116,14421.4
876.3258802,14845.2
880.6191693,14456.6
884.9059946,14285.2
889.186367,14843.6
893.4602979,13658.4
897.7277982,13712.8
901.9888793,14068.4
906.2435521,14361.4
910.4918277,13893
914.7337174,13794.6
918.9692321,13743.2
923.1983831,14311.2
927.4211813,13873.4
931.6376378,14626.8
935.8477637,14036.8
940.0515701,14305.8
944.249068,14322.8
948.4402684,13511.4
952.6251825,14356.2
956.8038212,13987
960.9761955,14568
965.1423166,14054
969.3021953,14220.4
973.4558427,14237.6
977.6032699,13962.8
981.7444877,14149.6
985.8795072,14079.2
990.0083394,14108.4
994.1309953,13842.8
998.2474857,14186.4
1002.357822,13465.8
1006.462014,14011.2
1010.560075,13671.6
1014.652013,13987.8
1018.737841,14264.8
1022.81757,13869.6
1026.891209,13783.8
1030.958771,13654.4
1035.020266,14009.8
1039.075705,13704.4
1043.1251,13489.2
1047.16846,13648
1051.205797,13643.2
1055.237121,13388.8
1059.262444,13253.8
1063.281777,13134.2
1067.295131,13297.4
1071.302515,14452.4
1075.303942,14279.2
1079.299422,15212
1083.288966,14602.8
1087.272585,14083
1091.250289,13968
1095.222091,13866
1099.187999,13483.8
1103.148026,13607.8
1107.102183,13404.4
1111.050479,13654.2
1114.992927,13506.4
1118.929536,13369.8
1122.860318,13637.2
1126.785283,13158
1130.704443,13041.2
1134.617808,13884
1138.52539,13730.4
1142.427198,13717.2
1146.323244,13750.8
1150.213538,13374.2
1154.098093,13699.4
1157.976917,13178.4
1161.850023,13125.4
1165.717421,13665.2
1169.579121,13259
1173.435135,13684.2
1177.285474,12982.6
1181.130148,13150.4
1184.969169,13495.8
1188.802547,13407.4
1192.630292,12990.6
1196.452416,12694.4
1200.26893,12847.4
1204.079844,12571.8
1207.88517,12222
1211.684917,12862.6
1215.479098,12571.6
1219.267722,13997.6
1223.050801,12496.6
1226.828346,12685.2
1230.600366,12923.2
1234.366874,13061.2
1238.12788,12747
1241.883395,12774.8
1245.633429,12920
1249.377994,12988.4
1253.1171,12166.4
1256.850759,12659
1260.578981,12559.8
1264.301776,12632.6
1268.019157,12600.6
1271.731133,12367.2
1275.437715,12229.6
1279.138915,12815.4
1282.834743,13018
1286.52521,12503
1290.210328,12357.2
1293.890106,12545.6
1297.564555,12953.8
1301.233688,12353.4
1304.897514,12722.2
1308.556044,12739.4
1312.209289,12776.8
1315.857261,12324.4
1319.499969,12372.2
1323.137425,13065.8
1326.769641,12583.8
1330.396626,13127.6
1334.018391,12482.8
1337.634948,12607
1341.246307,12353.2
1344.85248,12370.2
1348.453477,12196
1352.049309,12165.4
1355.639987,12308.6
1359.225522,12776.2
1362.805925,12482
1366.381207,12514.8
1369.951379,12522.6
1373.516452,12592.6
1377.076436,12829.2
1380.631343,12490.4
1384.181184,12375.2
1387.725969,12485
1391.26571,12248
1394.800417,12173.8
1398.330102,12277
1401.854776,12551.8
1405.374448,12391.8
1408.889132,12056.4
1412.398837,11693.2
1415.903574,11962
1419.403355,12580
1422.89819,12113.6
1426.388091,12084
1429.873069,12634.2
1433.353134,12039.2
1436.828298,12151.2
1440.298571,12347.2
1443.763965,12020.6
1447.224491,11850.2
1450.68016,11958.2
1454.130983,12357.2
1457.576971,12325
1461.018135,12499.6
1464.454486,12599.2
1467.886036,12101.2
1471.312794,12197
1474.734774,11923.8
1478.151985,12497.4
1481.564439,12289
1484.972146,12222.8
1488.375119,11920.6
1491.773368,12241.4
1495.166904,12755.8
1498.555739,12119.4
1501.939883,12087
1505.319349,11747.8
1508.694146,12148
1512.064286,12113.6
1515.429781,12081.2
1518.790642,11935.2
1522.146879,12141
1525.498505,11730.4
1528.845529,11701.6
1532.187965,12324
1535.525822,11978
1538.859112,12113.6
1542.187846,12533.8
1545.512036,11695.8
1548.831693,12974.4
1552.146829,12444.8
1555.457453,11689.8
1558.763579,11440.2
1562.065216,11876.8
1565.362377,12118
1568.655073,12396.2
1571.943315,12227
1575.227114,12074
1578.506482,12084.6
1581.781431,12685.6
1585.051971,12298
1588.318114,12431.4
1591.579872,12473.4
1594.837255,12273.2
1598.090275,12069.4
1601.338945,11988.4
1604.583274,12267.6
1607.823275,11970.4
1611.058959,11563.2
1614.290338,12591.6
1617.517422,11489.8
1620.740224,11823.4
1623.958755,11497
1627.173027,11670.6
1630.38305,11245.4
1633.588838,11788
1636.7904,11450
1639.987749,11679.4
1643.180896,11786.6
1646.369853,11381
1649.554632,12054.6
1652.735244,11486.6
1655.9117,11108.8
1659.084013,11609.6
1662.252193,12112.2
1665.416254,11217.2
1668.576205,11510.2
1671.732059,11810.6
1674.883828,11804.8
1678.031523,11429.6
1681.175157,11534.6
1684.314739,11554.6
1687.450284,11415
1690.581801,11400.4
1693.709304,11166.6
1696.832803,11326.6
1699.952311,11445.6
1703.067839,11462
1706.179399,11409.2
1709.287003,11783.2
1712.390663,11458.2
1715.49039,11488.6
1718.586197,11747.2
1721.678095,11454.6
1724.766096,11573
1727.850213,11096
1730.930456,11412.6
1734.006838,11259
1737.079372,11465.6
1740.148067,11266.8
1743.212938,12275.6
1746.273996,11390.4
1749.331252,11327.8
1752.384718,11435.8
1755.434408,11492.2
1758.480332,11383.2
1761.522503,11396.2
1764.560933,11224.8
1767.595634,11055
1770.626618,11641.6
1773.653896,11572.6
1776.677482,11344.4
1779.697388,11247
1782.713625,11808.2
1785.726205,11717.8
1788.735141,11687.4
1791.740445,11208
1794.742129,11273.8
1797.740206,11658
1800.734687,11660.8
1803.725585,11487.2
1806.712912,11513.4
1809.69668,11199
1812.676902,11323
1815.65359,10947.2
1818.626756,11146.4
1821.596413,11257.6
1824.562573,10959
1827.525247,11347.4
1830.48445,11011
1833.440192,11188.4
1836.392487,11077.8
1839.341347,11395.8
1842.286784,11350.8
1845.22881,10878.6
1848.167439,11348.6
1851.102682,11135.2
1854.034553,11159.6
1856.963063,11022.8
1859.888226,11915.2
1862.810053,11399
1865.728557,11209.6
1868.643751,11086.2
1871.555648,11000.8
1874.46426,10820.4
1877.369599,11272
1880.271679,11201.2
1883.170512,10951.2
1886.06611,11572.6
1888.958487,11115.2
1891.847655,11078
1894.733626,11302.8
1897.616414,11362
1900.496032,10916.4
1903.372491,11271.8
1906.245805,11568.8
1909.115987,11517.8
1911.983049,11439.8
1914.847004,11303.2
1917.707866,11496.6
1920.565646,11504.4
1923.420359,11069.2
1926.272016,11295.4
1929.120631,11095.4
1931.966216,11238.4
1934.808786,11185
1937.648351,11430.4
1940.484927,11389.6
1943.318525,11478.2
1946.149158,11642.2
1948.97684,12707.6
1951.801584,11641.4
1954.623403,11411.8
1957.44231,11559.4
1960.258318,11111.6
1963.071439,11159.8
1965.881688,11286.6
1968.689078,11373.8
1971.493621,11193.8
