Ramanshift[cm-1],Intensity
-93.47115107,12551.2
-87.69374369,11364.2
-81.9253076,11271
-76.16582701,11338.4
-70.41528615,11362.6
-64.67366933,11086
-58.94096086,11147.6
-53.21714512,11342.8
-47.50220652,11422.4
-41.79612954,11388.2
-36.09889866,11738.4
-30.41049843,11956.6
-24.73091343,11555.6
-19.0601283,11616.8
-13.39812769,11375.4
-7.744896327,11172.8
-2.100418946,11041.6
3.535319659,11610.8
9.162334658,10999.2
14.78064118,11295.8
20.39025432,11030.4
25.99118913,11029.8
31.58346061,11512.8
37.16708375,11259.2
42.74207347,10909.6
48.30844468,11066
53.86621222,10978
59.41539093,10610
64.95599558,10615
70.48804091,10943.8
76.01154164,10992.6
81.52651243,10537.4
87.03296792,10959.4
92.5309227,11190.2
98.02039134,10673.4
103.5013884,10974.6
108.9739282,10676.2
114.4380255,10751.4
119.8936944,10905
125.3409495,11723.6
130.779805,10649.8
136.2102753,10478.6
141.6323747,10546.2
147.0461174,11048.2
152.4515176,10723.8
157.8485895,10703.8
163.2373472,10516
168.6178049,10759.2
173.9899766,11074.8
179.3538764,10639
184.7095182,10766.6
190.0569161,10913.6
195.396084,11039.4
200.7270358,10536
206.0497854,10606.2
211.3643466,10340.4
216.6707333,10731.4
221.9689593,10363.8
227.2590382,10560.6
232.5409839,10457.4
237.8148101,10473
243.0805303,10553.6
248.3381582,10479.6
253.5877075,10423.2
258.8291917,10512.2
264.0626244,10578.8
269.288019,10646.6
274.5053891,10880
279.7147481,10534.8
284.9161094,10351.4
290.1094865,10496.8
295.2948927,10880.8
300.4723414,11931.8
305.6418459,12349
310.8034194,12924.8
315.9570752,13829.2
321.1028267,14014.6
326.2406869,14048.2
331.370669,14345.6
336.4927863,14374.4
341.6070517,14431.8
346.7134786,14302.8
351.8120798,14604.8
356.9028684,14328.8
361.9858576,14497.4
367.0610602,14905.2
372.1284892,15049.6
377.1881577,16277.4
382.2400784,18221
387.2842644,20173
392.3207284,20398.6
397.3494833,18504.8
402.370542,17080.2
407.3839172,15524.8
412.3896217,14666.8
417.3876683,14096
422.3780697,14028
427.3608386,13951.8
432.3359876,14248.8
437.3035295,14345.4
442.2634769,14445.2
447.2158423,13734.8
452.1606383,13678.4
457.0978776,13981.2
462.0275727,13289.6
466.9497361,13687.6
471.8643802,13303.8
476.7715176,13690.8
481.6711608,13647.6
486.5633221,13974.4
491.448014,13792.4
496.3252488,13769.8
501.195039,13748.6
506.0573969,14113
510.9123349,13877.8
515.7598651,13285
520.6,13756.2
525.4327518,13689.2
530.2581327,13778.2
535.076155,13209
539.8868309,13548.8
544.6901726,13715.2
549.4861922,13433.8
554.2749019,14222.8
559.0563139,13390.2
563.8304402,13153.8
568.597293,14078.6
573.3568844,13804
578.1092263,13403.2
582.8543308,13829.8
587.5922101,13744.2
592.322876,13268
597.0463405,13407.2
601.7626157,13787
606.4717135,13383
611.1736458,13457.2
615.8684246,13482.2
620.5560617,13768.8
625.2365691,13665
629.9099585,14175.6
634.5762419,14677.8
639.2354312,13987.2
643.887538,14094.4
648.5325743,13670.4
653.1705518,13561.2
657.8014823,13834.4
662.4253775,13120.8
667.0422493,13453.6
671.6521092,13401.4
676.2549691,13630.4
680.8508407,13551.6
685.4397355,13394.2
690.0216654,13595.6
694.5966419,13511.8
699.1646767,13981.8
703.7257814,13674.2
708.2799676,13596.8
712.827247,13774.2
717.367631,13542.2
721.9011314,13540.6
726.4277595,12938.6
730.9475271,13528.2
735.4604456,13339.4
739.9665264,13873
744.4657813,13278.4
748.9582215,13418
753.4438587,13006.6
757.9227042,12969.8
762.3947696,13391.4
766.8600662,12906.2
771.3186056,14189.8
775.770399,13231.2
780.215458,13609.2
784.6537939,12977.2
789.0854181,12757.4
793.510342,12940.8
797.9285769,13676
802.3401342,13002
806.7450253,13331
811.1432614,13219.4
815.5348538,13072.2
819.9198139,12865.6
824.2981531,13135.2
828.6698824,13194.2
833.0350133,13018.2
837.393557,12705
841.7455248,13033
846.0909278,12833.8
850.4297774,12638.4
854.7620848,12812.8
859.0878611,13002.2
863.4071176,12468.6
867.7198655,12962.8
872.026116,13073.8
876.3258802,13513
880.6191693,13029.4
884.9059946,13069
889.186367,13521
893.4602979,12498.8
897.7277982,12410.4
901.9888793,12705.4
906.2435521,13127
910.4918277,12666.8
914.7337174,12511.4
918.9692321,12470.8
923.1983831,13161.6
927.4211813,12720.8
931.6376378,13453.4
935.8477637,12922.4
940.0515701,13147.6
944.249068,13066.4
948.4402684,12433.4
952.6251825,13258
956.8038212,12828.4
960.9761955,13466
965.1423166,12995.6
969.3021953,13051.4
973.4558427,13095.6
977.6032699,12951.2
981.7444877,13040.4
985.8795072,12974
990.0083394,13172.4
994.1309953,12940
998.2474857,13609.8
1002.357822,13111
1006.462014,13567.4
1010.560075,12970.8
1014.652013,12943.2
1018.737841,13090.2
1022.81757,12690.8
1026.891209,12606.4
1030.958771,12441
1035.020266,12808.2
1039.075705,12583.6
1043.1251,12360.8
1047.16846,12581
1051.205797,12536
1055.237121,12399.8
1059.262444,12476.2
1063.281777,12580.2
1067.295131,13245.6
1071.302515,15723.6
1075.303942,17030.8
1079.299422,18841.4
1083.288966,17218.4
1087.272585,15044.8
1091.250289,13684.6
1095.222091,13007.4
1099.187999,12413.2
1103.148026,12388.8
1107.102183,12286.2
1111.050479,12505.4
1114.992927,12324
1118.929536,12252
1122.860318,12521.2
1126.785283,12066
1130.704443,11957.8
1134.617808,12750.2
1138.52539,12665.4
1142.427198,12566.4
1146.323244,12779.4
1150.213538,12309.2
1154.098093,12633.4
1157.976917,12148.8
1161.850023,11971.6
1165.717421,12664.2
1169.579121,12435.4
1173.435135,12947.2
1177.285474,12263.2
1181.130148,12368
1184.969169,12535.8
1188.802547,12294.8
1192.630292,11965.2
1196.452416,11792.4
1200.26893,11811
1204.079844,11589.8
1207.88517,11227.2
1211.684917,11829.4
1215.479098,11479.8
1219.267722,12965.4
1223.050801,11616.6
1226.828346,11613.4
1230.600366,11902.8
1234.366874,12006.4
1238.12788,11681.8
1241.883395,11743.4
1245.633429,12013.2
1249.377994,12053.6
1253.1171,11215.4
1256.850759,11717.2
1260.578981,11577.8
1264.301776,11645.2
1268.019157,11601.2
1271.731133,11375.2
1275.437715,11317.4
1279.138915,11777.4
1282.834743,11945.4
1286.52521,11532.6
1290.210328,11392
1293.890106,11564.4
1297.564555,11999.2
1301.233688,11447.6
1304.897514,11611.4
1308.556044,11706.6
1312.209289,11714.8
1315.857261,11282.6
1319.499969,11379.8
1323.137425,12051.8
1326.769641,11557.2
1330.396626,12176.6
1334.018391,11439.2
1337.634948,11644.4
1341.246307,11343.8
1344.85248,11317.8
1348.453477,11183
1352.049309,11270.6
1355.639987,11263
1359.225522,11862.8
1362.805925,11532
1366.381207,11485
1369.951379,11631.2
1373.516452,11623.6
1377.076436,11745.6
1380.631343,11572.2
1384.181184,11472
1387.725969,11641.2
1391.26571,11392.6
1394.800417,11248.8
1398.330102,11425.2
1401.854776,11552.4
1405.374448,11460.4
1408.889132,11068.6
1412.398837,10735.4
1415.903574,11098.8
1419.403355,11678
1422.89819,11345
1426.388091,11255.8
1429.873069,11787.8
1433.353134,11150
1436.828298,11279.8
1440.298571,11469.6
1443.763965,11191.2
1447.224491,11052.6
1450.68016,11068.6
1454.130983,11519
1457.576971,11388.8
1461.018135,11581.4
1464.454486,11632.4
1467.886036,11261
1471.312794,11325.2
1474.734774,11135.4
1478.151985,11762
1481.564439,11556.8
1484.972146,11656.6
1488.375119,11520.6
1491.773368,11856.6
1495.166904,12123.8
1498.555739,11398.2
1501.939883,11392
1505.319349,10965
1508.694146,11285
1512.064286,11301.2
1515.429781,11281.4
1518.790642,11187.8
1522.146879,11222.2
1525.498505,10908.4
1528.845529,10970.2
1532.187965,11630.6
1535.525822,11267.4
1538.859112,11255.8
1542.187846,11870.4
1545.512036,10992
1548.831693,12140.4
1552.146829,11776.8
1555.457453,11055.2
1558.763579,10867.2
1562.065216,11312
1565.362377,11591.2
1568.655073,11894.4
1571.943315,11659.6
1575.227114,11792.8
1578.506482,11907
1581.781431,12624.2
1585.051971,12525.6
1588.318114,12885.4
1591.579872,13016
1594.837255,12989
1598.090275,12566
1601.338945,12130.4
1604.583274,12171.8
1607.823275,11536
1611.058959,11020.8
1614.290338,12082.8
1617.517422,10887
1620.740224,11181.8
1623.958755,10774.2
1627.173027,10917
1630.38305,10567.4
1633.588838,10991.4
1636.7904,10747
1639.987749,10907.4
1643.180896,11077.8
1646.369853,10519.4
1649.554632,11343.6
1652.735244,10746.6
1655.9117,10466.8
1659.084013,10695.8
1662.252193,11274.4
1665.416254,10557.8
1668.576205,10819.6
1671.732059,10999
1674.883828,11087.8
1678.031523,10677.6
1681.175157,10733.6
1684.314739,10765.4
1687.450284,10793.4
1690.581801,10608
1693.709304,10460.4
1696.832803,10512.6
1699.952311,10688
1703.067839,10760.8
1706.179399,10670.8
1709.287003,11070.8
1712.390663,10662
1715.49039,10703.4
1718.586197,11052
1721.678095,10858.4
1724.766096,10883.4
1727.850213,10397.4
1730.930456,10678.4
1734.006838,10532
1737.079372,10843.6
1740.148067,10481.2
1743.212938,11396.2
1746.273996,10672.8
1749.331252,10680.6
1752.384718,10723.8
1755.434408,10690.4
1758.480332,10710.2
1761.522503,10715.2
1764.560933,10547.4
1767.595634,10374
1770.626618,10979.8
1773.653896,10828.8
1776.677482,10519.4
1779.697388,10566.6
1782.713625,10947
1785.726205,11038
1788.735141,11021.8
1791.740445,10668
1794.742129,10479.8
1797.740206,11016.2
1800.734687,11015.2
1803.725585,10797.6
1806.712912,10846.6
1809.69668,10506.4
1812.676902,10535.2
1815.65359,10273.8
1818.626756,10473.8
1821.596413,10616
1824.562573,10259.8
1827.525247,10590.2
1830.48445,10425.8
1833.440192,10548.6
1836.392487,10548
1839.341347,10562.2
1842.286784,10673.6
1845.22881,10210
1848.167439,10698
1851.102682,10547.2
1854.034553,10507.4
1856.963063,10444.8
1859.888226,11199.2
1862.810053,10731.4
1865.728557,10600
1868.643751,10308.6
1871.555648,10284.2
1874.46426,10105.8
1877.369599,10624.8
1880.271679,10482.2
1883.170512,10412
1886.06611,10823.6
1888.958487,10500.4
1891.847655,10514.8
1894.733626,10648
1897.616414,10639.4
1900.496032,10326
1903.372491,10569.6
1906.245805,10824.8
1909.115987,10877.6
1911.983049,10782.4
1914.847004,10729.4
1917.707866,10746.6
1920.565646,10812.6
1923.420359,10487
1926.272016,10723.2
1929.120631,10410.8
1931.966216,10573
1934.808786,10555.2
1937.648351,10763.8
1940.484927,10756.8
1943.318525,10754
1946.149158,11010.8
1948.97684,12014
1951.801584,10982.8
1954.623403,10870
1957.44231,10919.2
1960.258318,10464.8
1963.071439,10555.8
1965.881688,10694
1968.689078,10749.6
1971.493621,10537.8
