Ramanshift[cm-1],Intensity
-93.47115107,13538.8
-87.69374369,12139.4
-81.9253076,12069.4
-76.16582701,12046.8
-70.41528615,12175.2
-64.67366933,11828.8
-58.94096086,11877.8
-53.21714512,12089.6
-47.50220652,12208.8
-41.79612954,12223
-36.09889866,12647.8
-30.41049843,12823
-24.73091343,12333
-19.0601283,12379.4
-13.39812769,12167.4
-7.744896327,11927
-2.100418946,11781.6
3.535319659,12316.8
9.162334658,11790
14.78064118,12168.2
20.39025432,11802.2
25.99118913,11919.2
31.58346061,12270.6
37.16708375,12055.6
42.74207347,11676
48.30844468,11799.4
53.86621222,11692.4
59.41539093,11350.4
64.95599558,11379.8
70.48804091,11623.8
76.01154164,11843.4
81.52651243,11151.2
87.03296792,11669.8
92.5309227,12119.4
98.02039134,11355.6
103.5013884,11610.2
108.9739282,11483.6
114.4380255,11504.4
119.8936944,11749
125.3409495,12583.6
130.779805,11415
136.2102753,11227.8
141.6323747,11296.6
147.0461174,11840.4
152.4515176,11424.4
157.8485895,11351.2
163.2373472,11227.4
168.6178049,11558.6
173.9899766,11859.8
179.3538764,11373.4
184.7095182,11477.6
190.0569161,11601.2
195.396084,11813.8
200.7270358,11243.2
206.0497854,11350.4
211.3643466,11061
216.6707333,11445.2
221.9689593,11033
227.2590382,11257.8
232.5409839,11177.4
237.8148101,11083.4
243.0805303,11262
248.3381582,11284.6
253.5877075,11068
258.8291917,11232.4
264.0626244,11222
269.288019,11458.4
274.5053891,11593
279.7147481,11201.4
284.9161094,10972.6
290.1094865,11178.4
295.2948927,11619.2
300.4723414,12800.6
305.6418459,13313.2
310.8034194,13980.2
315.9570752,14975.4
321.1028267,15128.4
326.2406869,15093.8
331.370669,15318
336.4927863,15323.4
341.6070517,15446.8
346.7134786,15353.8
351.8120798,15496.4
356.9028684,15262.2
361.9858576,15289.4
367.0610602,15701
372.1284892,15430
377.1881577,15856.4
382.2400784,15929.4
387.2842644,16206.8
392.3207284,16699.4
397.3494833,16102
402.370542,16177.8
407.3839172,15529
412.3896217,15169.8
417.3876683,14809.2
422.3780697,14808.4
427.3608386,14935.6
432.3359876,15227.2
437.3035295,15476
442.2634769,15501.6
447.2158423,14708
452.1606383,14879.4
457.0978776,14929
462.0275727,14524.4
466.9497361,14952.4
471.8643802,14441.6
476.7715176,14944.6
481.6711608,14790.8
486.5633221,15083.6
491.448014,14828.6
496.3252488,14838.6
501.195039,14833.2
506.0573969,15187.2
510.9123349,14860.4
515.7598651,14365.6
520.6,14887
525.4327518,14749.6
530.2581327,14870.2
535.076155,14443.6
539.8868309,14745.2
544.6901726,14853.2
549.4861922,14611.6
554.2749019,15469.4
559.0563139,14487.2
563.8304402,14305
568.597293,15308.8
573.3568844,15045.8
578.1092263,14476
582.8543308,14992.6
587.5922101,14913
592.322876,14565.8
597.0463405,14665.6
601.7626157,14957.4
606.4717135,14520
611.1736458,14510.6
615.8684246,14539.8
620.5560617,14875
625.2365691,14485.2
629.9099585,14881.4
634.5762419,15119.4
639.2354312,14581.8
643.887538,14640
648.5325743,14374.4
653.1705518,14536
657.8014823,14808.6
662.4253775,14034
667.0422493,14385.8
671.6521092,14459.2
676.2549691,14616.6
680.8508407,14600.4
685.4397355,14427.2
690.0216654,14501.2
694.5966419,14219.6
699.1646767,14934.4
703.7257814,14558
708.2799676,14727
712.827247,14697.2
717.367631,14597.4
721.9011314,14525
726.4277595,13912
730.9475271,14586.6
735.4604456,14439
739.9665264,14950.8
744.4657813,14508.2
748.9582215,14350.2
753.4438587,14078.6
757.9227042,13975.4
762.3947696,14429
766.8600662,13943.2
771.3186056,15485.2
775.770399,14355.4
780.215458,14685
784.6537939,14056.8
789.0854181,14034.4
793.510342,13983.8
797.9285769,14639.4
802.3401342,13989.8
806.7450253,14198.4
811.1432614,14155
815.5348538,14097.8
819.9198139,13730.2
824.2981531,14006.2
828.6698824,14112.4
833.0350133,14037.2
837.393557,13749
841.7455248,14104.4
846.0909278,13853.2
850.4297774,13769.2
854.7620848,13824.2
859.0878611,14021.2
863.4071176,13446.2
867.7198655,14108.6
872.026116,14291.4
876.3258802,14706.4
880.6191693,14263
884.9059946,14217.2
889.186367,14716.2
893.4602979,13567
897.7277982,13548.8
901.9888793,13977.8
906.2435521,14404.4
910.4918277,13646
914.7337174,13699.8
918.9692321,13534
923.1983831,14151.8
927.4211813,13853.4
931.6376378,14436.8
935.8477637,13907.2
940.0515701,14199
944.249068,14275.2
948.4402684,13500.2
952.6251825,14274.6
956.8038212,13867.6
960.9761955,14601.8
965.1423166,13933.2
969.3021953,13987.6
973.4558427,14048.2
977.6032699,13761
981.7444877,13783.2
985.8795072,13927.4
990.0083394,14059.2
994.1309953,13706
998.2474857,14136.4
1002.357822,13318
1006.462014,13876.8
1010.560075,13603.6
1014.652013,13896.2
1018.737841,14242
1022.81757,13775.6
1026.891209,13632.4
1030.958771,13589
1035.020266,14019.6
1039.075705,13653.4
1043.1251,13374.8
1047.16846,13697.2
1051.205797,13637
1055.237121,13296
1059.262444,13234
1063.281777,12975
1067.295131,13107.2
1071.302515,14288.6
1075.303942,13799.6
1079.299422,14786.2
1083.288966,14192.2
1087.272585,13808.6
1091.250289,13780
1095.222091,13767.4
1099.187999,13385.6
1103.148026,13584.2
1107.102183,13456.4
1111.050479,13594.4
1114.992927,13567.4
1118.929536,13426.6
1122.860318,13591.4
1126.785283,13120.8
1130.704443,12965.6
1134.617808,13771
1138.52539,13539.4
1142.427198,13511.6
1146.323244,13657.6
1150.213538,13356.2
1154.098093,13755
1157.976917,13203.8
1161.850023,13110
1165.717421,13652.4
1169.579121,13363.2
1173.435135,13737.4
1177.285474,12948.4
1181.130148,13080.6
1184.969169,13451
1188.802547,13381.2
1192.630292,13017
1196.452416,12782.6
1200.26893,12830
1204.079844,12565
1207.88517,12358
1211.684917,12926.2
1215.479098,12690.6
1219.267722,14064
1223.050801,12617.2
1226.828346,12724.4
1230.600366,12994
1234.366874,13103.6
1238.12788,12654.4
1241.883395,12754.4
1245.633429,13173.4
1249.377994,13113.6
1253.1171,12251.2
1256.850759,12669.2
1260.578981,12542
1264.301776,12746
1268.019157,12708
1271.731133,12444
1275.437715,12301.8
1279.138915,12760.4
1282.834743,13007.8
1286.52521,12622
1290.210328,12351.4
1293.890106,12609
1297.564555,13081.4
1301.233688,12344.8
1304.897514,12748
1308.556044,12880.2
1312.209289,12837.8
1315.857261,12350.6
1319.499969,12477.4
1323.137425,13182.4
1326.769641,12693.4
1330.396626,13337.6
1334.018391,12655.2
1337.634948,12791.8
1341.246307,12496.6
1344.85248,12485.4
1348.453477,12357.2
1352.049309,12253.6
1355.639987,12266
1359.225522,12903.8
1362.805925,12571.6
1366.381207,12547.6
1369.951379,12610.8
1373.516452,12746.2
1377.076436,12741
1380.631343,12608.2
1384.181184,12457.6
1387.725969,12593.8
1391.26571,12296
1394.800417,12215
1398.330102,12424
1401.854776,12628.2
1405.374448,12508.4
1408.889132,12039.6
1412.398837,11755
1415.903574,12138.6
1419.403355,12694.4
1422.89819,12224
1426.388091,12213.6
1429.873069,12720.8
1433.353134,12159.6
1436.828298,12283.8
1440.298571,12351
1443.763965,12021
1447.224491,12081
1450.68016,12147.8
1454.130983,12530.8
1457.576971,12410.4
1461.018135,12681
1464.454486,12728.4
1467.886036,12249
1471.312794,12333.8
1474.734774,12066.2
1478.151985,12703.8
1481.564439,12473.8
1484.972146,12386.4
1488.375119,12051
1491.773368,12308.2
1495.166904,13008.6
1498.555739,12187.4
1501.939883,12376
1505.319349,11860.4
1508.694146,12250
1512.064286,12306.4
1515.429781,12216.4
1518.790642,12045
1522.146879,12266.8
1525.498505,11818
1528.845529,11924
1532.187965,12554.2
1535.525822,12182.4
1538.859112,12259.4
1542.187846,12782.2
1545.512036,11828.8
1548.831693,13051.8
1552.146829,12678.2
1555.457453,11834
1558.763579,11527.8
1562.065216,12032.8
1565.362377,12265.4
1568.655073,12505.6
1571.943315,12268
1575.227114,12228.4
1578.506482,12325.2
1581.781431,12797.4
1585.051971,12312
1588.318114,12462.8
1591.579872,12358.8
1594.837255,12264.4
1598.090275,12081.8
1601.338945,12149.8
1604.583274,12448
1607.823275,12138
1611.058959,11681.4
1614.290338,12878.4
1617.517422,11579.8
1620.740224,11971.6
1623.958755,11604
1627.173027,11884
1630.38305,11470.6
1633.588838,11969.6
1636.7904,11672.4
1639.987749,11864.6
1643.180896,12052
1646.369853,11492.8
1649.554632,12259.6
1652.735244,11645.6
1655.9117,11344.2
1659.084013,11646.6
1662.252193,12364.2
1665.416254,11461.4
1668.576205,11700
1671.732059,11993.4
1674.883828,12063.4
1678.031523,11645.6
1681.175157,11574.8
1684.314739,11720
1687.450284,11605.6
1690.581801,11419.2
1693.709304,11423.6
1696.832803,11446.6
1699.952311,11630.4
1703.067839,11687.4
1706.179399,11586.2
1709.287003,12164.6
1712.390663,11647.2
1715.49039,11662.6
1718.586197,11997.6
1721.678095,11881.4
1724.766096,11831.6
1727.850213,11329.6
1730.930456,11646.6
1734.006838,11465.2
1737.079372,11863.8
1740.148067,11409.4
1743.212938,12377.8
1746.273996,11658.4
1749.331252,11548.4
1752.384718,11689.8
1755.434408,11670.6
1758.480332,11670.4
1761.522503,11773
1764.560933,11461.8
1767.595634,11225.4
1770.626618,11847.2
1773.653896,11796.4
1776.677482,11472.2
1779.697388,11546
1782.713625,11981.6
1785.726205,11945.4
1788.735141,11935
1791.740445,11481.4
1794.742129,11352.8
1797.740206,11927
1800.734687,11947
1803.725585,11711.4
1806.712912,11787
1809.69668,11471.2
1812.676902,11489.2
1815.65359,11282.4
1818.626756,11336.4
1821.596413,11444.2
1824.562573,11122.6
1827.525247,11452.8
1830.48445,11300.8
1833.440192,11404.6
1836.392487,11404
1839.341347,11661.6
1842.286784,11565
1845.22881,11150.4
1848.167439,11621.8
1851.102682,11451.4
1854.034553,11361.8
1856.963063,11227.6
1859.888226,12126.2
1862.810053,11677.6
1865.728557,11484.6
1868.643751,11189.6
1871.555648,11199.6
1874.46426,11006.8
1877.369599,11601.6
1880.271679,11438.8
1883.170512,11344.6
1886.06611,11702
1888.958487,11419.4
1891.847655,11365.2
1894.733626,11547.8
1897.616414,11551
1900.496032,11148.8
1903.372491,11449.8
1906.245805,11729.2
1909.115987,11751.4
1911.983049,11772.4
1914.847004,11613.8
1917.707866,11790
1920.565646,11709
1923.420359,11360.8
1926.272016,11508.4
1929.120631,11381.8
1931.966216,11495
1934.808786,11423
1937.648351,11704.2
1940.484927,11627
1943.318525,11654.8
1946.149158,11923
1948.97684,12970.4
1951.801584,11804.6
1954.623403,11699.2
1957.44231,11779.2
1960.258318,11312.6
1963.071439,11378.2
1965.881688,11573.8
1968.689078,11659
1971.493621,11487.6
