Ramanshift[cm-1],Intensity
-93.47115107,10364.6
-87.69374369,9503.2
-81.9253076,9354.6
-76.16582701,9468.2
-70.41528615,9430.4
-64.67366933,9364.6
-58.94096086,9298
-53.21714512,9529.8
-47.50220652,9531
-41.79612954,9479.6
-36.09889866,9786
-30.41049843,9916
-24.73091343,9729.4
-19.0601283,9720.6
-13.39812769,9560.2
-7.744896327,9324.2
-2.100418946,9229
3.535319659,9697.8
9.162334658,9290
14.78064118,9452.8
20.39025432,9282.2
25.99118913,9251.4
31.58346061,9658.6
37.16708375,9429.4
42.74207347,9209.2
48.30844468,9364.4
53.86621222,9190.6
59.41539093,8930.6
64.95599558,9022.6
70.48804091,9207.4
76.01154164,9258.4
81.52651243,8905.8
87.03296792,9257
92.5309227,9414.8
98.02039134,8930
103.5013884,9161
108.9739282,9050.8
114.4380255,9081.6
119.8936944,9197
125.3409495,9828.2
130.779805,8976.2
136.2102753,8897.2
141.6323747,8891.6
147.0461174,9271.8
152.4515176,9044
157.8485895,9024
163.2373472,8892.8
168.6178049,9262.2
173.9899766,9450.2
179.3538764,9002.4
184.7095182,9144.2
190.0569161,9316.6
195.396084,9305
200.7270358,8969.6
206.0497854,8993.4
211.3643466,8760.2
216.6707333,9108.6
221.9689593,8899.8
227.2590382,9027.4
232.5409839,8992.6
237.8148101,8888.6
243.0805303,8934.6
248.3381582,8961.4
253.5877075,8819.4
258.8291917,8849.6
264.0626244,8943.2
269.288019,9007
274.5053891,9214
279.7147481,9010.8
284.9161094,8823.4
290.1094865,8848
295.2948927,9128.6
300.4723414,9912.4
305.6418459,10322.4
310.8034194,10729.2
315.9570752,11441.2
321.1028267,11637.2
326.2406869,11755
331.370669,11953.8
336.4927863,11919.2
341.6070517,11969.2
346.7134786,11735.4
351.8120798,12119.6
356.9028684,11895.6
361.9858576,12034
367.0610602,12317
372.1284892,12513.8
377.1881577,13566.2
382.2400784,14986.4
387.2842644,16770.8
392.3207284,17298.6
397.3494833,15894.8
402.370542,14656.8
407.3839172,13543.8
412.3896217,12720.2
417.3876683,11992.6
422.3780697,11902
427.3608386,11885.8
432.3359876,12065.6
437.3035295,12222
442.2634769,12165.6
447.2158423,11555.4
452.1606383,11523.2
457.0978776,11526.4
462.0275727,11052.4
466.9497361,11401.4
471.8643802,10983.4
476.7715176,11312.6
481.6711608,11418.6
486.5633221,11576.8
491.448014,11259.8
496.3252488,11252.4
501.195039,11266.8
506.0573969,11495.6
510.9123349,11364
515.7598651,10909.6
520.6,11255
525.4327518,11204.4
530.2581327,11324
535.076155,10852.6
539.8868309,11140.4
544.6901726,11132.8
549.4861922,10897.4
554.2749019,11474.8
559.0563139,10883.4
563.8304402,10623.2
568.597293,11331
573.3568844,11113.6
578.1092263,10734
582.8543308,10968.6
587.5922101,10979.2
592.322876,10771.8
597.0463405,10860.6
601.7626157,11124.4
606.4717135,10775.8
611.1736458,10771.8
615.8684246,10843
620.5560617,10967
625.2365691,10898.8
629.9099585,11364
634.5762419,11746.2
639.2354312,11402.6
643.887538,11413.4
648.5325743,10983.8
653.1705518,10797.2
657.8014823,11015.4
662.4253775,10502
667.0422493,10652.4
671.6521092,10795.4
676.2549691,10932.2
680.8508407,10898.8
685.4397355,10858.6
690.0216654,10829.8
694.5966419,10826.8
699.1646767,11177.2
703.7257814,11083
708.2799676,11105.4
712.827247,11159.6
717.367631,11030.8
721.9011314,10849.6
726.4277595,10400.8
730.9475271,10859
735.4604456,10771
739.9665264,11160.4
744.4657813,10817.4
748.9582215,10785
753.4438587,10460.6
757.9227042,10353.8
762.3947696,10703.4
766.8600662,10335
771.3186056,11383.8
775.770399,10632.8
780.215458,10894
784.6537939,10383.4
789.0854181,10388.6
793.510342,10580.2
797.9285769,11030.6
802.3401342,10687.4
806.7450253,10801.8
811.1432614,10849
815.5348538,10751
819.9198139,10526
824.2981531,10604.8
828.6698824,10676.4
833.0350133,10533.2
837.393557,10315.6
841.7455248,10480.4
846.0909278,10419.8
850.4297774,10235.6
854.7620848,10278.2
859.0878611,10522.6
863.4071176,10043.4
867.7198655,10542.2
872.026116,10504.4
876.3258802,10890.2
880.6191693,10524.4
884.9059946,10562.2
889.186367,10829
893.4602979,10103.4
897.7277982,10065.4
901.9888793,10389.8
906.2435521,10663.6
910.4918277,10228.2
914.7337174,10216
918.9692321,10288.4
923.1983831,10599
927.4211813,10409.2
931.6376378,11007.8
935.8477637,10607.8
940.0515701,10723.4
944.249068,10783
948.4402684,10232.4
952.6251825,10849.8
956.8038212,10594.2
960.9761955,11092.2
965.1423166,10678.8
969.3021953,10730.8
973.4558427,10776
977.6032699,10651.2
981.7444877,10642.4
985.8795072,10698.2
990.0083394,10723.8
994.1309953,10672.4
998.2474857,11272.2
1002.357822,11124.4
1006.462014,11790
1010.560075,11089
1014.652013,10843.6
1018.737841,10850.6
1022.81757,10491.8
1026.891209,10308.8
1030.958771,10289.2
1035.020266,10583.4
1039.075705,10452.4
1043.1251,10217.2
1047.16846,10460.2
1051.205797,10561.8
1055.237121,10630.4
1059.262444,11093.4
1063.281777,11679.6
1067.295131,13030.8
1071.302515,15857
1075.303942,17430.2
1079.299422,18596.8
1083.288966,16493.6
1087.272585,13793.4
1091.250289,11933.2
1095.222091,11132.2
1099.187999,10540.8
1103.148026,10554.6
1107.102183,10444.6
1111.050479,10527.4
1114.992927,10523.2
1118.929536,10539.2
1122.860318,10912
1126.785283,10729
1130.704443,11143.4
1134.617808,12309.2
1138.52539,12796.6
1142.427198,12889.4
1146.323244,12587.6
1150.213538,11719.4
1154.098093,11698.4
1157.976917,11177.8
1161.850023,11221.6
1165.717421,11684.6
1169.579121,11597.4
1173.435135,11931
1177.285474,11308.6
1181.130148,11317.8
1184.969169,11471
1188.802547,11174
1192.630292,10668
1196.452416,10265.4
1200.26893,10270.4
1204.079844,10028.2
1207.88517,9751.8
1211.684917,10227.8
1215.479098,9971.8
1219.267722,11018.4
1223.050801,9986
1226.828346,9943.8
1230.600366,10012.6
1234.366874,10147
1238.12788,9904.8
1241.883395,10052
1245.633429,10170
1249.377994,10185.4
1253.1171,9587.4
1256.850759,9871.8
1260.578981,9802.6
1264.301776,9890.2
1268.019157,9805.6
1271.731133,9701
1275.437715,9568.2
1279.138915,9977.4
1282.834743,10066.8
1286.52521,9868.4
1290.210328,9837.2
1293.890106,9943.8
1297.564555,10213.2
1301.233688,9819.4
1304.897514,10159.2
1308.556044,10235.2
1312.209289,10242.2
1315.857261,9831.2
1319.499969,9891.6
1323.137425,10402.8
1326.769641,10026.8
1330.396626,10382
1334.018391,10054.2
1337.634948,10102.6
1341.246307,9966.2
1344.85248,9889.6
1348.453477,9835.2
1352.049309,9831.2
1355.639987,10026
1359.225522,10377.4
1362.805925,10202.4
1366.381207,10262.8
1369.951379,10342.2
1373.516452,10374.6
1377.076436,10591
1380.631343,10490.6
1384.181184,10720.4
1387.725969,11117
1391.26571,10930.4
1394.800417,10542.2
1398.330102,10281.8
1401.854776,10192.4
1405.374448,10025.2
1408.889132,9594.8
1412.398837,9493.6
1415.903574,9894.4
1419.403355,10500.4
1422.89819,10566.8
1426.388091,10931.4
1429.873069,11493.6
1433.353134,11185
1436.828298,11148.2
1440.298571,10974.2
1443.763965,10384.4
1447.224491,10095.4
1450.68016,9937.8
1454.130983,10122.2
1457.576971,10009.4
1461.018135,10099.2
1464.454486,10125.2
1467.886036,9896.2
1471.312794,10075.6
1474.734774,9815.8
1478.151985,10152.8
1481.564439,10175.4
1484.972146,10277.2
1488.375119,10084.4
1491.773368,10261
1495.166904,10476
1498.555739,9902
1501.939883,9914.4
1505.319349,9576.2
1508.694146,9797.2
1512.064286,9874.8
1515.429781,9795.2
1518.790642,9727.8
1522.146879,9741.2
1525.498505,9465.6
1528.845529,9598.8
1532.187965,10135
1535.525822,10013
1538.859112,10116.8
1542.187846,10585.8
1545.512036,10134.4
1548.831693,11154.8
1552.146829,10809
1555.457453,10346
1558.763579,10290.4
1562.065216,10699.8
1565.362377,11012.6
1568.655073,11178.2
1571.943315,11194
1575.227114,11326.8
1578.506482,11332.8
1581.781431,11739.8
1585.051971,11696.8
1588.318114,12022.8
1591.579872,12000
1594.837255,11764.4
1598.090275,11318.8
1601.338945,10744.4
1604.583274,10501.6
1607.823275,10022
1611.058959,9533.4
1614.290338,10269.2
1617.517422,9395.4
1620.740224,9559
1623.958755,9413.8
1627.173027,9343.2
1630.38305,9074
1633.588838,9300.6
1636.7904,9118.4
1639.987749,9240.6
1643.180896,9347.4
1646.369853,8954.8
1649.554632,9409
1652.735244,9046
1655.9117,8705.6
1659.084013,9100.2
1662.252193,9392.2
1665.416254,8911.4
1668.576205,9024.2
1671.732059,9211.2
1674.883828,9227.8
1678.031523,8834.6
1681.175157,9008.4
1684.314739,8948
1687.450284,8906.8
1690.581801,8850
1693.709304,8820.8
1696.832803,8789.4
1699.952311,9026.2
1703.067839,9020.2
1706.179399,8914
1709.287003,9154.4
1712.390663,8987.6
1715.49039,8970.6
1718.586197,9188.6
1721.678095,9093.6
1724.766096,9082.2
1727.850213,8721.2
1730.930456,8857
1734.006838,8834.4
1737.079372,9059.4
1740.148067,8739.8
1743.212938,9533
1746.273996,8910
1749.331252,8899.4
1752.384718,9043.6
1755.434408,8902.4
1758.480332,9074.2
1761.522503,9010.4
1764.560933,8939.4
1767.595634,8651
1770.626618,9087.8
1773.653896,9092.2
1776.677482,8902.2
1779.697388,8924.8
1782.713625,9142.2
1785.726205,9184.4
1788.735141,9175.4
1791.740445,8887
1794.742129,8841.4
1797.740206,9087.6
1800.734687,9224.8
1803.725585,9036.4
1806.712912,9033.4
1809.69668,8823.6
1812.676902,8955.8
1815.65359,8669.8
1818.626756,8723.8
1821.596413,8854.4
1824.562573,8654.4
1827.525247,8911.6
1830.48445,8717
1833.440192,8907.4
1836.392487,8815.8
1839.341347,8957.6
1842.286784,8936.6
1845.22881,8635.8
1848.167439,9009.4
1851.102682,8860.2
1854.034553,8853.6
1856.963063,8718
1859.888226,9404.2
1862.810053,8989.6
1865.728557,8774.8
1868.643751,8614.8
1871.555648,8650
1874.46426,8520.6
1877.369599,8921.4
1880.271679,8793.8
1883.170512,8670.8
1886.06611,8977.6
1888.958487,8718.6
1891.847655,8758.8
1894.733626,8907
1897.616414,8896
1900.496032,8586.4
1903.372491,8814.4
1906.245805,9109.2
1909.115987,9083.6
1911.983049,9098.4
1914.847004,9011
1917.707866,9141.4
1920.565646,9059
1923.420359,8832.6
1926.272016,8954.4
1929.120631,8781
1931.966216,8784.2
1934.808786,8827.2
1937.648351,9014
1940.484927,8941.2
1943.318525,9020.2
1946.149158,9150
1948.97684,9856
1951.801584,9103.6
1954.623403,9038.2
1957.44231,9013
1960.258318,8777.6
1963.071439,8737.2
1965.881688,8964.2
1968.689078,8980.2
1971.493621,8897.8
