Ramanshift[cm-1],Intensity
-93.47115107,10573.2
-87.69374369,9800.6
-81.9253076,9622
-76.16582701,9689
-70.41528615,9703.2
-64.67366933,9500
-58.94096086,9451.6
-53.21714512,9726.2
-47.50220652,9758
-41.79612954,9764.4
-36.09889866,10021
-30.41049843,10113.2
-24.73091343,9922
-19.0601283,9876.4
-13.39812769,9745
-7.744896327,9568
-2.100418946,9454
3.535319659,9995
9.162334658,9453.2
14.78064118,9768.6
20.39025432,9519.2
25.99118913,9493.6
31.58346061,9856.8
37.16708375,9791
42.74207347,9424
48.30844468,9520.6
53.86621222,9421.2
59.41539093,9226.2
64.95599558,9219.4
70.48804091,9421
76.01154164,9473.8
81.52651243,9048.2
87.03296792,9424.8
92.5309227,9685.2
98.02039134,9181.2
103.5013884,9419.2
108.9739282,9266.8
114.4380255,9313.6
119.8936944,9367
125.3409495,10088.4
130.779805,9218.4
136.2102753,9021
141.6323747,9045
147.0461174,9532.4
152.4515176,9258.4
157.8485895,9270.8
163.2373472,9174.8
168.6178049,9436.8
173.9899766,9569
179.3538764,9230.2
184.7095182,9266
190.0569161,9506.6
195.396084,9637.2
200.7270358,9192.6
206.0497854,9197.8
211.3643466,8942.2
216.6707333,9352.6
221.9689593,9090
227.2590382,9219.6
232.5409839,9142.4
237.8148101,9098.4
243.0805303,9182.8
248.3381582,9104.4
253.5877075,9037
258.8291917,9064.4
264.0626244,9139.4
269.288019,9342.8
274.5053891,9414
279.7147481,9131.2
284.9161094,9055.4
290.1094865,9144.6
295.2948927,9794.8
300.4723414,11159.8
305.6418459,12326.4
310.8034194,13448.4
315.9570752,14410.2
321.1028267,14779.6
326.2406869,14786.2
331.370669,14907.4
336.4927863,15137.2
341.6070517,15095.8
346.7134786,15215.2
351.8120798,15410.8
356.9028684,15296
361.9858576,15257.8
367.0610602,15534
372.1284892,15405
377.1881577,15801
382.2400784,16376
387.2842644,17112
392.3207284,17768.8
397.3494833,17262.6
402.370542,16729.4
407.3839172,15930
412.3896217,15166.8
417.3876683,14547.2
422.3780697,14456.6
427.3608386,14324.2
432.3359876,14442.4
437.3035295,14481.2
442.2634769,14543.2
447.2158423,14037
452.1606383,14038
457.0978776,14279.8
462.0275727,13713.6
466.9497361,14006.2
471.8643802,13637.2
476.7715176,14040.4
481.6711608,14043.2
486.5633221,14384.6
491.448014,14172.8
496.3252488,14111
501.195039,14020.2
506.0573969,14225.6
510.9123349,13915
515.7598651,13460
520.6,13872.6
525.4327518,13669.8
530.2581327,13778.6
535.076155,13344.6
539.8868309,13623
544.6901726,13754.8
549.4861922,13406.2
554.2749019,14056.6
559.0563139,13450.6
563.8304402,13316.8
568.597293,14006.8
573.3568844,13698.6
578.1092263,13343.6
582.8543308,13659
587.5922101,13551
592.322876,13331
597.0463405,13483
601.7626157,13718.8
606.4717135,13442.6
611.1736458,13289
615.8684246,13432.2
620.5560617,13696.2
625.2365691,13402.2
629.9099585,13658
634.5762419,13856.8
639.2354312,13354.6
643.887538,13448.4
648.5325743,13265.4
653.1705518,13261
657.8014823,13497
662.4253775,12948.2
667.0422493,13212.2
671.6521092,13168.8
676.2549691,13412.6
680.8508407,13373
685.4397355,13107.4
690.0216654,13142
694.5966419,12975.6
699.1646767,13407
703.7257814,13220.8
708.2799676,13266.6
712.827247,13289.8
717.367631,13222.2
721.9011314,13009.2
726.4277595,12626.8
730.9475271,13105.6
735.4604456,12986
739.9665264,13296.2
744.4657813,12886.6
748.9582215,12854.4
753.4438587,12592.4
757.9227042,12446.4
762.3947696,12830.4
766.8600662,12500.8
771.3186056,13414.2
775.770399,12755.6
780.215458,13049.8
784.6537939,12484.8
789.0854181,12478.4
793.510342,12573.2
797.9285769,12978.8
802.3401342,12548.8
806.7450253,12671.6
811.1432614,12531
815.5348538,12352.2
819.9198139,12205
824.2981531,12345
828.6698824,12471.2
833.0350133,12235.2
837.393557,12068.6
841.7455248,12304
846.0909278,12165.2
850.4297774,12083.8
854.7620848,12092.4
859.0878611,12375.2
863.4071176,11873.6
867.7198655,12269.2
872.026116,12463.6
876.3258802,12754
880.6191693,12464
884.9059946,12460.6
889.186367,12816.2
893.4602979,11993
897.7277982,12037
901.9888793,12282.4
906.2435521,12625.6
910.4918277,12132.8
914.7337174,12193
918.9692321,12170.4
923.1983831,12589
927.4211813,12295.2
931.6376378,12989.2
935.8477637,12516.8
940.0515701,12546.4
944.249068,12561.2
948.4402684,11975.4
952.6251825,12542.6
956.8038212,12357.2
960.9761955,12774.8
965.1423166,12415.6
969.3021953,12472.6
973.4558427,12430.8
977.6032699,12317.2
981.7444877,12293.4
985.8795072,12404.2
990.0083394,12421.6
994.1309953,12095
998.2474857,12374.8
1002.357822,11850.8
1006.462014,12367
1010.560075,12131.6
1014.652013,12280.4
1018.737841,12575.4
1022.81757,12230.8
1026.891209,12190.4
1030.958771,12138.8
1035.020266,12354
1039.075705,12147.6
1043.1251,11805.6
1047.16846,11978
1051.205797,12000.8
1055.237121,11931.8
1059.262444,11965
1063.281777,12020.8
1067.295131,12344.2
1071.302515,13689.4
1075.303942,13661.2
1079.299422,14320.4
1083.288966,13539.8
1087.272585,12805.8
1091.250289,12328.6
1095.222091,12187.2
1099.187999,11848.8
1103.148026,11841
1107.102183,11876.2
1111.050479,12060.4
1114.992927,11866.4
1118.929536,11870
1122.860318,12175.4
1126.785283,11886
1130.704443,11840.8
1134.617808,12570
1138.52539,12470.4
1142.427198,12440.6
1146.323244,12326
1150.213538,11983.2
1154.098093,12141.8
1157.976917,11754
1161.850023,11799.2
1165.717421,12164.2
1169.579121,11981
1173.435135,12355.2
1177.285474,11748.2
1181.130148,11905.6
1184.969169,12133
1188.802547,11974
1192.630292,11609.8
1196.452416,11404
1200.26893,11486.4
1204.079844,11298.8
1207.88517,11061.6
1211.684917,11550.4
1215.479098,11172.8
1219.267722,12292.8
1223.050801,11303.2
1226.828346,11359
1230.600366,11527.6
1234.366874,11668
1238.12788,11421
1241.883395,11525
1245.633429,11720.6
1249.377994,11690.6
1253.1171,11027
1256.850759,11463.4
1260.578981,11364
1264.301776,11408.8
1268.019157,11358.6
1271.731133,11179.6
1275.437715,11013.8
1279.138915,11391.8
1282.834743,11603.2
1286.52521,11407.2
1290.210328,11256.2
1293.890106,11368.2
1297.564555,11722.6
1301.233688,11234
1304.897514,11574.2
1308.556044,11662.4
1312.209289,11714.4
1315.857261,11292.8
1319.499969,11465.2
1323.137425,11953.4
1326.769641,11637.2
1330.396626,12080.2
1334.018391,11613.2
1337.634948,11760.8
1341.246307,11631
1344.85248,11530
1348.453477,11552.8
1352.049309,11414.4
1355.639987,11347.2
1359.225522,11707.4
1362.805925,11443.4
1366.381207,11528.4
1369.951379,11440
1373.516452,11557.4
1377.076436,11773.2
1380.631343,11524
1384.181184,11536.4
1387.725969,11660.2
1391.26571,11352.6
1394.800417,11225.4
1398.330102,11291.8
1401.854776,11435.4
1405.374448,11310
1408.889132,10997.6
1412.398837,10706
1415.903574,10971.4
1419.403355,11485.4
1422.89819,11253.2
1426.388091,11165
1429.873069,11636.2
1433.353134,11162.4
1436.828298,11106.6
1440.298571,11235.8
1443.763965,10967.2
1447.224491,10823.6
1450.68016,10841.4
1454.130983,11085.8
1457.576971,11141
1461.018135,11102.6
1464.454486,11171.4
1467.886036,10826.6
1471.312794,10871.4
1474.734774,10648.4
1478.151985,11104.4
1481.564439,10969.2
1484.972146,10927
1488.375119,10559.8
1491.773368,10896.4
1495.166904,11358
1498.555739,10797.2
1501.939883,10716.4
1505.319349,10450.8
1508.694146,10768.2
1512.064286,10861
1515.429781,10754.8
1518.790642,10746.2
1522.146879,10764
1525.498505,10494.8
1528.845529,10404.4
1532.187965,11055
1535.525822,10664.8
1538.859112,10675
1542.187846,11132.4
1545.512036,10504.4
1548.831693,11387.8
1552.146829,11014.6
1555.457453,10447.2
1558.763579,10366.6
1562.065216,10744.8
1565.362377,10963.8
1568.655073,11240
1571.943315,11153
1575.227114,11213
1578.506482,11213.4
1581.781431,11630.2
1585.051971,11448.4
1588.318114,11393.2
1591.579872,11242
1594.837255,11086.4
1598.090275,10753.2
1601.338945,10661.8
1604.583274,10798.2
1607.823275,10569.4
1611.058959,10183.4
1614.290338,11089.2
1617.517422,10171.6
1620.740224,10386.8
1623.958755,10108.8
1627.173027,10176
1630.38305,9830
1633.588838,10155.6
1636.7904,10038.2
1639.987749,10118.6
1643.180896,10293.8
1646.369853,9820.4
1649.554632,10299.6
1652.735244,9962.4
1655.9117,9689
1659.084013,9883.8
1662.252193,10254
1665.416254,9699.6
1668.576205,9882.4
1671.732059,9994.8
1674.883828,10011
1678.031523,9749.8
1681.175157,9723
1684.314739,9816.4
1687.450284,9732.2
1690.581801,9612.8
1693.709304,9447.4
1696.832803,9486.6
1699.952311,9668
1703.067839,9638.8
1706.179399,9577.6
1709.287003,9895.4
1712.390663,9563.2
1715.49039,9585.6
1718.586197,9794.4
1721.678095,9775
1724.766096,9726.6
1727.850213,9271.6
1730.930456,9558.8
1734.006838,9374
1737.079372,9703.2
1740.148067,9378.4
1743.212938,10076.2
1746.273996,9558.8
1749.331252,9554.4
1752.384718,9634.2
1755.434408,9525
1758.480332,9624.6
1761.522503,9646.6
1764.560933,9348.2
1767.595634,9226.4
1770.626618,9638.2
1773.653896,9685.8
1776.677482,9474.4
1779.697388,9394.8
1782.713625,9808.6
1785.726205,9726.8
1788.735141,9722
1791.740445,9424.4
1794.742129,9343.2
1797.740206,9786.8
1800.734687,9799.6
1803.725585,9630
1806.712912,9595.6
1809.69668,9347.6
1812.676902,9506.2
1815.65359,9264.4
1818.626756,9361
1821.596413,9456.2
1824.562573,9164
1827.525247,9341.8
1830.48445,9281.8
1833.440192,9455
1836.392487,9345
1839.341347,9428.6
1842.286784,9516
1845.22881,9145.6
1848.167439,9495.2
1851.102682,9354
1854.034553,9361.6
1856.963063,9305.8
1859.888226,9829.6
1862.810053,9554
1865.728557,9373.8
1868.643751,9137
1871.555648,9152.8
1874.46426,8993
1877.369599,9482
1880.271679,9388.4
1883.170512,9222.8
1886.06611,9519.6
1888.958487,9241.6
1891.847655,9282.4
1894.733626,9455
1897.616414,9409
1900.496032,9054.4
1903.372491,9307.2
1906.245805,9530.2
1909.115987,9537.4
1911.983049,9560.6
1914.847004,9426.8
1917.707866,9598.2
1920.565646,9546.6
1923.420359,9213.2
1926.272016,9431
1929.120631,9259
1931.966216,9247.2
1934.808786,9294.6
1937.648351,9440.4
1940.484927,9404
1943.318525,9627
1946.149158,9604.6
1948.97684,10241.8
1951.801584,9644.6
1954.623403,9478.6
1957.44231,9532
1960.258318,9225
1963.071439,9281.6
1965.881688,9333
1968.689078,9494
1971.493621,9326.8
