Ramanshift[cm-1],Intensity
-93.47115107,10575.6
-87.69374369,9652.2
-81.9253076,9589.8
-76.16582701,9610.2
-70.41528615,9707.6
-64.67366933,9443.8
-58.94096086,9375
-53.21714512,9606.2
-47.50220652,9699.4
-41.79612954,9731.2
-36.09889866,10009.4
-30.41049843,10162.8
-24.73091343,9930.8
-19.0601283,9817.2
-13.39812769,9772.8
-7.744896327,9535.2
-2.100418946,9351.2
3.535319659,9942.2
9.162334658,9427.4
14.78064118,9729.2
20.39025432,9468
25.99118913,9452
31.58346061,9834.4
37.16708375,9675.6
42.74207347,9339.2
48.30844468,9385.2
53.86621222,9365.4
59.41539093,9138.6
64.95599558,9128
70.48804091,9379.8
76.01154164,9471.8
81.52651243,9044.6
87.03296792,9424.8
92.5309227,9629.8
98.02039134,9102
103.5013884,9324
108.9739282,9266.8
114.4380255,9242.6
119.8936944,9364.8
125.3409495,9950
130.779805,9212.6
136.2102753,9025.4
141.6323747,9092.8
147.0461174,9503.8
152.4515176,9197.4
157.8485895,9255.2
163.2373472,9148.4
168.6178049,9437.2
173.9899766,9576
179.3538764,9182.8
184.7095182,9256.2
190.0569161,9469.6
195.396084,9503.6
200.7270358,9197.4
206.0497854,9141.8
211.3643466,8862.6
216.6707333,9341.6
221.9689593,8976
227.2590382,9190.4
232.5409839,9065.6
237.8148101,9020.2
243.0805303,9215.2
248.3381582,9099.8
253.5877075,8983.2
258.8291917,9096.2
264.0626244,9104.2
269.288019,9241.4
274.5053891,9410
279.7147481,9185.4
284.9161094,9027.4
290.1094865,9045.2
295.2948927,9300.4
300.4723414,10054
305.6418459,10368
310.8034194,10771.8
315.9570752,11507.2
321.1028267,11697.6
326.2406869,11642.6
331.370669,11691
336.4927863,11729.4
341.6070517,11825.8
346.7134786,11607.4
351.8120798,11845.2
356.9028684,11771.8
361.9858576,11664.8
367.0610602,11952.2
372.1284892,11815.8
377.1881577,12053.8
382.2400784,12104.8
387.2842644,12494.2
392.3207284,12859.6
397.3494833,12548.8
402.370542,12490
407.3839172,12070
412.3896217,11546.6
417.3876683,11290.4
422.3780697,11428
427.3608386,11377
432.3359876,11645.4
437.3035295,11733.6
442.2634769,11765.4
447.2158423,11299.8
452.1606383,11341
457.0978776,11525.6
462.0275727,11052.4
466.9497361,11465
471.8643802,10994
476.7715176,11438.2
481.6711608,11399.8
486.5633221,11555
491.448014,11347.2
496.3252488,11385.6
501.195039,11355.2
506.0573969,11557.4
510.9123349,11341.4
515.7598651,10902.6
520.6,11372.6
525.4327518,11252.2
530.2581327,11335.6
535.076155,10962.2
539.8868309,11289.8
544.6901726,11305.6
549.4861922,11138.6
554.2749019,11840.8
559.0563139,11147.2
563.8304402,10947
568.597293,11694.6
573.3568844,11515
578.1092263,11150.6
582.8543308,11533.4
587.5922101,11366.8
592.322876,11186
597.0463405,11260.2
601.7626157,11426.6
606.4717135,11099.4
611.1736458,11124.4
615.8684246,11163
620.5560617,11339
625.2365691,11130.6
629.9099585,11475.8
634.5762419,11645.4
639.2354312,11232.8
643.887538,11358.4
648.5325743,11211.6
653.1705518,11086.6
657.8014823,11290.4
662.4253775,10741.4
667.0422493,11073
671.6521092,11016.4
676.2549691,11251
680.8508407,11136.2
685.4397355,11091.8
690.0216654,11086.2
694.5966419,10941.8
699.1646767,11332
703.7257814,11114
708.2799676,11205.6
712.827247,11384
717.367631,11146
721.9011314,11056.6
726.4277595,10634
730.9475271,11211.8
735.4604456,11065.6
739.9665264,11473
744.4657813,11089.6
748.9582215,10984.2
753.4438587,10693.4
757.9227042,10670.4
762.3947696,11021.8
766.8600662,10763.6
771.3186056,11720.4
775.770399,10930.8
780.215458,11271.2
784.6537939,10790.2
789.0854181,10675.2
793.510342,10812.8
797.9285769,11257.4
802.3401342,10928.4
806.7450253,10897.6
811.1432614,10853.4
815.5348538,10858.4
819.9198139,10566.2
824.2981531,10810.4
828.6698824,10883.4
833.0350133,10754
837.393557,10556.6
841.7455248,10834
846.0909278,10645.6
850.4297774,10575.8
854.7620848,10662.4
859.0878611,10808.8
863.4071176,10417.8
867.7198655,10864.6
872.026116,10996.4
876.3258802,11351.4
880.6191693,11065.4
884.9059946,10943.4
889.186367,11353.6
893.4602979,10581.8
897.7277982,10580.2
901.9888793,10932.4
906.2435521,10985.2
910.4918277,10631
914.7337174,10604.8
918.9692321,10620
923.1983831,10956.2
927.4211813,10775.2
931.6376378,11245.6
935.8477637,10945.4
940.0515701,10933.6
944.249068,11010.8
948.4402684,10381.4
952.6251825,11030.2
956.8038212,10801.4
960.9761955,11192
965.1423166,10894.4
969.3021953,10850.8
973.4558427,10896.4
977.6032699,10752.6
981.7444877,10849.4
985.8795072,10720.2
990.0083394,10915.4
994.1309953,10678.6
998.2474857,10868.8
1002.357822,10292.8
1006.462014,10743.4
1010.560075,10541.4
1014.652013,10771.2
1018.737841,10997.8
1022.81757,10700.4
1026.891209,10684
1030.958771,10499.4
1035.020266,10774.8
1039.075705,10520.4
1043.1251,10446.2
1047.16846,10561.2
1051.205797,10518.8
1055.237121,10360.4
1059.262444,10331.2
1063.281777,10187.2
1067.295131,10261.6
1071.302515,11128.8
1075.303942,10862.8
1079.299422,11586.6
1083.288966,11107.8
1087.272585,10763.8
1091.250289,10697.4
1095.222091,10751.2
1099.187999,10471
1103.148026,10583.8
1107.102183,10476.2
1111.050479,10569.2
1114.992927,10588
1118.929536,10565.4
1122.860318,10684.2
1126.785283,10186.4
1130.704443,10203.6
1134.617808,10730.6
1138.52539,10630.4
1142.427198,10576.2
1146.323244,10590.6
1150.213538,10397
1154.098093,10669.2
1157.976917,10247.2
1161.850023,10216.4
1165.717421,10607.4
1169.579121,10297.6
1173.435135,10683.6
1177.285474,10076.4
1181.130148,10143.8
1184.969169,10481.2
1188.802547,10399.2
1192.630292,10154.2
1196.452416,9981
1200.26893,10075.2
1204.079844,9851.6
1207.88517,9629
1211.684917,10117.4
1215.479098,9746.4
1219.267722,10893.8
1223.050801,9877.8
1226.828346,9982.2
1230.600366,10130.6
1234.366874,10258.8
1238.12788,10001
1241.883395,10036
1245.633429,10195
1249.377994,10183.8
1253.1171,9649.4
1256.850759,10035.4
1260.578981,9905.6
1264.301776,9984.8
1268.019157,9944.4
1271.731133,9670
1275.437715,9519.6
1279.138915,10015.6
1282.834743,10100.6
1286.52521,9894
1290.210328,9775.8
1293.890106,9933
1297.564555,10118.8
1301.233688,9777
1304.897514,10077
1308.556044,10092
1312.209289,10096.4
1315.857261,9819.2
1319.499969,9820.2
1323.137425,10268
1326.769641,9942.4
1330.396626,10374.6
1334.018391,9976.2
1337.634948,10082.6
1341.246307,9860.6
1344.85248,9819
1348.453477,9727.4
1352.049309,9699
1355.639987,9703.4
1359.225522,10130.6
1362.805925,9843.4
1366.381207,9867.4
1369.951379,9978
1373.516452,9975.2
1377.076436,10049
1380.631343,9901.6
1384.181184,9741.8
1387.725969,9936
1391.26571,9710.6
1394.800417,9649.6
1398.330102,9727.8
1401.854776,9853.2
1405.374448,9859.2
1408.889132,9521.4
1412.398837,9349.8
1415.903574,9505.4
1419.403355,10016.8
1422.89819,9660
1426.388091,9597
1429.873069,9988.6
1433.353134,9601.8
1436.828298,9625.4
1440.298571,9818.8
1443.763965,9589.2
1447.224491,9533.4
1450.68016,9497.4
1454.130983,9917.2
1457.576971,9846.4
1461.018135,9849.8
1464.454486,9934.8
1467.886036,9670.6
1471.312794,9690.2
1474.734774,9501.6
1478.151985,9911
1481.564439,9728.6
1484.972146,9800.8
1488.375119,9478.6
1491.773368,9712.2
1495.166904,10205.2
1498.555739,9646.2
1501.939883,9765.2
1505.319349,9456
1508.694146,9766.4
1512.064286,9735
1515.429781,9694.8
1518.790642,9565.8
1522.146879,9653.6
1525.498505,9457
1528.845529,9432
1532.187965,9985
1535.525822,9610.4
1538.859112,9631.6
1542.187846,10040
1545.512036,9410.6
1548.831693,10335.4
1552.146829,9843
1555.457453,9308
1558.763579,9189.6
1562.065216,9500.6
1565.362377,9717.8
1568.655073,9862.6
1571.943315,9833.2
1575.227114,9736
1578.506482,9709.8
1581.781431,10108
1585.051971,9818.2
1588.318114,9912.8
1591.579872,9927
1594.837255,9813.2
1598.090275,9652.6
1601.338945,9667
1604.583274,9867.2
1607.823275,9636.8
1611.058959,9358.4
1614.290338,10209.4
1617.517422,9331.8
1620.740224,9545.2
1623.958755,9281.2
1627.173027,9408.4
1630.38305,9089
1633.588838,9444.2
1636.7904,9304.4
1639.987749,9412.8
1643.180896,9559
1646.369853,9033.4
1649.554632,9649.8
1652.735244,9232.4
1655.9117,9057
1659.084013,9241
1662.252193,9790
1665.416254,9174.8
1668.576205,9334.6
1671.732059,9457
1674.883828,9573.6
1678.031523,9153.2
1681.175157,9264
1684.314739,9265.8
1687.450284,9289.2
1690.581801,9174.2
1693.709304,9017.6
1696.832803,9094.8
1699.952311,9332.2
1703.067839,9309.4
1706.179399,9231.8
1709.287003,9530.2
1712.390663,9224
1715.49039,9283.8
1718.586197,9523
1721.678095,9394.2
1724.766096,9397.2
1727.850213,9040.4
1730.930456,9325.8
1734.006838,9096.8
1737.079372,9299
1740.148067,9058.4
1743.212938,9841.6
1746.273996,9266.8
1749.331252,9186.8
1752.384718,9348.4
1755.434408,9210.8
1758.480332,9371
1761.522503,9315.6
1764.560933,9238.6
1767.595634,8903.2
1770.626618,9364.4
1773.653896,9412.4
1776.677482,9180.4
1779.697388,9137
1782.713625,9514.4
1785.726205,9478
1788.735141,9418
1791.740445,9133.8
1794.742129,9153
1797.740206,9488.2
1800.734687,9505
1803.725585,9392.2
1806.712912,9395.4
1809.69668,9097.6
1812.676902,9202
1815.65359,8929.2
1818.626756,9059
1821.596413,9196
1824.562573,8944.2
1827.525247,9180
1830.48445,9064.4
1833.440192,9190.4
1836.392487,9109.4
1839.341347,9211.2
1842.286784,9312.8
1845.22881,8859.2
1848.167439,9367.6
1851.102682,9173.2
1854.034553,9121.8
1856.963063,9042.6
1859.888226,9598
1862.810053,9273
1865.728557,9117.8
1868.643751,8936.4
1871.555648,8996.6
1874.46426,8782.8
1877.369599,9248.2
1880.271679,9114.2
1883.170512,9089.2
1886.06611,9337.4
1888.958487,9032.6
1891.847655,9050
1894.733626,9118.6
1897.616414,9186
1900.496032,8821
1903.372491,9182.4
1906.245805,9418.6
1909.115987,9389.4
1911.983049,9344.4
1914.847004,9225.4
1917.707866,9441
1920.565646,9302
1923.420359,9065.8
1926.272016,9215
1929.120631,9029.8
1931.966216,9203.6
1934.808786,9114.2
1937.648351,9306.4
1940.484927,9183.6
1943.318525,9308.4
1946.149158,9506.8
1948.97684,10139
1951.801584,9375.2
1954.623403,9305.2
1957.44231,9341
1960.258318,9055.8
1963.071439,8956
1965.881688,9215.8
1968.689078,9280
1971.493621,9156.4
