Ramanshift[cm-1],Intensity
-93.47115107,10653
-87.69374369,9864.4
-81.9253076,9665
-76.16582701,9833.2
-70.41528615,9783.2
-64.67366933,9607.2
-58.94096086,9583.8
-53.21714512,9815.4
-47.50220652,9847.2
-41.79612954,9800.4
-36.09889866,10148.8
-30.41049843,10236.2
-24.73091343,9982.4
-19.0601283,10063.8
-13.39812769,9871
-7.744896327,9679
-2.100418946,9539.2
3.535319659,10024.2
9.162334658,9548.2
14.78064118,9859.4
20.39025432,9583.6
25.99118913,9604
31.58346061,10004
37.16708375,9747.8
42.74207347,9521.4
48.30844468,9602.2
53.86621222,9537.4
59.41539093,9279.8
64.95599558,9261.2
70.48804091,9563
76.01154164,9687.2
81.52651243,9202.6
87.03296792,9575.4
92.5309227,9736.8
98.02039134,9321.6
103.5013884,9508.2
108.9739282,9394.6
114.4380255,9321.4
119.8936944,9556
125.3409495,10157.6
130.779805,9314.4
136.2102753,9181.8
141.6323747,9202.2
147.0461174,9588.2
152.4515176,9396.6
157.8485895,9370
163.2373472,9232.8
168.6178049,9528.8
173.9899766,9745.4
179.3538764,9311.8
184.7095182,9421.2
190.0569161,9539.2
195.396084,9708.6
200.7270358,9267
206.0497854,9261.6
211.3643466,9096.2
216.6707333,9395.8
221.9689593,9121.8
227.2590382,9208.4
232.5409839,9246.8
237.8148101,9190.4
243.0805303,9257.8
248.3381582,9224.6
253.5877075,9163.2
258.8291917,9221.6
264.0626244,9280.4
269.288019,9346.6
274.5053891,9468
279.7147481,9323.2
284.9161094,9157.6
290.1094865,9213.2
295.2948927,9620.2
300.4723414,10611.8
305.6418459,11283.6
310.8034194,12041
315.9570752,12829
321.1028267,13038.2
326.2406869,13091.8
331.370669,13143.8
336.4927863,13286.8
341.6070517,13364.4
346.7134786,13295.2
351.8120798,13624.4
356.9028684,13362
361.9858576,13479.2
367.0610602,13743.8
372.1284892,13575.4
377.1881577,14034.2
382.2400784,14524.2
387.2842644,15412
392.3207284,15828.6
397.3494833,15152
402.370542,14889.8
407.3839172,14064.8
412.3896217,13581
417.3876683,13042.6
422.3780697,13005.4
427.3608386,12946.6
432.3359876,13060.4
437.3035295,13257.6
442.2634769,13269.8
447.2158423,12669
452.1606383,12788.8
457.0978776,12893.6
462.0275727,12440.2
466.9497361,12788
471.8643802,12338.2
476.7715176,12824.4
481.6711608,12814.8
486.5633221,13049.8
491.448014,12728.6
496.3252488,12682
501.195039,12706.4
506.0573969,12943.8
510.9123349,12784
515.7598651,12294.4
520.6,12669.2
525.4327518,12591
530.2581327,12655.6
535.076155,12345
539.8868309,12667.2
544.6901726,12733.6
549.4861922,12467.6
554.2749019,13112
559.0563139,12430.2
563.8304402,12251.8
568.597293,12869.8
573.3568844,12708.6
578.1092263,12373.4
582.8543308,12699.8
587.5922101,12617.2
592.322876,12394.2
597.0463405,12457.6
601.7626157,12728.4
606.4717135,12393.8
611.1736458,12392.4
615.8684246,12393
620.5560617,12693.6
625.2365691,12460.2
629.9099585,12716.2
634.5762419,12904.8
639.2354312,12446.4
643.887538,12554.4
648.5325743,12312.2
653.1705518,12380.6
657.8014823,12426.8
662.4253775,12010.8
667.0422493,12241
671.6521092,12256.4
676.2549691,12359.6
680.8508407,12308
685.4397355,12249.2
690.0216654,12381
694.5966419,12092
699.1646767,12576.6
703.7257814,12364.4
708.2799676,12476.6
712.827247,12441.8
717.367631,12299.8
721.9011314,12278
726.4277595,11761.6
730.9475271,12266.8
735.4604456,12106
739.9665264,12446.2
744.4657813,12143.8
748.9582215,11994.6
753.4438587,11760.8
757.9227042,11709.2
762.3947696,12139.4
766.8600662,11734.4
771.3186056,12719.8
775.770399,12031
780.215458,12347.2
784.6537939,11788.6
789.0854181,11830.8
793.510342,11850.2
797.9285769,12273.6
802.3401342,11912.2
806.7450253,11993.2
811.1432614,11965.4
815.5348538,11787.8
819.9198139,11546.6
824.2981531,11743.8
828.6698824,11872.4
833.0350133,11718.4
837.393557,11393
841.7455248,11691.6
846.0909278,11630.8
850.4297774,11475.4
854.7620848,11544.8
859.0878611,11779.8
863.4071176,11370.6
867.7198655,11722.6
872.026116,12014.6
876.3258802,12214.8
880.6191693,11852.8
884.9059946,11891.4
889.186367,12251.4
893.4602979,11378.6
897.7277982,11347
901.9888793,11720.6
906.2435521,11872.4
910.4918277,11596.4
914.7337174,11562.4
918.9692321,11552.2
923.1983831,11970.4
927.4211813,11641.6
931.6376378,12243.6
935.8477637,11851.4
940.0515701,12037.6
944.249068,12074.6
948.4402684,11431
952.6251825,12069.6
956.8038212,11843
960.9761955,12169.6
965.1423166,11860.4
969.3021953,11859
973.4558427,11899
977.6032699,11800.4
981.7444877,11842
985.8795072,11745.4
990.0083394,11878
994.1309953,11544.8
998.2474857,11889.2
1002.357822,11310
1006.462014,11669.6
1010.560075,11456
1014.652013,11640
1018.737841,11884.2
1022.81757,11498
1026.891209,11453.2
1030.958771,11310.6
1035.020266,11741.6
1039.075705,11424.2
1043.1251,11182.6
1047.16846,11390.4
1051.205797,11437.8
1055.237121,11159.6
1059.262444,11328.2
1063.281777,11236.2
1067.295131,11571.6
1071.302515,12782.4
1075.303942,12812.8
1079.299422,13445.8
1083.288966,12690
1087.272585,12215.4
1091.250289,11696.8
1095.222091,11660
1099.187999,11339.4
1103.148026,11375.6
1107.102183,11255
1111.050479,11401.2
1114.992927,11305.8
1118.929536,11171.2
1122.860318,11477.8
1126.785283,11183.6
1130.704443,11206.4
1134.617808,11779.6
1138.52539,11812.2
1142.427198,11717.2
1146.323244,11590.2
1150.213538,11362.8
1154.098093,11530.2
1157.976917,11170
1161.850023,11073
1165.717421,11500.8
1169.579121,11240.4
1173.435135,11504.4
1177.285474,11076.6
1181.130148,11327.6
1184.969169,11520.4
1188.802547,11374.6
1192.630292,10929.4
1196.452416,10734.4
1200.26893,10817.4
1204.079844,10651
1207.88517,10424.6
1211.684917,10820.2
1215.479098,10561.6
1219.267722,11649.2
1223.050801,10687.4
1226.828346,10561.4
1230.600366,10800
1234.366874,10962.6
1238.12788,10680
1241.883395,10847.6
1245.633429,11020.2
1249.377994,10909
1253.1171,10406
1256.850759,10763.8
1260.578981,10687.6
1264.301776,10689.4
1268.019157,10662.4
1271.731133,10395.6
1275.437715,10245
1279.138915,10716.2
1282.834743,10813.4
1286.52521,10546.8
1290.210328,10442
1293.890106,10527.8
1297.564555,10940.6
1301.233688,10425.8
1304.897514,10793.6
1308.556044,10920.4
1312.209289,10795.2
1315.857261,10275.6
1319.499969,10427.6
1323.137425,11011.6
1326.769641,10749
1330.396626,11010.2
1334.018391,10621.4
1337.634948,10757.6
1341.246307,10577.2
1344.85248,10497.2
1348.453477,10436.4
1352.049309,10397
1355.639987,10433.8
1359.225522,10765
1362.805925,10560.6
1366.381207,10543.6
1369.951379,10695.8
1373.516452,10651.2
1377.076436,10757.8
1380.631343,10686.6
1384.181184,10573.4
1387.725969,10759
1391.26571,10474.2
1394.800417,10352.4
1398.330102,10527
1401.854776,10594.2
1405.374448,10433.6
1408.889132,10203
1412.398837,10027
1415.903574,10226.6
1419.403355,10680.2
1422.89819,10489.4
1426.388091,10438.4
1429.873069,10941.6
1433.353134,10486.4
1436.828298,10436.2
1440.298571,10618
1443.763965,10255.6
1447.224491,10131.8
1450.68016,10068.6
1454.130983,10385.2
1457.576971,10373.6
1461.018135,10444.4
1464.454486,10574.8
1467.886036,10221.2
1471.312794,10255.8
1474.734774,10045.4
1478.151985,10469.8
1481.564439,10377.6
1484.972146,10405.2
1488.375119,10017.8
1491.773368,10356
1495.166904,10747
1498.555739,10184.2
1501.939883,10269.8
1505.319349,9859.8
1508.694146,10214.6
1512.064286,10244.2
1515.429781,10239.2
1518.790642,10172
1522.146879,10243
1525.498505,9960.6
1528.845529,9892.4
1532.187965,10448
1535.525822,10096
1538.859112,10116.2
1542.187846,10531.4
1545.512036,9851.4
1548.831693,10865.6
1552.146829,10437
1555.457453,9932.8
1558.763579,9795.4
1562.065216,10164.6
1565.362377,10355
1568.655073,10526.4
1571.943315,10513.8
1575.227114,10584.6
1578.506482,10566
1581.781431,10985.8
1585.051971,10820.8
1588.318114,10927.8
1591.579872,10812.4
1594.837255,10547.2
1598.090275,10319.4
1601.338945,10140.8
1604.583274,10359.2
1607.823275,10085.4
1611.058959,9692.4
1614.290338,10604.8
1617.517422,9665
1620.740224,9931.4
1623.958755,9741.8
1627.173027,9726.2
1630.38305,9473.8
1633.588838,9767.4
1636.7904,9632
1639.987749,9745.2
1643.180896,9897.8
1646.369853,9493.6
1649.554632,10078.2
1652.735244,9610.2
1655.9117,9302.6
1659.084013,9626.4
1662.252193,10083.2
1665.416254,9486.2
1668.576205,9602.6
1671.732059,9771.2
1674.883828,9830
1678.031523,9543.4
1681.175157,9584.2
1684.314739,9634.2
1687.450284,9595.8
1690.581801,9431
1693.709304,9371.2
1696.832803,9308.6
1699.952311,9528.2
1703.067839,9527.6
1706.179399,9535.6
1709.287003,9781
1712.390663,9495.4
1715.49039,9566
1718.586197,9776.8
1721.678095,9675.2
1724.766096,9738.8
1727.850213,9279.2
1730.930456,9500.8
1734.006838,9356.6
1737.079372,9707.6
1740.148067,9368.6
1743.212938,10143
1746.273996,9529.6
1749.331252,9487.8
1752.384718,9580.4
1755.434408,9521.8
1758.480332,9554.6
1761.522503,9560
1764.560933,9513.4
1767.595634,9143
1770.626618,9646.4
1773.653896,9694.8
1776.677482,9391.6
1779.697388,9398.6
1782.713625,9767.6
1785.726205,9747.6
1788.735141,9660
1791.740445,9315.2
1794.742129,9306.4
1797.740206,9641.2
1800.734687,9727
1803.725585,9503.2
1806.712912,9574.6
1809.69668,9350.6
1812.676902,9435
1815.65359,9178
1818.626756,9328.8
1821.596413,9396.2
1824.562573,9130.8
1827.525247,9321.8
1830.48445,9232
1833.440192,9408.2
1836.392487,9281.6
1839.341347,9454.6
1842.286784,9450.6
1845.22881,9101.4
1848.167439,9480.8
1851.102682,9287.6
1854.034553,9387.4
1856.963063,9173.2
1859.888226,9829.2
1862.810053,9470
1865.728557,9296
1868.643751,9138.2
1871.555648,9137.4
1874.46426,8993.4
1877.369599,9421.8
1880.271679,9329
1883.170512,9168.6
1886.06611,9570.2
1888.958487,9269
1891.847655,9187.8
1894.733626,9390.6
1897.616414,9456.8
1900.496032,9136.4
1903.372491,9316.8
1906.245805,9516
1909.115987,9631
1911.983049,9571
1914.847004,9432
1917.707866,9593.8
1920.565646,9464
1923.420359,9284.8
1926.272016,9454.2
1929.120631,9248.4
1931.966216,9236.4
1934.808786,9206
1937.648351,9501.4
1940.484927,9462.8
1943.318525,9427.4
1946.149158,9636
1948.97684,10316
1951.801584,9623.6
1954.623403,9409.2
1957.44231,9440.6
1960.258318,9214.2
1963.071439,9242.6
1965.881688,9346.4
1968.689078,9438.2
1971.493621,9246
