Ramanshift[cm-1],Intensity
-93.47115107,10173
-87.69374369,9317.8
-81.9253076,9339.4
-76.16582701,9308.6
-70.41528615,9345
-64.67366933,9207.8
-58.94096086,9118
-53.21714512,9372.2
-47.50220652,9456
-41.79612954,9321.8
-36.09889866,9718.2
-30.41049843,9761
-24.73091343,9475.2
-19.0601283,9605
-13.39812769,9393.2
-7.744896327,9303.2
-2.100418946,9133.2
3.535319659,9567.8
9.162334658,9147.4
14.78064118,9392.8
20.39025432,9086
25.99118913,9163.4
31.58346061,9506
37.16708375,9307
42.74207347,9051.6
48.30844468,9207.4
53.86621222,9102.8
59.41539093,8856
64.95599558,8771.8
70.48804091,9102.4
76.01154164,9214
81.52651243,8725.6
87.03296792,9077.6
92.5309227,9280.6
98.02039134,8859.8
103.5013884,9095.6
108.9739282,8954.4
114.4380255,8952.2
119.8936944,9102.2
125.3409495,9584
130.779805,8926
136.2102753,8755.4
141.6323747,8754.6
147.0461174,9170.6
152.4515176,8991.8
157.8485895,8961.2
163.2373472,8856.8
168.6178049,9089.6
173.9899766,9277.6
179.3538764,8867.4
184.7095182,8938
190.0569161,9166.4
195.396084,9224.6
200.7270358,8819.8
206.0497854,8831.8
211.3643466,8664.6
216.6707333,8928.6
221.9689593,8769
227.2590382,8841.8
232.5409839,8849.8
237.8148101,8744.6
243.0805303,8766
248.3381582,8868.2
253.5877075,8670.2
258.8291917,8787.6
264.0626244,8813.8
269.288019,8989
274.5053891,9138.2
279.7147481,8920.8
284.9161094,9005.8
290.1094865,9623
295.2948927,11771.2
300.4723414,16906
305.6418459,23564.6
310.8034194,29528
315.9570752,33070
321.1028267,34179.2
326.2406869,34871.2
331.370669,35689.4
336.4927863,36328.2
341.6070517,36617.8
346.7134786,36686.2
351.8120798,37146.8
356.9028684,37327.4
361.9858576,37525
367.0610602,38225.8
372.1284892,39414.2
377.1881577,43159.6
382.2400784,49709.4
387.2842644,56562
392.3207284,57625.6
397.3494833,53089.6
402.370542,48197.6
407.3839172,44462
412.3896217,41376.6
417.3876683,38704.2
422.3780697,37355.6
427.3608386,35928.8
432.3359876,35357.6
437.3035295,34848.2
442.2634769,34302.6
447.2158423,33083.4
452.1606383,32774.6
457.0978776,32945.2
462.0275727,33757
466.9497361,34593.6
471.8643802,33419.4
476.7715176,34587
481.6711608,35757.8
486.5633221,36195
491.448014,35270.2
496.3252488,34167
501.195039,32865.4
506.0573969,32165.6
510.9123349,31431.2
515.7598651,30569.6
520.6,30562.6
525.4327518,30291.4
530.2581327,30315.8
535.076155,29880.8
539.8868309,30798.6
544.6901726,30595.8
549.4861922,29171.2
554.2749019,28840.8
559.0563139,27977.8
563.8304402,27669.4
568.597293,28459.8
573.3568844,28264.6
578.1092263,27853.6
582.8543308,28139
587.5922101,28059.6
592.322876,27663.6
597.0463405,27624.6
601.7626157,27986.6
606.4717135,27553
611.1736458,27658
615.8684246,27327
620.5560617,27918.6
625.2365691,28234.8
629.9099585,29875.4
634.5762419,30615.8
639.2354312,30453.4
643.887538,29497
648.5325743,28098.8
653.1705518,27078.4
657.8014823,26714.6
662.4253775,26257
667.0422493,26647.4
671.6521092,26384
676.2549691,26210.4
680.8508407,26065.2
685.4397355,26104
690.0216654,26580.4
694.5966419,26952
699.1646767,28150
703.7257814,28527.4
708.2799676,29273.8
712.827247,30335.8
717.367631,29654.2
721.9011314,28055
726.4277595,26556.4
730.9475271,26176
735.4604456,25969.4
739.9665264,26224.6
744.4657813,26032.8
748.9582215,25495.4
753.4438587,25058.6
757.9227042,24541.6
762.3947696,24747.6
766.8600662,24328.4
771.3186056,25253.6
775.770399,24394.2
780.215458,24657.8
784.6537939,24412
789.0854181,24710.2
793.510342,25135.4
797.9285769,26305.6
802.3401342,26556.6
806.7450253,26972.4
811.1432614,27084
815.5348538,26885.8
819.9198139,26140.6
824.2981531,25738.4
828.6698824,25254
833.0350133,24413.8
837.393557,23779.8
841.7455248,23701
846.0909278,23247
850.4297774,23233.6
854.7620848,23071.4
859.0878611,23345
863.4071176,22867.4
867.7198655,23095.4
872.026116,23332.8
876.3258802,23647.6
880.6191693,23371.8
884.9059946,23386.2
889.186367,23875.2
893.4602979,23193.6
897.7277982,23114.2
901.9888793,23924.8
906.2435521,24732.4
910.4918277,24933.6
914.7337174,25825.4
918.9692321,26331.2
923.1983831,26522.8
927.4211813,26093.6
931.6376378,26571.8
935.8477637,26495
940.0515701,27042
944.249068,27372
948.4402684,26627.6
952.6251825,27208.6
956.8038212,26935.6
960.9761955,27576.4
965.1423166,27100.4
969.3021953,27111
973.4558427,27275
977.6032699,27237.4
981.7444877,27085.2
985.8795072,26999
990.0083394,27383
994.1309953,28011.8
998.2474857,30180.4
1002.357822,32728.2
1006.462014,35260.8
1010.560075,32488.6
1014.652013,28789.2
1018.737841,27202.8
1022.81757,26136.2
1026.891209,25975.8
1030.958771,26213.2
1035.020266,26887.8
1039.075705,27643.6
1043.1251,28452.4
1047.16846,30033.4
1051.205797,31916
1055.237121,35959.2
1059.262444,43064.2
1063.281777,54954
1067.295131,64157.2
1071.302515,64163.8
1075.303942,64194.8
1079.299422,64300.8
1083.288966,62703
1087.272585,48003.6
1091.250289,37847.4
1095.222091,33431.8
1099.187999,30678.2
1103.148026,30074.6
1107.102183,30589.6
1111.050479,31683
1114.992927,33886
1118.929536,37156.2
1122.860318,43671.8
1126.785283,53221
1130.704443,64158.8
1134.617808,64155.6
1138.52539,64161.4
1142.427198,64185.6
1146.323244,64265.2
1150.213538,64078.2
1154.098093,54574.6
1157.976917,45947
1161.850023,41718.6
1165.717421,40711.4
1169.579121,39828
1173.435135,39592.8
1177.285474,39147
1181.130148,40755.2
1184.969169,42356.8
1188.802547,41692.4
1192.630292,38276.6
1196.452416,34025.8
1200.26893,31147.6
1204.079844,29411.8
1207.88517,28338.2
1211.684917,28555.2
1215.479098,27999.8
1219.267722,29123
1223.050801,27593.4
1226.828346,27408.8
1230.600366,27149.4
1234.366874,26904.6
1238.12788,26680.2
1241.883395,26647.8
1245.633429,26704.6
1249.377994,26755.6
1253.1171,26245.6
1256.850759,26204
1260.578981,25885.2
1264.301776,25741.6
1268.019157,25338.8
1271.731133,25095.2
1275.437715,25098.8
1279.138915,25608.8
1282.834743,25903.4
1286.52521,26067.6
1290.210328,26838.2
1293.890106,28217.8
1297.564555,29947.4
1301.233688,29939.4
1304.897514,29603.8
1308.556044,29137
1312.209289,28468.8
1315.857261,27525
1319.499969,27253
1323.137425,27524.8
1326.769641,27040.4
1330.396626,27323.2
1334.018391,27259.8
1337.634948,27805.4
1341.246307,28206
1344.85248,28790.4
1348.453477,29293.4
1352.049309,30074.6
1355.639987,30765.8
1359.225522,31636.2
1362.805925,31811.2
1366.381207,32577.2
1369.951379,33784.6
1373.516452,35370.2
1377.076436,37615
1380.631343,41873.2
1384.181184,48131
1387.725969,54422.6
1391.26571,55339.6
1394.800417,49039.2
1398.330102,40135.8
1401.854776,34117.6
1405.374448,31118
1408.889132,30066.2
1412.398837,30688.8
1415.903574,33320.4
1419.403355,38613.6
1422.89819,45623.6
1426.388091,54582.6
1429.873069,63674.8
1433.353134,64171.8
1436.828298,64218.6
1440.298571,64368.2
1443.763965,61503.2
1447.224491,52525.2
1450.68016,44021.6
1454.130983,37991.4
1457.576971,34084.4
1461.018135,32395.2
1464.454486,32372.8
1467.886036,33120.2
1471.312794,33813.4
1474.734774,31883.6
1478.151985,29414.6
1481.564439,27239
1484.972146,26345
1488.375119,25638.4
1491.773368,25404
1495.166904,24916.6
1498.555739,23822.4
1501.939883,23624.2
1505.319349,23287.2
1508.694146,23642.8
1512.064286,23565.2
1515.429781,23463
1518.790642,23348.4
1522.146879,23554.8
1525.498505,23616.2
1528.845529,23983
1532.187965,25314.4
1535.525822,25715.4
1538.859112,26498
1542.187846,27673.8
1545.512036,28008.2
1548.831693,30049.4
1552.146829,31021.6
1555.457453,32220
1558.763579,33697
1562.065216,36226
1565.362377,38209.2
1568.655073,40437.4
1571.943315,41984.8
1575.227114,42538
1578.506482,41558.8
1581.781431,40002.4
1585.051971,38054.6
1588.318114,36545.4
1591.579872,33866.6
1594.837255,30607.8
1598.090275,27502
1601.338945,24815.6
1604.583274,23179.6
1607.823275,21564.4
1611.058959,20530
1614.290338,20593.4
1617.517422,19209.8
1620.740224,19026.8
1623.958755,18338.8
1627.173027,17877
1630.38305,17335
1633.588838,17016
1636.7904,16791.4
1639.987749,16451.8
1643.180896,16320
1646.369853,15545.4
1649.554632,15814.6
1652.735244,15093
1655.9117,14625
1659.084013,14579.4
1662.252193,14961.2
1665.416254,14245.2
1668.576205,14381.6
1671.732059,14447.4
1674.883828,14445.6
1678.031523,13981.6
1681.175157,14055.2
1684.314739,13937
1687.450284,13822.6
1690.581801,13636.8
1693.709304,13570.8
1696.832803,13437.2
1699.952311,13638.2
1703.067839,13613.6
1706.179399,13515.8
1709.287003,13577
1712.390663,13369
1715.49039,13387.6
1718.586197,13561.4
1721.678095,13316.8
1724.766096,13306
1727.850213,12868.8
1730.930456,13109.6
1734.006838,12950.4
1737.079372,13106
1740.148067,12793.4
1743.212938,13423.8
1746.273996,12828.2
1749.331252,12654
1752.384718,12846.6
1755.434408,12753.2
1758.480332,12681.8
1761.522503,12748.8
1764.560933,12546.2
1767.595634,12232
1770.626618,12720.6
1773.653896,12637.6
1776.677482,12334
1779.697388,12352.4
1782.713625,12628.8
1785.726205,12660.4
1788.735141,12546.4
1791.740445,12291.2
1794.742129,12220
1797.740206,12563.8
1800.734687,12494.8
1803.725585,12351.8
1806.712912,12436.8
1809.69668,12110.4
1812.676902,12202.8
1815.65359,11919.8
1818.626756,12038.2
1821.596413,12093
1824.562573,11780.2
1827.525247,12044.2
1830.48445,11998
1833.440192,12104.8
1836.392487,11979.6
1839.341347,12001.8
1842.286784,12133.4
1845.22881,11665
1848.167439,12091.2
1851.102682,11959.6
1854.034553,11951.6
1856.963063,11831.4
1859.888226,12338.8
1862.810053,12083.2
1865.728557,11880
1868.643751,11692.8
1871.555648,11672.8
1874.46426,11487.2
1877.369599,11848.8
1880.271679,11730
1883.170512,11696.2
1886.06611,11840.6
1888.958487,11637.8
1891.847655,11572.6
1894.733626,11721
1897.616414,11798.8
1900.496032,11430.6
1903.372491,11650.2
1906.245805,11799.4
1909.115987,11892.2
1911.983049,11846.2
1914.847004,11695
1917.707866,11941.4
1920.565646,11745.4
1923.420359,11490.2
1926.272016,11678.2
1929.120631,11544.4
1931.966216,11491.2
1934.808786,11422.2
1937.648351,11693.4
1940.484927,11537.6
1943.318525,11611.8
1946.149158,11680.2
1948.97684,12445.8
1951.801584,11684
1954.623403,11637.6
1957.44231,11630.6
1960.258318,11384.4
1963.071439,11314
1965.881688,11392.4
1968.689078,11581.6
1971.493621,11323.4
