Ramanshift[cm-1],Intensity
-93.47115107,10826.2
-87.69374369,9919
-81.9253076,9710.6
-76.16582701,9874.8
-70.41528615,9880.6
-64.67366933,9688.8
-58.94096086,9699.4
-53.21714512,9932.6
-47.50220652,10049.4
-41.79612954,9878.6
-36.09889866,10303.8
-30.41049843,10460.6
-24.73091343,10118.2
-19.0601283,10087
-13.39812769,9914.8
-7.744896327,9741.6
-2.100418946,9659.6
3.535319659,10023.4
9.162334658,9658
14.78064118,9869.6
20.39025432,9656.8
25.99118913,9761
31.58346061,10076.6
37.16708375,9854.2
42.74207347,9698.8
48.30844468,9654.8
53.86621222,9596.4
59.41539093,9329.4
64.95599558,9343.8
70.48804091,9598
76.01154164,9709.4
81.52651243,9267.2
87.03296792,9635.8
92.5309227,9803
98.02039134,9364.4
103.5013884,9585.6
108.9739282,9481
114.4380255,9440.6
119.8936944,9547.6
125.3409495,10269.2
130.779805,9375
136.2102753,9242.6
141.6323747,9306.4
147.0461174,9690.2
152.4515176,9463.4
157.8485895,9478.4
163.2373472,9301.2
168.6178049,9644.4
173.9899766,9847.2
179.3538764,9417.2
184.7095182,9447.8
190.0569161,9672.4
195.396084,9767
200.7270358,9271.8
206.0497854,9353.4
211.3643466,9170.8
216.6707333,9424.4
221.9689593,9143.2
227.2590382,9329.6
232.5409839,9287.4
237.8148101,9241.6
243.0805303,9357.6
248.3381582,9289.8
253.5877075,9197
258.8291917,9348.4
264.0626244,9362.2
269.288019,9428.8
274.5053891,9579.4
279.7147481,9304.4
284.9161094,9197.6
290.1094865,9239.2
295.2948927,9530.4
300.4723414,10421.4
305.6418459,10659.2
310.8034194,11182.8
315.9570752,11854.4
321.1028267,11979.2
326.2406869,12002.4
331.370669,12048
336.4927863,12019
341.6070517,12034.2
346.7134786,12007.2
351.8120798,12107.6
356.9028684,11971.6
361.9858576,12007.6
367.0610602,12299.4
372.1284892,12102.4
377.1881577,12376.4
382.2400784,12605
387.2842644,12808.6
392.3207284,13162
397.3494833,12839
402.370542,12830.8
407.3839172,12334.4
412.3896217,11956.2
417.3876683,11620.2
422.3780697,11690.2
427.3608386,11775
432.3359876,11960.2
437.3035295,12078.6
442.2634769,12150.4
447.2158423,11595.8
452.1606383,11717
457.0978776,11776
462.0275727,11379.6
466.9497361,11711.2
471.8643802,11236
476.7715176,11710.8
481.6711608,11613.4
486.5633221,11903
491.448014,11616.2
496.3252488,11617.8
501.195039,11610
506.0573969,11931.2
510.9123349,11654.8
515.7598651,11228.2
520.6,11574.6
525.4327518,11616.4
530.2581327,11717.4
535.076155,11361.4
539.8868309,11577.6
544.6901726,11593.4
549.4861922,11524.2
554.2749019,12258.4
559.0563139,11696.6
563.8304402,11395
568.597293,12147.4
573.3568844,11750
578.1092263,11549
582.8543308,11755.4
587.5922101,11675.2
592.322876,11404
597.0463405,11523.6
601.7626157,11734.4
606.4717135,11416
611.1736458,11347.8
615.8684246,11427.2
620.5560617,11635.8
625.2365691,11394.4
629.9099585,11729
634.5762419,11856.6
639.2354312,11494.6
643.887538,11640
648.5325743,11406
653.1705518,11411.2
657.8014823,11534.8
662.4253775,11085.8
667.0422493,11294.6
671.6521092,11342.8
676.2549691,11424.4
680.8508407,11429.4
685.4397355,11334.8
690.0216654,11446.8
694.5966419,11247
699.1646767,11641.6
703.7257814,11469.2
708.2799676,11520.4
712.827247,11540.4
717.367631,11433.4
721.9011314,11391.4
726.4277595,10876.6
730.9475271,11389.6
735.4604456,11331.8
739.9665264,11715.6
744.4657813,11305
748.9582215,11232.2
753.4438587,10918.6
757.9227042,10901.6
762.3947696,11353.4
766.8600662,10935.4
771.3186056,11962.8
775.770399,11247.8
780.215458,11555.8
784.6537939,11097
789.0854181,11075.8
793.510342,11050.4
797.9285769,11552.4
802.3401342,11043.4
806.7450253,11221.6
811.1432614,11142.2
815.5348538,11028
819.9198139,10900.2
824.2981531,11071.8
828.6698824,11197.6
833.0350133,11052.2
837.393557,10792.2
841.7455248,11076.4
846.0909278,10929.2
850.4297774,10837.8
854.7620848,10902.8
859.0878611,11243.8
863.4071176,10649.4
867.7198655,11133.8
872.026116,11322.8
876.3258802,11590.6
880.6191693,11211.2
884.9059946,11160.8
889.186367,11663.4
893.4602979,10729.8
897.7277982,10756.2
901.9888793,11058.4
906.2435521,11283.2
910.4918277,10798.8
914.7337174,10963.8
918.9692321,10788
923.1983831,11201.8
927.4211813,10970.6
931.6376378,11620.6
935.8477637,11203
940.0515701,11229.2
944.249068,11359.8
948.4402684,10713.8
952.6251825,11274
956.8038212,11116.4
960.9761955,11550.4
965.1423166,11163
969.3021953,11177
973.4558427,11117.8
977.6032699,11033
981.7444877,11158.2
985.8795072,11028.8
990.0083394,11173.6
994.1309953,10924
998.2474857,11268.2
1002.357822,10539.4
1006.462014,11001.8
1010.560075,10774
1014.652013,10999.4
1018.737841,11238.6
1022.81757,10874.2
1026.891209,10882.8
1030.958771,10786.6
1035.020266,11079.4
1039.075705,10736.6
1043.1251,10659.8
1047.16846,10811.2
1051.205797,10712.4
1055.237121,10557.4
1059.262444,10592.6
1063.281777,10498
1067.295131,10606
1071.302515,11578.2
1075.303942,11333.8
1079.299422,11883.2
1083.288966,11438.4
1087.272585,11088.4
1091.250289,10927.4
1095.222091,10928
1099.187999,10754.2
1103.148026,10740.2
1107.102183,10630.2
1111.050479,10735.2
1114.992927,10720.2
1118.929536,10696.2
1122.860318,10983.6
1126.785283,10572
1130.704443,10512.2
1134.617808,11061.2
1138.52539,10936.4
1142.427198,10937.2
1146.323244,11009.6
1150.213538,10662
1154.098093,10931.4
1157.976917,10521.6
1161.850023,10486.6
1165.717421,10904.8
1169.579121,10564.6
1173.435135,10950.4
1177.285474,10361.2
1181.130148,10390.8
1184.969169,10775
1188.802547,10628.4
1192.630292,10274.4
1196.452416,10201.4
1200.26893,10330.2
1204.079844,10145.6
1207.88517,9867.8
1211.684917,10340.6
1215.479098,9968
1219.267722,11111
1223.050801,10069.6
1226.828346,10223.6
1230.600366,10289.8
1234.366874,10462.6
1238.12788,10234
1241.883395,10286.6
1245.633429,10399
1249.377994,10390.6
1253.1171,9804.4
1256.850759,10171.4
1260.578981,10159
1264.301776,10132.4
1268.019157,10171.2
1271.731133,9989
1275.437715,9824.4
1279.138915,10251.4
1282.834743,10331.4
1286.52521,10105.2
1290.210328,9930.6
1293.890106,9975.6
1297.564555,10460.8
1301.233688,9920.2
1304.897514,10219.2
1308.556044,10287.8
1312.209289,10296.2
1315.857261,9946.2
1319.499969,9965
1323.137425,10550
1326.769641,10257
1330.396626,10621
1334.018391,10281.2
1337.634948,10245.8
1341.246307,10098.2
1344.85248,10001.6
1348.453477,9946.2
1352.049309,9910.6
1355.639987,9990.4
1359.225522,10349
1362.805925,10206.8
1366.381207,10096
1369.951379,10249.8
1373.516452,10351.2
1377.076436,10435.6
1380.631343,10266.6
1384.181184,10062.8
1387.725969,10210.6
1391.26571,9952.4
1394.800417,9793.8
1398.330102,9962
1401.854776,10140.8
1405.374448,10094
1408.889132,9663.8
1412.398837,9568.4
1415.903574,9867.8
1419.403355,10249.4
1422.89819,9898
1426.388091,9828.2
1429.873069,10203.2
1433.353134,9857.6
1436.828298,9941.4
1440.298571,10016.6
1443.763965,9771.4
1447.224491,9673.6
1450.68016,9774.6
1454.130983,10069.6
1457.576971,10019.8
1461.018135,10082.2
1464.454486,10223.8
1467.886036,9895.6
1471.312794,9945
1474.734774,9739.8
1478.151985,10197.4
1481.564439,10067.4
1484.972146,9934.8
1488.375119,9668.8
1491.773368,10100.2
1495.166904,10329.6
1498.555739,9933.2
1501.939883,9977.2
1505.319349,9608.8
1508.694146,9912
1512.064286,9972.4
1515.429781,9892.6
1518.790642,9702.8
1522.146879,9889.2
1525.498505,9570.8
1528.845529,9563
1532.187965,10089
1535.525822,9752.8
1538.859112,9828.6
1542.187846,10256.2
1545.512036,9590.4
1548.831693,10473.2
1552.146829,10098.4
1555.457453,9597
1558.763579,9382.6
1562.065216,9720.4
1565.362377,9892.8
1568.655073,10073
1571.943315,10008.8
1575.227114,10088.4
1578.506482,9963
1581.781431,10390.6
1585.051971,10081.6
1588.318114,10196.4
1591.579872,10240
1594.837255,9974.8
1598.090275,9816
1601.338945,9849.2
1604.583274,10029.8
1607.823275,9871.2
1611.058959,9558.4
1614.290338,10289
1617.517422,9426
1620.740224,9675.2
1623.958755,9515.6
1627.173027,9517.6
1630.38305,9311.2
1633.588838,9575.4
1636.7904,9496.8
1639.987749,9560.8
1643.180896,9758.4
1646.369853,9322.2
1649.554632,9821
1652.735244,9435.2
1655.9117,9118.2
1659.084013,9505.2
1662.252193,9871.4
1665.416254,9318.2
1668.576205,9514.4
1671.732059,9634
1674.883828,9685.4
1678.031523,9396.2
1681.175157,9402.6
1684.314739,9513.4
1687.450284,9399.8
1690.581801,9319
1693.709304,9233.8
1696.832803,9288.8
1699.952311,9471
1703.067839,9461.2
1706.179399,9357.2
1709.287003,9621.8
1712.390663,9409
1715.49039,9464.8
1718.586197,9625.8
1721.678095,9620.8
1724.766096,9543
1727.850213,9178.8
1730.930456,9475.8
1734.006838,9236.6
1737.079372,9510.2
1740.148067,9268.2
1743.212938,10114.4
1746.273996,9475.8
1749.331252,9344.8
1752.384718,9545.6
1755.434408,9494.4
1758.480332,9490.4
1761.522503,9559.6
1764.560933,9340.8
1767.595634,9087.8
1770.626618,9640.4
1773.653896,9626.6
1776.677482,9388.6
1779.697388,9399.4
1782.713625,9740
1785.726205,9650.8
1788.735141,9665.6
1791.740445,9282.8
1794.742129,9264
1797.740206,9631
1800.734687,9639.6
1803.725585,9612
1806.712912,9445.8
1809.69668,9311.4
1812.676902,9420.4
1815.65359,9095
1818.626756,9271
1821.596413,9327.6
1824.562573,9020.8
1827.525247,9316.4
1830.48445,9162.6
1833.440192,9321.6
1836.392487,9308
1839.341347,9436.6
1842.286784,9476.6
1845.22881,9109.8
1848.167439,9446
1851.102682,9304.6
1854.034553,9260
1856.963063,9140.6
1859.888226,9791.8
1862.810053,9504.2
1865.728557,9339.6
1868.643751,9123.2
1871.555648,9097.2
1874.46426,8954.4
1877.369599,9359.4
1880.271679,9337.8
1883.170512,9142.8
1886.06611,9440.8
1888.958487,9168.6
1891.847655,9156.8
1894.733626,9361.2
1897.616414,9306.2
1900.496032,9058.8
1903.372491,9272.6
1906.245805,9521.2
1909.115987,9578.2
1911.983049,9537.2
1914.847004,9408.2
1917.707866,9517.8
1920.565646,9466.2
1923.420359,9213.8
1926.272016,9484.2
1929.120631,9238.2
1931.966216,9248
1934.808786,9236.6
1937.648351,9439.4
1940.484927,9390.2
1943.318525,9426.4
1946.149158,9622.4
1948.97684,10393.4
1951.801584,9639
1954.623403,9461.2
1957.44231,9513
1960.258318,9205
1963.071439,9195.2
1965.881688,9308.8
1968.689078,9393.2
1971.493621,9251.8
