Ramanshift[cm-1],Intensity
-93.47115107,10470.6
-87.69374369,9656.6
-81.9253076,9534.6
-76.16582701,9611
-70.41528615,9550.8
-64.67366933,9464.6
-58.94096086,9420.2
-53.21714512,9588.4
-47.50220652,9685.4
-41.79612954,9606.8
-36.09889866,9894.8
-30.41049843,10111
-24.73091343,9835.6
-19.0601283,9773
-13.39812769,9681.4
-7.744896327,9494.2
-2.100418946,9368
3.535319659,9834
9.162334658,9386.2
14.78064118,9656.4
20.39025432,9352.4
25.99118913,9388.4
31.58346061,9786.6
37.16708375,9616.8
42.74207347,9380.2
48.30844468,9407
53.86621222,9276.8
59.41539093,9184.4
64.95599558,9069.2
70.48804091,9379
76.01154164,9378.8
81.52651243,8978.6
87.03296792,9304.8
92.5309227,9590.6
98.02039134,9104.8
103.5013884,9253
108.9739282,9216.4
114.4380255,9247
119.8936944,9306.6
125.3409495,9924.8
130.779805,9141.6
136.2102753,8992.6
141.6323747,9024.6
147.0461174,9399.6
152.4515176,9176
157.8485895,9200.4
163.2373472,9097.2
168.6178049,9325.4
173.9899766,9447.6
179.3538764,9131.4
184.7095182,9277
190.0569161,9409.2
195.396084,9427.2
200.7270358,9104
206.0497854,9065.6
211.3643466,8927.4
216.6707333,9197.6
221.9689593,8926.6
227.2590382,9112.8
232.5409839,9008
237.8148101,8975.6
243.0805303,9118
248.3381582,9043.6
253.5877075,8930.2
258.8291917,9033.8
264.0626244,9114
269.288019,9145.6
274.5053891,9356.4
279.7147481,9164
284.9161094,9068.4
290.1094865,9581.4
295.2948927,11117.4
300.4723414,14680.2
305.6418459,19103
310.8034194,22799
315.9570752,25316.2
321.1028267,26040.8
326.2406869,26636.8
331.370669,27329.6
336.4927863,28188.4
341.6070517,28680
346.7134786,29402.4
351.8120798,30306.4
356.9028684,30387.4
361.9858576,30278
367.0610602,30733.8
372.1284892,31806.8
377.1881577,35781
382.2400784,44174.2
387.2842644,53534.8
392.3207284,57330.6
397.3494833,52959.4
402.370542,45839.2
407.3839172,39014.6
412.3896217,33519.6
417.3876683,29894.6
422.3780697,27535.8
427.3608386,26163.4
432.3359876,25534.2
437.3035295,25014
442.2634769,24906
447.2158423,23818.2
452.1606383,23503.6
457.0978776,23365.8
462.0275727,23006.4
466.9497361,23611.8
471.8643802,23533
476.7715176,25506
481.6711608,27368.4
486.5633221,28541.6
491.448014,27484
496.3252488,25704.2
501.195039,24181.4
506.0573969,23673.6
510.9123349,23114.4
515.7598651,22344
520.6,22614
525.4327518,22235.8
530.2581327,22318.4
535.076155,22385.2
539.8868309,23265.2
544.6901726,22757.4
549.4861922,21342
554.2749019,21256
559.0563139,20563.2
563.8304402,20158.8
568.597293,20907.6
573.3568844,20476.2
578.1092263,20237.4
582.8543308,20478.2
587.5922101,20396.6
592.322876,20194.4
597.0463405,20279.6
601.7626157,20506.4
606.4717135,20091.8
611.1736458,20062.6
615.8684246,20070
620.5560617,20300.2
625.2365691,20563.4
629.9099585,20944
634.5762419,21169.4
639.2354312,20749.6
643.887538,20592.6
648.5325743,20161.6
653.1705518,19926.2
657.8014823,19792.4
662.4253775,19177.4
667.0422493,19481.6
671.6521092,19520
676.2549691,19591.6
680.8508407,19572.4
685.4397355,19581.6
690.0216654,19688.8
694.5966419,19777.8
699.1646767,20984.6
703.7257814,21861.4
708.2799676,22408.4
712.827247,23258.4
717.367631,22729
721.9011314,21262.8
726.4277595,19703
730.9475271,19528
735.4604456,19308.2
739.9665264,19383.8
744.4657813,19052.6
748.9582215,18903.8
753.4438587,18463.2
757.9227042,18274.2
762.3947696,18741.4
766.8600662,18201
771.3186056,19370.8
775.770399,18500.6
780.215458,18974
784.6537939,18680.2
789.0854181,18975.2
793.510342,19496.8
797.9285769,20422.4
802.3401342,20382.8
806.7450253,20111.8
811.1432614,19703
815.5348538,19416.2
819.9198139,18937.2
824.2981531,18647.2
828.6698824,18405.6
833.0350133,17848
837.393557,17217.2
841.7455248,17452
846.0909278,17174.4
850.4297774,17249.8
854.7620848,17321.6
859.0878611,17442
863.4071176,17131.4
867.7198655,17736.6
872.026116,17869.4
876.3258802,18213
880.6191693,18099.4
884.9059946,18209.8
889.186367,18675.4
893.4602979,18029.2
897.7277982,18120.2
901.9888793,18760
906.2435521,19333.4
910.4918277,19491.2
914.7337174,20092.6
918.9692321,20426.4
923.1983831,20875.2
927.4211813,20432.4
931.6376378,20941.2
935.8477637,20572.8
940.0515701,20975
944.249068,21415.4
948.4402684,20706.4
952.6251825,21542.2
956.8038212,21466.4
960.9761955,21955.2
965.1423166,21732.8
969.3021953,21565.4
973.4558427,21619.2
977.6032699,21438.8
981.7444877,21219.8
985.8795072,20927.8
990.0083394,20981.8
994.1309953,20809.8
998.2474857,21851.8
1002.357822,22629.8
1006.462014,23600.2
1010.560075,21761.8
1014.652013,19775
1018.737841,19225.4
1022.81757,18700.4
1026.891209,18781.2
1030.958771,18701.6
1035.020266,19229.8
1039.075705,19065
1043.1251,19351
1047.16846,19976.4
1051.205797,21194.2
1055.237121,23538.4
1059.262444,28619.6
1063.281777,37147.2
1067.295131,48637.6
1071.302515,58117.8
1075.303942,59319.2
1079.299422,53224.8
1083.288966,41260.8
1087.272585,30224.8
1091.250289,23869.8
1095.222091,21516
1099.187999,20045.4
1103.148026,19776.6
1107.102183,19642.2
1111.050479,20050.2
1114.992927,21108.8
1118.929536,22901.8
1122.860318,26574.2
1126.785283,32250.6
1130.704443,41290
1134.617808,51851.2
1138.52539,56751.8
1142.427198,52341
1146.323244,42467
1150.213538,32368.6
1154.098093,27439.6
1157.976917,24072.8
1161.850023,22801.4
1165.717421,22931
1169.579121,22341
1173.435135,22995.6
1177.285474,23080.2
1181.130148,24169.4
1184.969169,25022.2
1188.802547,24305
1192.630292,23251
1196.452416,20936.2
1200.26893,19062.2
1204.079844,17716.4
1207.88517,16896
1211.684917,17031.4
1215.479098,16565.8
1219.267722,17577.6
1223.050801,16643.2
1226.828346,16541.4
1230.600366,16600.6
1234.366874,16964.8
1238.12788,16901.6
1241.883395,17053
1245.633429,17359.2
1249.377994,17040.2
1253.1171,16402
1256.850759,16657.2
1260.578981,16391
1264.301776,16413.2
1268.019157,16183.8
1271.731133,16096.2
1275.437715,15857.8
1279.138915,16243.6
1282.834743,16582.2
1286.52521,16360.2
1290.210328,16628.4
1293.890106,17031.2
1297.564555,18318.6
1301.233688,18468.8
1304.897514,18660
1308.556044,18507.2
1312.209289,17517.8
1315.857261,16716.2
1319.499969,16498.2
1323.137425,16808
1326.769641,16263.4
1330.396626,16807.6
1334.018391,16324.2
1337.634948,16597.2
1341.246307,16699.6
1344.85248,16978.4
1348.453477,17442.8
1352.049309,17790.2
1355.639987,18130.4
1359.225522,18861.8
1362.805925,18914.6
1366.381207,19277.2
1369.951379,20066.6
1373.516452,21355
1377.076436,23412.8
1380.631343,26918.2
1384.181184,30553.8
1387.725969,33810.8
1391.26571,32274.2
1394.800417,27980.2
1398.330102,22767.2
1401.854776,20216.8
1405.374448,18463
1408.889132,18005.8
1412.398837,18862.4
1415.903574,21452.6
1419.403355,26706.4
1422.89819,31741.4
1426.388091,36763.4
1429.873069,38624.8
1433.353134,37244.4
1436.828298,33050.2
1440.298571,29378.8
1443.763965,24697.6
1447.224491,21678.4
1450.68016,19332
1454.130983,18041.6
1457.576971,17121.8
1461.018135,16806.2
1464.454486,16894.4
1467.886036,17062.2
1471.312794,17373.2
1474.734774,16501.2
1478.151985,16290.4
1481.564439,15393.6
1484.972146,15345.8
1488.375119,14558.2
1491.773368,14911.8
1495.166904,14813.8
1498.555739,14196
1501.939883,14156.2
1505.319349,13918.6
1508.694146,14304.2
1512.064286,14353.6
1515.429781,14377.8
1518.790642,14355.8
1522.146879,14533.8
1525.498505,14315.8
1528.845529,14546.4
1532.187965,15423.2
1535.525822,15283.4
1538.859112,15620.4
1542.187846,16488.4
1545.512036,16309
1548.831693,17627.4
1552.146829,17974.6
1555.457453,18381
1558.763579,19043
1562.065216,20915.4
1565.362377,22434.4
1568.655073,24250.6
1571.943315,25118.4
1575.227114,25821.8
1578.506482,25575.4
1581.781431,25614.4
1585.051971,25091.6
1588.318114,24488.2
1591.579872,22451.4
1594.837255,19704.6
1598.090275,17212.4
1601.338945,15715.6
1604.583274,15000.6
1607.823275,14231
1611.058959,13644.4
1614.290338,14211.6
1617.517422,13178
1620.740224,13387.8
1623.958755,12867.8
1627.173027,12893.2
1630.38305,12345.8
1633.588838,12539.2
1636.7904,12330.2
1639.987749,12278
1643.180896,12346.4
1646.369853,11920.4
1649.554632,12379.4
1652.735244,11698.2
1655.9117,11418
1659.084013,11557
1662.252193,11952
1665.416254,11283.6
1668.576205,11526.8
1671.732059,11553.8
1674.883828,11542
1678.031523,11114.2
1681.175157,11207.8
1684.314739,11154
1687.450284,11115
1690.581801,10990.2
1693.709304,10905.2
1696.832803,10788.2
1699.952311,11010.8
1703.067839,11069.8
1706.179399,10978.4
1709.287003,11138.6
1712.390663,10840.4
1715.49039,10884.6
1718.586197,11068
1721.678095,10979
1724.766096,10979.4
1727.850213,10514.4
1730.930456,10748.2
1734.006838,10604
1737.079372,10801.2
1740.148067,10523
1743.212938,11249.8
1746.273996,10763.4
1749.331252,10521.8
1752.384718,10653.6
1755.434408,10559.4
1758.480332,10635.4
1761.522503,10682.2
1764.560933,10512.8
1767.595634,10219.6
1770.626618,10724.6
1773.653896,10648.4
1776.677482,10420.8
1779.697388,10433.8
1782.713625,10757
1785.726205,10662.2
1788.735141,10699.2
1791.740445,10314.4
1794.742129,10333
1797.740206,10657.4
1800.734687,10595.6
1803.725585,10604.4
1806.712912,10473.4
1809.69668,10269.4
1812.676902,10362.8
1815.65359,10064.4
1818.626756,10134
1821.596413,10319.2
1824.562573,10074.6
1827.525247,10212.6
1830.48445,10149
1833.440192,10259
1836.392487,10211.2
1839.341347,10300.4
1842.286784,10379.2
1845.22881,9955.2
1848.167439,10423.6
1851.102682,10263.4
1854.034553,10203.8
1856.963063,10117.2
1859.888226,10650.6
1862.810053,10389
1865.728557,10141.2
1868.643751,9947.6
1871.555648,9916.2
1874.46426,9775.2
1877.369599,10202.2
1880.271679,9998.4
1883.170512,10023.8
1886.06611,10281
1888.958487,10103.8
1891.847655,10040.6
1894.733626,10184
1897.616414,10162.2
1900.496032,9877.4
1903.372491,10037.4
1906.245805,10263.4
1909.115987,10324.8
1911.983049,10206
1914.847004,10235.8
1917.707866,10296.6
1920.565646,10256
1923.420359,9991.8
1926.272016,10173.4
1929.120631,9952.2
1931.966216,10002.6
1934.808786,10063.2
1937.648351,10154.6
1940.484927,10131
1943.318525,10219.8
1946.149158,10406.4
1948.97684,11012.2
1951.801584,10199.8
1954.623403,10222.6
1957.44231,10145.4
1960.258318,9958.2
1963.071439,9914.8
1965.881688,10071.2
1968.689078,10121.2
1971.493621,9983.8
