Ramanshift[cm-1],Intensity
-93.47115107,10711.2
-87.69374369,9756.2
-81.9253076,9609.4
-76.16582701,9700.8
-70.41528615,9674.8
-64.67366933,9578.8
-58.94096086,9525.4
-53.21714512,9719.4
-47.50220652,9775
-41.79612954,9746
-36.09889866,10159.4
-30.41049843,10318
-24.73091343,9944.2
-19.0601283,9943.6
-13.39812769,9747.6
-7.744896327,9593.4
-2.100418946,9492.6
3.535319659,9901
9.162334658,9546.6
14.78064118,9792.8
20.39025432,9554.6
25.99118913,9554
31.58346061,9863.6
37.16708375,9783.8
42.74207347,9558.4
48.30844468,9559
53.86621222,9497.8
59.41539093,9207.8
64.95599558,9204
70.48804091,9505.4
76.01154164,9514.6
81.52651243,9107.4
87.03296792,9499.2
92.5309227,9677.6
98.02039134,9244.2
103.5013884,9431.8
108.9739282,9397
114.4380255,9284.8
119.8936944,9488.6
125.3409495,10045.6
130.779805,9253
136.2102753,9053
141.6323747,9170.6
147.0461174,9481.2
152.4515176,9293.6
157.8485895,9380.2
163.2373472,9180.4
168.6178049,9532.2
173.9899766,9556.8
179.3538764,9342.8
184.7095182,9416
190.0569161,9548.8
195.396084,9622.8
200.7270358,9167.8
206.0497854,9208
211.3643466,9062
216.6707333,9315.2
221.9689593,9097.6
227.2590382,9237.6
232.5409839,9123.4
237.8148101,9112
243.0805303,9142
248.3381582,9154.6
253.5877075,9089.8
258.8291917,9166.8
264.0626244,9206
269.288019,9275.2
274.5053891,9373.4
279.7147481,9123.8
284.9161094,8986
290.1094865,9148.4
295.2948927,9489
300.4723414,10353.6
305.6418459,10739
310.8034194,11194
315.9570752,11900.2
321.1028267,11944.4
326.2406869,12037.2
331.370669,12157.6
336.4927863,12148.4
341.6070517,12285.2
346.7134786,12160.6
351.8120798,12357.4
356.9028684,12192.6
361.9858576,12238.4
367.0610602,12403.6
372.1284892,12302.2
377.1881577,12680.6
382.2400784,12968
387.2842644,13630.8
392.3207284,14206.4
397.3494833,13799.8
402.370542,13512.8
407.3839172,12627
412.3896217,12241.2
417.3876683,11756.6
422.3780697,11804
427.3608386,11757.2
432.3359876,12064.6
437.3035295,12064.8
442.2634769,12224
447.2158423,11611.4
452.1606383,11692.6
457.0978776,11838.6
462.0275727,11434.4
466.9497361,11762.2
471.8643802,11232
476.7715176,11651.2
481.6711608,11685.8
486.5633221,11934.6
491.448014,11681
496.3252488,11629.6
501.195039,11597.4
506.0573969,11830.8
510.9123349,11654
515.7598651,11264
520.6,11623.4
525.4327518,11562
530.2581327,11685.6
535.076155,11256.6
539.8868309,11583.4
544.6901726,11722.4
549.4861922,11562.6
554.2749019,12160.8
559.0563139,11560.2
563.8304402,11385.8
568.597293,12068.8
573.3568844,11824.8
578.1092263,11398.4
582.8543308,11612.8
587.5922101,11508
592.322876,11375.8
597.0463405,11471
601.7626157,11703
606.4717135,11300.8
611.1736458,11348
615.8684246,11354
620.5560617,11577.2
625.2365691,11377.8
629.9099585,11634.2
634.5762419,11820.6
639.2354312,11402.4
643.887538,11541.4
648.5325743,11307.6
653.1705518,11322.6
657.8014823,11496.8
662.4253775,10934
667.0422493,11239.4
671.6521092,11198
676.2549691,11470.8
680.8508407,11406.6
685.4397355,11353.4
690.0216654,11401.6
694.5966419,11249.4
699.1646767,11499.8
703.7257814,11405
708.2799676,11382.2
712.827247,11534.8
717.367631,11415.2
721.9011314,11441.8
726.4277595,10884.4
730.9475271,11416.4
735.4604456,11242.8
739.9665264,11590.8
744.4657813,11227.6
748.9582215,11219.8
753.4438587,10825
757.9227042,10762.6
762.3947696,11174
766.8600662,10943.2
771.3186056,11921.6
775.770399,11160.4
780.215458,11417
784.6537939,11024.6
789.0854181,10801.2
793.510342,11038.8
797.9285769,11532.6
802.3401342,11050.2
806.7450253,11237
811.1432614,11070.6
815.5348538,11041.6
819.9198139,10854.8
824.2981531,11065
828.6698824,11149.2
833.0350133,10987.6
837.393557,10732
841.7455248,11041.2
846.0909278,10890.4
850.4297774,10810.6
854.7620848,10874.2
859.0878611,11022.8
863.4071176,10585.6
867.7198655,11074.6
872.026116,11126.6
876.3258802,11414.2
880.6191693,11163.6
884.9059946,11057
889.186367,11488.4
893.4602979,10745.4
897.7277982,10683.8
901.9888793,11035.8
906.2435521,11201
910.4918277,10762.8
914.7337174,10778
918.9692321,10817.6
923.1983831,11296.2
927.4211813,10934.8
931.6376378,11465.4
935.8477637,11198.6
940.0515701,11208
944.249068,11238.8
948.4402684,10680
952.6251825,11252.4
956.8038212,11028
960.9761955,11428.4
965.1423166,11063.6
969.3021953,11106
973.4558427,11130.2
977.6032699,11034.4
981.7444877,11150.2
985.8795072,10996
990.0083394,11044.6
994.1309953,10755.4
998.2474857,11111.4
1002.357822,10532.2
1006.462014,10979
1010.560075,10825.4
1014.652013,10982.8
1018.737841,11174.2
1022.81757,10795.6
1026.891209,10797.8
1030.958771,10648
1035.020266,10913.2
1039.075705,10771.2
1043.1251,10505.6
1047.16846,10666.6
1051.205797,10596.8
1055.237121,10510.4
1059.262444,10590.6
1063.281777,10481.4
1067.295131,10770.2
1071.302515,11823
1075.303942,11781.6
1079.299422,12564.6
1083.288966,11944.6
1087.272585,11410.6
1091.250289,11080.8
1095.222091,10943.4
1099.187999,10543.2
1103.148026,10716.4
1107.102183,10496.2
1111.050479,10639.6
1114.992927,10639.8
1118.929536,10611.8
1122.860318,10806.4
1126.785283,10526.6
1130.704443,10477.2
1134.617808,11217.2
1138.52539,11120.4
1142.427198,11167
1146.323244,11153.4
1150.213538,10760.2
1154.098093,10989.8
1157.976917,10485.8
1161.850023,10434.6
1165.717421,10794.2
1169.579121,10566
1173.435135,10828
1177.285474,10421.4
1181.130148,10482
1184.969169,10839.2
1188.802547,10654.4
1192.630292,10402.4
1196.452416,10090.6
1200.26893,10177.6
1204.079844,10053.4
1207.88517,9786.8
1211.684917,10290.2
1215.479098,9925.8
1219.267722,11005.8
1223.050801,9957
1226.828346,10011
1230.600366,10181.8
1234.366874,10344.2
1238.12788,10099
1241.883395,10153.2
1245.633429,10340
1249.377994,10419.6
1253.1171,9772.2
1256.850759,10033.2
1260.578981,10002.2
1264.301776,10017.6
1268.019157,10021.2
1271.731133,9849.2
1275.437715,9718.6
1279.138915,10158
1282.834743,10298.6
1286.52521,9973.4
1290.210328,9866.4
1293.890106,9953.6
1297.564555,10312
1301.233688,9886.8
1304.897514,10215.8
1308.556044,10328
1312.209289,10250.2
1315.857261,9785
1319.499969,9976
1323.137425,10356.6
1326.769641,10157.2
1330.396626,10366
1334.018391,10052.4
1337.634948,10224.2
1341.246307,9971.8
1344.85248,9896.6
1348.453477,9852.8
1352.049309,9823.6
1355.639987,9914.2
1359.225522,10311.2
1362.805925,10091.4
1366.381207,10062
1369.951379,10179.8
1373.516452,10287.6
1377.076436,10413.8
1380.631343,10267.6
1384.181184,10249.2
1387.725969,10366.6
1391.26571,10098.6
1394.800417,9932.8
1398.330102,9930.4
1401.854776,10072
1405.374448,9968.6
1408.889132,9666.2
1412.398837,9416.8
1415.903574,9672.6
1419.403355,10196.2
1422.89819,9952
1426.388091,9958.6
1429.873069,10421.8
1433.353134,9914.4
1436.828298,9941.6
1440.298571,9972.8
1443.763965,9710.8
1447.224491,9668.6
1450.68016,9694.6
1454.130983,9991
1457.576971,9865.8
1461.018135,9984.2
1464.454486,10098.2
1467.886036,9757.6
1471.312794,9784.6
1474.734774,9637
1478.151985,10035
1481.564439,9842.6
1484.972146,9897.6
1488.375119,9531
1491.773368,9853.8
1495.166904,10213.4
1498.555739,9714.6
1501.939883,9801.4
1505.319349,9462.6
1508.694146,9781.6
1512.064286,9967
1515.429781,9799.8
1518.790642,9682.8
1522.146879,9803.6
1525.498505,9482.2
1528.845529,9462
1532.187965,10021.8
1535.525822,9775
1538.859112,9729.2
1542.187846,10025
1545.512036,9411.6
1548.831693,10402
1552.146829,10067.2
1555.457453,9538
1558.763579,9326.8
1562.065216,9648.4
1565.362377,9827.2
1568.655073,10083.6
1571.943315,9996.4
1575.227114,10027.6
1578.506482,10035.2
1581.781431,10427.2
1585.051971,10303.8
1588.318114,10350.6
1591.579872,10307.8
1594.837255,10095.6
1598.090275,9876.8
1601.338945,9741.6
1604.583274,9968.6
1607.823275,9683.6
1611.058959,9361.2
1614.290338,10272.2
1617.517422,9227
1620.740224,9600.8
1623.958755,9357.4
1627.173027,9424.4
1630.38305,9152
1633.588838,9555.2
1636.7904,9291.6
1639.987749,9417.2
1643.180896,9571.8
1646.369853,9172.4
1649.554632,9720.6
1652.735244,9311.2
1655.9117,8993.2
1659.084013,9301.8
1662.252193,9766.4
1665.416254,9196
1668.576205,9282.8
1671.732059,9505.8
1674.883828,9532.4
1678.031523,9148
1681.175157,9251.8
1684.314739,9315.4
1687.450284,9317.8
1690.581801,9149
1693.709304,9120.4
1696.832803,9118.8
1699.952311,9374.6
1703.067839,9331.6
1706.179399,9205.2
1709.287003,9612.4
1712.390663,9259.6
1715.49039,9313.2
1718.586197,9525.2
1721.678095,9385.2
1724.766096,9387.8
1727.850213,9001.6
1730.930456,9246.2
1734.006838,9080.8
1737.079372,9402.4
1740.148067,9103.4
1743.212938,9849
1746.273996,9303.2
1749.331252,9195.8
1752.384718,9369
1755.434408,9329.6
1758.480332,9381
1761.522503,9392.2
1764.560933,9194.2
1767.595634,8954.2
1770.626618,9464.8
1773.653896,9405.6
1776.677482,9127.8
1779.697388,9187.4
1782.713625,9533.6
1785.726205,9421.8
1788.735141,9442.8
1791.740445,9154.2
1794.742129,9121.8
1797.740206,9473.2
1800.734687,9536.6
1803.725585,9371.6
1806.712912,9369.8
1809.69668,9184.4
1812.676902,9173.8
1815.65359,8941.4
1818.626756,9029.4
1821.596413,9193
1824.562573,8877.8
1827.525247,9180.2
1830.48445,9064
1833.440192,9167.6
1836.392487,9081.4
1839.341347,9216
1842.286784,9268.4
1845.22881,8936.8
1848.167439,9365.6
1851.102682,9118.4
1854.034553,9166.6
1856.963063,8941
1859.888226,9643.2
1862.810053,9298.2
1865.728557,9171.4
1868.643751,8961.8
1871.555648,8954.8
1874.46426,8781.2
1877.369599,9242.2
1880.271679,9166.8
1883.170512,9036
1886.06611,9263
1888.958487,9046.4
1891.847655,9034.8
1894.733626,9191.6
1897.616414,9264.8
1900.496032,8893.4
1903.372491,9081
1906.245805,9338.4
1909.115987,9439
1911.983049,9309.4
1914.847004,9299.6
1917.707866,9433
1920.565646,9325.8
1923.420359,9096.2
1926.272016,9223.4
1929.120631,9072
1931.966216,9103.2
1934.808786,9127.8
1937.648351,9336.6
1940.484927,9271.8
1943.318525,9311.8
1946.149158,9428.6
1948.97684,10191.4
1951.801584,9401.4
1954.623403,9320.8
1957.44231,9342.8
1960.258318,9049.8
1963.071439,9029.2
1965.881688,9164.2
1968.689078,9333.2
1971.493621,9161
