Ramanshift[cm-1],Intensity
-93.47115107,10599.4
-87.69374369,9706.6
-81.9253076,9647
-76.16582701,9636.8
-70.41528615,9694
-64.67366933,9533.4
-58.94096086,9505.6
-53.21714512,9665.4
-47.50220652,9805.6
-41.79612954,9733.6
-36.09889866,10054.6
-30.41049843,10236.2
-24.73091343,9929.2
-19.0601283,9910.8
-13.39812769,9871.6
-7.744896327,9569.2
-2.100418946,9499.6
3.535319659,10021.2
9.162334658,9558
14.78064118,9741.6
20.39025432,9485.2
25.99118913,9491.6
31.58346061,9869.4
37.16708375,9688.6
42.74207347,9517.8
48.30844468,9525.8
53.86621222,9503.4
59.41539093,9208
64.95599558,9209
70.48804091,9456.4
76.01154164,9522.2
81.52651243,9131.2
87.03296792,9481
92.5309227,9673
98.02039134,9151.6
103.5013884,9384
108.9739282,9275.6
114.4380255,9312
119.8936944,9393
125.3409495,10039
130.779805,9269.6
136.2102753,9125.4
141.6323747,9208.2
147.0461174,9585.8
152.4515176,9322.4
157.8485895,9246.2
163.2373472,9198.6
168.6178049,9530
173.9899766,9610.6
179.3538764,9343.4
184.7095182,9481.8
190.0569161,9542.2
195.396084,9680.4
200.7270358,9226.8
206.0497854,9251.2
211.3643466,8947
216.6707333,9360.8
221.9689593,9129.2
227.2590382,9188.4
232.5409839,9196.8
237.8148101,9154.8
243.0805303,9230
248.3381582,9198.2
253.5877075,9076.6
258.8291917,9150.2
264.0626244,9200.2
269.288019,9341.6
274.5053891,9574.8
279.7147481,9362.8
284.9161094,9503.8
290.1094865,10590.8
295.2948927,13802.2
300.4723414,21894.4
305.6418459,32499
310.8034194,41774.6
315.9570752,46671.4
321.1028267,47682.4
326.2406869,48458
331.370669,49520.6
336.4927863,50760.2
341.6070517,51586.6
346.7134786,52615.8
351.8120798,53481.8
356.9028684,53826.2
361.9858576,53127.4
367.0610602,53296.6
372.1284892,53045
377.1881577,54733
382.2400784,57144.2
387.2842644,60386
392.3207284,61391.8
397.3494833,60242
402.370542,58114.2
407.3839172,56047.6
412.3896217,53537.4
417.3876683,51846.8
422.3780697,50974.4
427.3608386,49780.2
432.3359876,49516.6
437.3035295,48433.8
442.2634769,48463.4
447.2158423,47363.4
452.1606383,47335.8
457.0978776,47130
462.0275727,46828.6
466.9497361,47265.8
471.8643802,47144.6
476.7715176,49258
481.6711608,51149.4
486.5633221,51956.2
491.448014,51042.2
496.3252488,49232.4
501.195039,47963.2
506.0573969,47266.8
510.9123349,46605.4
515.7598651,45912
520.6,45616.8
525.4327518,45341.2
530.2581327,45456.6
535.076155,45358.8
539.8868309,46009.4
544.6901726,45237.6
549.4861922,43959
554.2749019,43971
559.0563139,43291.4
563.8304402,42875.2
568.597293,43561
573.3568844,43266.2
578.1092263,42662
582.8543308,43153.6
587.5922101,43002.8
592.322876,42564.6
597.0463405,42986.8
601.7626157,43267.6
606.4717135,42493.6
611.1736458,42531.2
615.8684246,42346.8
620.5560617,42960.8
625.2365691,42626.6
629.9099585,42469.8
634.5762419,42337.8
639.2354312,41770.4
643.887538,41578.2
648.5325743,41249
653.1705518,41295.6
657.8014823,41000.6
662.4253775,40560.2
667.0422493,40825.2
671.6521092,40642.2
676.2549691,40629.2
680.8508407,40514.6
685.4397355,40463.4
690.0216654,40736.8
694.5966419,40769.8
699.1646767,41387.2
703.7257814,41978
708.2799676,42413.4
712.827247,43409.2
717.367631,42957
721.9011314,41698.2
726.4277595,40197.8
730.9475271,40041
735.4604456,39279.2
739.9665264,39427.8
744.4657813,39075.2
748.9582215,38656.6
753.4438587,37906
757.9227042,37651.4
762.3947696,37705.6
766.8600662,37090.8
771.3186056,38095
775.770399,37015
780.215458,37010
784.6537939,36459.8
789.0854181,36488.6
793.510342,36318.6
797.9285769,36639.8
802.3401342,36174.6
806.7450253,36126.4
811.1432614,35790.8
815.5348538,35403.2
819.9198139,34992.6
824.2981531,34791
828.6698824,34628.8
833.0350133,33837.4
837.393557,33611.8
841.7455248,33896.2
846.0909278,33280
850.4297774,33631.4
854.7620848,33526.2
859.0878611,33758
863.4071176,33446.6
867.7198655,33815.6
872.026116,33938.6
876.3258802,34193.8
880.6191693,33847
884.9059946,33796.8
889.186367,33928.6
893.4602979,33081.8
897.7277982,33094.6
901.9888793,33587.8
906.2435521,34306
910.4918277,34097
914.7337174,34649.8
918.9692321,34722.8
923.1983831,35058.4
927.4211813,34280
931.6376378,34761.6
935.8477637,34212.4
940.0515701,34482.2
944.249068,34736.4
948.4402684,33747.8
952.6251825,34485.4
956.8038212,34468
960.9761955,34629.6
965.1423166,34340.6
969.3021953,34506
973.4558427,34418
977.6032699,34279.4
981.7444877,34030.4
985.8795072,34001.8
990.0083394,33967.6
994.1309953,33885.6
998.2474857,34630.8
1002.357822,34852.4
1006.462014,35872.2
1010.560075,34672
1014.652013,33693
1018.737841,33442.4
1022.81757,32994.8
1026.891209,33026.8
1030.958771,32850.8
1035.020266,33205.8
1039.075705,33238.4
1043.1251,33203.8
1047.16846,33882.4
1051.205797,34652.4
1055.237121,36947.6
1059.262444,41102
1063.281777,47468.6
1067.295131,54917.2
1071.302515,58913.4
1075.303942,55782.6
1079.299422,50819.4
1083.288966,43822.6
1087.272585,38466.8
1091.250289,35436
1095.222091,34578.2
1099.187999,33630.4
1103.148026,33709.8
1107.102183,33923.2
1111.050479,34182.2
1114.992927,35480
1118.929536,37280.8
1122.860318,40616.2
1126.785283,45689.8
1130.704443,53470.2
1134.617808,61887.6
1138.52539,64030.8
1142.427198,60402.2
1146.323244,51649
1150.213538,43586
1154.098093,39556.4
1157.976917,36527
1161.850023,35308.4
1165.717421,35148.6
1169.579121,34118.2
1173.435135,34596.4
1177.285474,34165.4
1181.130148,34848
1184.969169,35832.8
1188.802547,36071
1192.630292,35694.6
1196.452416,34183.2
1200.26893,33026.4
1204.079844,31541
1207.88517,30657.2
1211.684917,31163.8
1215.479098,30333.4
1219.267722,31627.2
1223.050801,30140
1226.828346,30491.2
1230.600366,30471.2
1234.366874,30457.2
1238.12788,30368.6
1241.883395,30401.2
1245.633429,30371.6
1249.377994,30399.4
1253.1171,29765.2
1256.850759,29828.8
1260.578981,29739.8
1264.301776,29575.8
1268.019157,29701.6
1271.731133,29646.4
1275.437715,29360.6
1279.138915,29828.6
1282.834743,30149
1286.52521,29883.8
1290.210328,30088.4
1293.890106,30390.2
1297.564555,31398.8
1301.233688,31545
1304.897514,31933
1308.556044,31783.4
1312.209289,31152.4
1315.857261,30007
1319.499969,29796
1323.137425,30214.8
1326.769641,29444.2
1330.396626,29985.8
1334.018391,29590
1337.634948,29667.6
1341.246307,29974.8
1344.85248,29996
1348.453477,30249.4
1352.049309,30515
1355.639987,31132.8
1359.225522,31717.6
1362.805925,31502.2
1366.381207,31991.8
1369.951379,32769.8
1373.516452,33974
1377.076436,35895.6
1380.631343,38779.6
1384.181184,41714.4
1387.725969,43803
1391.26571,42320
1394.800417,38177.8
1398.330102,34073.4
1401.854776,31812.2
1405.374448,30363.8
1408.889132,30380
1412.398837,31229.2
1415.903574,33575.2
1419.403355,38304.2
1422.89819,42629.2
1426.388091,46192
1429.873069,47330.2
1433.353134,44970.6
1436.828298,41290.6
1440.298571,37482
1443.763965,33733.2
1447.224491,31398.2
1450.68016,29520.6
1454.130983,28784
1457.576971,28054.8
1461.018135,27885.6
1464.454486,27905.2
1467.886036,27668
1471.312794,27854.8
1474.734774,26914.4
1478.151985,26838.8
1481.564439,25840.4
1484.972146,25515
1488.375119,24885.8
1491.773368,25145.2
1495.166904,25239.2
1498.555739,24729
1501.939883,24584.4
1505.319349,24137.4
1508.694146,24468.8
1512.064286,24471.6
1515.429781,24337
1518.790642,24376.2
1522.146879,24393.6
1525.498505,24151.8
1528.845529,23850
1532.187965,24648.4
1535.525822,24382
1538.859112,24634.6
1542.187846,25174.4
1545.512036,24755.8
1548.831693,25688
1552.146829,25889.8
1555.457453,25866.8
1558.763579,26338
1562.065216,27674.2
1565.362377,28882
1568.655073,29833.8
1571.943315,30358.4
1575.227114,30018.8
1578.506482,29192.8
1581.781431,28432.8
1585.051971,27323.6
1588.318114,26274.2
1591.579872,25062.4
1594.837255,23680.4
1598.090275,22666.4
1601.338945,22011.4
1604.583274,21745.8
1607.823275,21303.8
1611.058959,20654.6
1614.290338,21256.6
1617.517422,20028.2
1620.740224,20298.4
1623.958755,19851.8
1627.173027,19568.8
1630.38305,19093.4
1633.588838,19169.8
1636.7904,18941.8
1639.987749,18949.4
1643.180896,18844
1646.369853,18293.8
1649.554632,18784.4
1652.735244,18166.2
1655.9117,17682.6
1659.084013,17696.2
1662.252193,18160
1665.416254,17481
1668.576205,17454
1671.732059,17490.2
1674.883828,17678
1678.031523,17020.8
1681.175157,17053
1684.314739,16906.2
1687.450284,16878.8
1690.581801,16606.6
1693.709304,16495.8
1696.832803,16323
1699.952311,16578
1703.067839,16557.6
1706.179399,16457.8
1709.287003,16523
1712.390663,16325.6
1715.49039,16359.8
1718.586197,16456.4
1721.678095,16328
1724.766096,16206.6
1727.850213,15807.2
1730.930456,15929.4
1734.006838,15752.6
1737.079372,15871.2
1740.148067,15545.8
1743.212938,16292.6
1746.273996,15671.8
1749.331252,15420.4
1752.384718,15506.6
1755.434408,15434.4
1758.480332,15465.2
1761.522503,15392.8
1764.560933,15230
1767.595634,14804.6
1770.626618,15289.2
1773.653896,15202.2
1776.677482,14968
1779.697388,14884.6
1782.713625,15188.8
1785.726205,15135
1788.735141,15132.6
1791.740445,14809.4
1794.742129,14700.6
1797.740206,14981
1800.734687,15096.4
1803.725585,14993
1806.712912,14855.6
1809.69668,14707.8
1812.676902,14602.8
1815.65359,14420.8
1818.626756,14515.2
1821.596413,14625.2
1824.562573,14391.2
1827.525247,14462.8
1830.48445,14382.6
1833.440192,14424
1836.392487,14424
1839.341347,14518.2
1842.286784,14382.8
1845.22881,14011.2
1848.167439,14442.8
1851.102682,14350.6
1854.034553,14223.8
1856.963063,14126.2
1859.888226,14635.6
1862.810053,14308
1865.728557,14113.6
1868.643751,13918
1871.555648,13937.2
1874.46426,13656.2
1877.369599,14007.4
1880.271679,13850.2
1883.170512,13896.2
1886.06611,14042.6
1888.958487,13997.8
1891.847655,13659
1894.733626,13970.6
1897.616414,13904.8
1900.496032,13433
1903.372491,13741.4
1906.245805,13946
1909.115987,14016.6
1911.983049,13936.4
1914.847004,13767.4
1917.707866,13888.6
1920.565646,13731.8
1923.420359,13465.2
1926.272016,13591.6
1929.120631,13498.4
1931.966216,13452
1934.808786,13441.8
1937.648351,13519.8
1940.484927,13490.6
1943.318525,13572.2
1946.149158,13691.2
1948.97684,14330.2
1951.801584,13601
1954.623403,13448.2
1957.44231,13442.6
1960.258318,13193.4
1963.071439,13123.6
1965.881688,13342.4
1968.689078,13300.2
1971.493621,13027.8
