Ramanshift[cm-1],Intensity
-93.47115107,10344.2
-87.69374369,9464.6
-81.9253076,9392.4
-76.16582701,9451
-70.41528615,9518.4
-64.67366933,9301
-58.94096086,9278
-53.21714512,9465.2
-47.50220652,9552.6
-41.79612954,9517
-36.09889866,9852.2
-30.41049843,9933.2
-24.73091343,9706
-19.0601283,9623
-13.39812769,9518.4
-7.744896327,9329.8
-2.100418946,9274.6
3.535319659,9702.4
9.162334658,9256.4
14.78064118,9558.6
20.39025432,9275.8
25.99118913,9229
31.58346061,9671.8
37.16708375,9495.4
42.74207347,9243.4
48.30844468,9285.4
53.86621222,9194
59.41539093,8947.8
64.95599558,8944.6
70.48804091,9238.2
76.01154164,9272
81.52651243,8836.8
87.03296792,9242.4
92.5309227,9443.8
98.02039134,8984.8
103.5013884,9192.2
108.9739282,9086
114.4380255,8996.2
119.8936944,9225.6
125.3409495,9782.4
130.779805,9039.4
136.2102753,8856.2
141.6323747,8924.4
147.0461174,9279.6
152.4515176,9059
157.8485895,9098.4
163.2373472,8922.2
168.6178049,9199.8
173.9899766,9389.4
179.3538764,8997.8
184.7095182,9107.2
190.0569161,9299.8
195.396084,9310.6
200.7270358,8973.6
206.0497854,8952
211.3643466,8771.6
216.6707333,9088.2
221.9689593,8790.2
227.2590382,8952.2
232.5409839,8932.8
237.8148101,8942.4
243.0805303,8992
248.3381582,8899.8
253.5877075,8804.4
258.8291917,8889.2
264.0626244,8962.8
269.288019,9121.8
274.5053891,9164.8
279.7147481,8974.6
284.9161094,8757.2
290.1094865,8902.2
295.2948927,9148
300.4723414,9968.2
305.6418459,10239.6
310.8034194,10636.8
315.9570752,11421.8
321.1028267,11662.8
326.2406869,11610.2
331.370669,11918
336.4927863,11947.8
341.6070517,11946.2
346.7134786,11883.4
351.8120798,11977.6
356.9028684,11881
361.9858576,12054.4
367.0610602,12292.8
372.1284892,12487.6
377.1881577,13483.4
382.2400784,14978.2
387.2842644,16835.6
392.3207284,17275.2
397.3494833,16072.6
402.370542,14748
407.3839172,13569.6
412.3896217,12684.6
417.3876683,12088.6
422.3780697,11937.4
427.3608386,11821.8
432.3359876,12129.4
437.3035295,12183.6
442.2634769,12208.6
447.2158423,11546.2
452.1606383,11460.8
457.0978776,11468.4
462.0275727,11136.4
466.9497361,11411.8
471.8643802,10974
476.7715176,11306.6
481.6711608,11356.4
486.5633221,11497.8
491.448014,11309.6
496.3252488,11283.6
501.195039,11296.8
506.0573969,11448.4
510.9123349,11353.2
515.7598651,10904
520.6,11292
525.4327518,11257.6
530.2581327,11306.6
535.076155,10836
539.8868309,11064
544.6901726,11189.8
549.4861922,10801.2
554.2749019,11458
559.0563139,10850.8
563.8304402,10599.2
568.597293,11319.4
573.3568844,11025.4
578.1092263,10831.6
582.8543308,11102.4
587.5922101,11032.6
592.322876,10829
597.0463405,10825.8
601.7626157,11027.6
606.4717135,10802.8
611.1736458,10853.4
615.8684246,10774.8
620.5560617,10982.6
625.2365691,10900.6
629.9099585,11398
634.5762419,11751
639.2354312,11306.8
643.887538,11321
648.5325743,10938
653.1705518,10876
657.8014823,11019
662.4253775,10511.8
667.0422493,10805.6
671.6521092,10805
676.2549691,10924.2
680.8508407,10958.4
685.4397355,10769.6
690.0216654,10936
694.5966419,10844
699.1646767,11170
703.7257814,11075.2
708.2799676,11121.2
712.827247,11174.6
717.367631,10991.4
721.9011314,10925.8
726.4277595,10443.4
730.9475271,10829.8
735.4604456,10733.4
739.9665264,11245.4
744.4657813,10859.4
748.9582215,10722.4
753.4438587,10402.8
757.9227042,10361
762.3947696,10759.2
766.8600662,10329
771.3186056,11331.2
775.770399,10668.2
780.215458,10963.8
784.6537939,10396.2
789.0854181,10449.6
793.510342,10559.4
797.9285769,11054.4
802.3401342,10744.4
806.7450253,10868.6
811.1432614,10878.4
815.5348538,10853.8
819.9198139,10542.4
824.2981531,10764.4
828.6698824,10714.8
833.0350133,10596.2
837.393557,10247.8
841.7455248,10545.6
846.0909278,10385.8
850.4297774,10256.6
854.7620848,10190.2
859.0878611,10446.4
863.4071176,10059.2
867.7198655,10535
872.026116,10658
876.3258802,10931
880.6191693,10551.8
884.9059946,10500.6
889.186367,10861.4
893.4602979,10138
897.7277982,10100.6
901.9888793,10464
906.2435521,10618.6
910.4918277,10241.8
914.7337174,10347
918.9692321,10184.4
923.1983831,10648.6
927.4211813,10417.2
931.6376378,10950
935.8477637,10622
940.0515701,10747
944.249068,10815.2
948.4402684,10332.8
952.6251825,10806.8
956.8038212,10572.4
960.9761955,10998.6
965.1423166,10740.8
969.3021953,10866.2
973.4558427,10769.2
977.6032699,10629.4
981.7444877,10721.6
985.8795072,10724
990.0083394,10804.2
994.1309953,10727.8
998.2474857,11285
1002.357822,11219.4
1006.462014,11693.8
1010.560075,11158.2
1014.652013,10804
1018.737841,10834.4
1022.81757,10405.8
1026.891209,10339
1030.958771,10270.4
1035.020266,10607.8
1039.075705,10425
1043.1251,10250.2
1047.16846,10652.4
1051.205797,10597.2
1055.237121,10747.6
1059.262444,11094.4
1063.281777,11699
1067.295131,13036
1071.302515,15853.2
1075.303942,17479.2
1079.299422,18460.8
1083.288966,16442.2
1087.272585,13762.8
1091.250289,11930.2
1095.222091,11115
1099.187999,10588.6
1103.148026,10644.6
1107.102183,10433.4
1111.050479,10506
1114.992927,10492.4
1118.929536,10412.4
1122.860318,10893.4
1126.785283,10774
1130.704443,11149.2
1134.617808,12337
1138.52539,12889.4
1142.427198,13081
1146.323244,12548.6
1150.213538,11673.6
1154.098093,11748.6
1157.976917,11166.2
1161.850023,11195
1165.717421,11696.2
1169.579121,11688.4
1173.435135,11897.6
1177.285474,11238
1181.130148,11304.6
1184.969169,11452.6
1188.802547,11181
1192.630292,10734.8
1196.452416,10351.6
1200.26893,10220.6
1204.079844,10094.4
1207.88517,9717.4
1211.684917,10237
1215.479098,9963.2
1219.267722,11033.6
1223.050801,9997.4
1226.828346,9956
1230.600366,10072.4
1234.366874,10247.4
1238.12788,10012.6
1241.883395,10018.6
1245.633429,10202.6
1249.377994,10096.8
1253.1171,9652.6
1256.850759,9855.2
1260.578981,9905.4
1264.301776,9854.4
1268.019157,9857.8
1271.731133,9642
1275.437715,9575.8
1279.138915,9977.6
1282.834743,10072.2
1286.52521,9915.8
1290.210328,9765.2
1293.890106,9892.4
1297.564555,10296.2
1301.233688,9906.4
1304.897514,10193.6
1308.556044,10317.8
1312.209289,10198.8
1315.857261,9790.2
1319.499969,9839.6
1323.137425,10385.8
1326.769641,10048.2
1330.396626,10379.8
1334.018391,10043.8
1337.634948,10073.6
1341.246307,9957.8
1344.85248,9959.6
1348.453477,9852.6
1352.049309,9852.4
1355.639987,9995.2
1359.225522,10392.6
1362.805925,10168
1366.381207,10269
1369.951379,10338
1373.516452,10441.4
1377.076436,10639.6
1380.631343,10560.2
1384.181184,10724.6
1387.725969,11104
1391.26571,10836.4
1394.800417,10548.6
1398.330102,10271.4
1401.854776,10154
1405.374448,9937.2
1408.889132,9659
1412.398837,9439.4
1415.903574,9873.4
1419.403355,10577.2
1422.89819,10533
1426.388091,10971.6
1429.873069,11633.6
1433.353134,11241.6
1436.828298,11059
1440.298571,10962.2
1443.763965,10470.4
1447.224491,10122.8
1450.68016,9987.6
1454.130983,10146.8
1457.576971,10052.4
1461.018135,10075.8
1464.454486,10190
1467.886036,9888.8
1471.312794,10048.4
1474.734774,9866.6
1478.151985,10241.8
1481.564439,10145.2
1484.972146,10203.6
1488.375119,10076.6
1491.773368,10324.4
1495.166904,10540.2
1498.555739,9898
1501.939883,9878.2
1505.319349,9609.4
1508.694146,9855.2
1512.064286,9810.4
1515.429781,9766.4
1518.790642,9683.4
1522.146879,9836.8
1525.498505,9561
1528.845529,9563.6
1532.187965,10208.2
1535.525822,10037.4
1538.859112,10142.8
1542.187846,10608.4
1545.512036,10162.4
1548.831693,11173.6
1552.146829,10894
1555.457453,10342.2
1558.763579,10307
1562.065216,10655.4
1565.362377,10880
1568.655073,11257.8
1571.943315,11274.6
1575.227114,11351
1578.506482,11238.2
1581.781431,11726.4
1585.051971,11690.2
1588.318114,11976.2
1591.579872,12046.4
1594.837255,11741
1598.090275,11280.6
1601.338945,10811.2
1604.583274,10559.8
1607.823275,9936.8
1611.058959,9626.6
1614.290338,10312
1617.517422,9409
1620.740224,9654
1623.958755,9355.6
1627.173027,9328.4
1630.38305,9071
1633.588838,9329.2
1636.7904,9184.6
1639.987749,9213.2
1643.180896,9341.6
1646.369853,9002.8
1649.554632,9412
1652.735244,8986
1655.9117,8756.2
1659.084013,9006
1662.252193,9379
1665.416254,8812.6
1668.576205,9095.4
1671.732059,9140.6
1674.883828,9181.4
1678.031523,8830.4
1681.175157,8995.4
1684.314739,9030.6
1687.450284,8985.2
1690.581801,8843.8
1693.709304,8794.4
1696.832803,8871
1699.952311,9019.2
1703.067839,9000.4
1706.179399,8959.6
1709.287003,9218.8
1712.390663,8937.6
1715.49039,8967.4
1718.586197,9220.2
1721.678095,9133.4
1724.766096,9054.2
1727.850213,8739.4
1730.930456,8904.8
1734.006838,8816
1737.079372,8997.6
1740.148067,8726.6
1743.212938,9491.6
1746.273996,9062.4
1749.331252,8930
1752.384718,9044.4
1755.434408,8919.2
1758.480332,8962
1761.522503,9123.6
1764.560933,8934.8
1767.595634,8584.6
1770.626618,9110.6
1773.653896,9139.4
1776.677482,8882
1779.697388,8864.4
1782.713625,9195
1785.726205,9184
1788.735141,9161.2
1791.740445,8913.6
1794.742129,8795.8
1797.740206,9114.8
1800.734687,9192.6
1803.725585,9120.4
1806.712912,9037.2
1809.69668,8815.4
1812.676902,8892.2
1815.65359,8696
1818.626756,8811.6
1821.596413,8908.4
1824.562573,8675.8
1827.525247,8940
1830.48445,8645.4
1833.440192,8863
1836.392487,8723.8
1839.341347,8995
1842.286784,8922.8
1845.22881,8558
1848.167439,9003.8
1851.102682,8808.4
1854.034553,8867.6
1856.963063,8721
1859.888226,9279.8
1862.810053,8968.6
1865.728557,8910.2
1868.643751,8694.6
1871.555648,8691.6
1874.46426,8533.4
1877.369599,8940.4
1880.271679,8747.6
1883.170512,8723.2
1886.06611,9014.4
1888.958487,8838.8
1891.847655,8731.2
1894.733626,8954.2
1897.616414,8882.4
1900.496032,8592
1903.372491,8826.2
1906.245805,9067.4
1909.115987,9073.4
1911.983049,8994.4
1914.847004,8960.2
1917.707866,9077.4
1920.565646,8993.2
1923.420359,8773.2
1926.272016,8941.2
1929.120631,8783.6
1931.966216,8802.4
1934.808786,8838.2
1937.648351,9054.2
1940.484927,8925
1943.318525,9004.6
1946.149158,9143.6
1948.97684,9855.2
1951.801584,9118.8
1954.623403,8971.2
1957.44231,9028.4
1960.258318,8781.2
1963.071439,8732.6
1965.881688,8933.4
1968.689078,8985
1971.493621,8815.8
