Ramanshift[cm-1],Intensity
-93.47115107,10569.2
-87.69374369,9768
-81.9253076,9674.2
-76.16582701,9692.4
-70.41528615,9674
-64.67366933,9533
-58.94096086,9495.6
-53.21714512,9796.2
-47.50220652,9857
-41.79612954,9752.2
-36.09889866,10067.4
-30.41049843,10279.8
-24.73091343,9917.8
-19.0601283,9885.6
-13.39812769,9815.2
-7.744896327,9613.8
-2.100418946,9570.4
3.535319659,9939.4
9.162334658,9502
14.78064118,9784.8
20.39025432,9513.4
25.99118913,9578.2
31.58346061,9959.2
37.16708375,9730.8
42.74207347,9447.4
48.30844468,9578.2
53.86621222,9466.4
59.41539093,9230.4
64.95599558,9222.6
70.48804091,9399.8
76.01154164,9518.8
81.52651243,9132.6
87.03296792,9428.8
92.5309227,9686.4
98.02039134,9197.4
103.5013884,9452.4
108.9739282,9310.2
114.4380255,9325.8
119.8936944,9421.2
125.3409495,9976.8
130.779805,9222.8
136.2102753,8987.2
141.6323747,9135.8
147.0461174,9580.8
152.4515176,9331.2
157.8485895,9199.8
163.2373472,9203.8
168.6178049,9434.2
173.9899766,9637.4
179.3538764,9275.8
184.7095182,9361
190.0569161,9562.8
195.396084,9563.2
200.7270358,9237.8
206.0497854,9109.6
211.3643466,9042.8
216.6707333,9358.8
221.9689593,9054.6
227.2590382,9199.6
232.5409839,9101.6
237.8148101,9133
243.0805303,9215.4
248.3381582,9139.4
253.5877075,8975
258.8291917,9076.6
264.0626244,9129.4
269.288019,9336
274.5053891,9411.2
279.7147481,9181
284.9161094,9055.4
290.1094865,9144.6
295.2948927,9458.6
300.4723414,10381.2
305.6418459,10843.4
310.8034194,11481.2
315.9570752,12166.8
321.1028267,12237.2
326.2406869,12258
331.370669,12504.2
336.4927863,12570.2
341.6070517,12524.4
346.7134786,12500.8
351.8120798,12723.8
356.9028684,12590.8
361.9858576,12619.8
367.0610602,12845.8
372.1284892,12668.6
377.1881577,13163.4
382.2400784,13496.6
387.2842644,14278.4
392.3207284,15129.2
397.3494833,14560.4
402.370542,14214.8
407.3839172,13373.6
412.3896217,12685.4
417.3876683,12097.4
422.3780697,12115
427.3608386,12065.2
432.3359876,12231.8
437.3035295,12351.2
442.2634769,12330.8
447.2158423,11724.6
452.1606383,11915
457.0978776,12111.8
462.0275727,11507.8
466.9497361,11843
471.8643802,11441.2
476.7715176,11921
481.6711608,11814.4
486.5633221,12158.6
491.448014,11854.4
496.3252488,11871.4
501.195039,11841.2
506.0573969,12024.2
510.9123349,11868.2
515.7598651,11415.4
520.6,11797
525.4327518,11773.8
530.2581327,11774.6
535.076155,11407.8
539.8868309,11785.8
544.6901726,11823
549.4861922,11549.2
554.2749019,12275.6
559.0563139,11519.4
563.8304402,11366
568.597293,12061
573.3568844,11886.8
578.1092263,11588.6
582.8543308,11737
587.5922101,11749.6
592.322876,11490.4
597.0463405,11615.4
601.7626157,11848
606.4717135,11523.8
611.1736458,11508
615.8684246,11542.2
620.5560617,11756.4
625.2365691,11452.4
629.9099585,11839.2
634.5762419,12084.2
639.2354312,11533.4
643.887538,11709.8
648.5325743,11471.8
653.1705518,11408
657.8014823,11649
662.4253775,11116
667.0422493,11323.4
671.6521092,11359.6
676.2549691,11421.4
680.8508407,11514.8
685.4397355,11433.2
690.0216654,11480.8
694.5966419,11406
699.1646767,11672.6
703.7257814,11618.6
708.2799676,11603.4
712.827247,11624.4
717.367631,11386.4
721.9011314,11330
726.4277595,10917
730.9475271,11425
735.4604456,11352.6
739.9665264,11623.6
744.4657813,11366.8
748.9582215,11299.2
753.4438587,10981.4
757.9227042,10887.6
762.3947696,11318
766.8600662,10962.6
771.3186056,11926.2
775.770399,11263.6
780.215458,11516.6
784.6537939,11021.2
789.0854181,10970.8
793.510342,11079
797.9285769,11531.4
802.3401342,11143.8
806.7450253,11267.4
811.1432614,11195.2
815.5348538,11066.4
819.9198139,10926.6
824.2981531,11049
828.6698824,11137
833.0350133,11025.6
837.393557,10726.8
841.7455248,11024.6
846.0909278,10872
850.4297774,10791.2
854.7620848,10874.2
859.0878611,11086.6
863.4071176,10622
867.7198655,11093.6
872.026116,11282.6
876.3258802,11545.8
880.6191693,11181
884.9059946,11158.2
889.186367,11525.2
893.4602979,10785.2
897.7277982,10730.6
901.9888793,11075
906.2435521,11168.4
910.4918277,10829.6
914.7337174,10841.8
918.9692321,10827.2
923.1983831,11251.4
927.4211813,11041.4
931.6376378,11598
935.8477637,11214.2
940.0515701,11367.2
944.249068,11355.6
948.4402684,10818.4
952.6251825,11425.4
956.8038212,11141.4
960.9761955,11627.2
965.1423166,11237.2
969.3021953,11234.2
973.4558427,11256.8
977.6032699,11205.4
981.7444877,11114
985.8795072,11006.8
990.0083394,11173
994.1309953,10881.2
998.2474857,11205
1002.357822,10662.2
1006.462014,11087.6
1010.560075,10849.2
1014.652013,11085
1018.737841,11328.6
1022.81757,10831
1026.891209,10874.8
1030.958771,10762
1035.020266,11032.8
1039.075705,10839.8
1043.1251,10555
1047.16846,10799.8
1051.205797,10797.8
1055.237121,10648.8
1059.262444,10652.2
1063.281777,10629
1067.295131,11015.6
1071.302515,12130.4
1075.303942,12199.2
1079.299422,12864.2
1083.288966,12238.8
1087.272585,11645.4
1091.250289,11083.8
1095.222091,11089.4
1099.187999,10739.2
1103.148026,10812.4
1107.102183,10580
1111.050479,10850
1114.992927,10683.6
1118.929536,10640.2
1122.860318,10870.8
1126.785283,10574.8
1130.704443,10570.6
1134.617808,11335.8
1138.52539,11316.4
1142.427198,11244
1146.323244,11271.6
1150.213538,10787.6
1154.098093,11016.6
1157.976917,10508
1161.850023,10460.4
1165.717421,10882.4
1169.579121,10710.4
1173.435135,11043
1177.285474,10526.6
1181.130148,10670.6
1184.969169,10884.8
1188.802547,10772.4
1192.630292,10489.2
1196.452416,10331.4
1200.26893,10321.4
1204.079844,10127
1207.88517,9798.8
1211.684917,10345.4
1215.479098,10007
1219.267722,11169.2
1223.050801,10066
1226.828346,10139.8
1230.600366,10283.6
1234.366874,10466
1238.12788,10259.8
1241.883395,10348.4
1245.633429,10494.4
1249.377994,10493.8
1253.1171,9968.6
1256.850759,10159.8
1260.578981,10269.6
1264.301776,10186.4
1268.019157,10156.8
1271.731133,9932.4
1275.437715,9762.2
1279.138915,10244.4
1282.834743,10406.6
1286.52521,10082
1290.210328,9993
1293.890106,10135.6
1297.564555,10379.4
1301.233688,10032.4
1304.897514,10320.6
1308.556044,10369.6
1312.209289,10329.4
1315.857261,10000.8
1319.499969,10125.2
1323.137425,10734.2
1326.769641,10281.2
1330.396626,10611.8
1334.018391,10277
1337.634948,10365.2
1341.246307,10270.8
1344.85248,10140.6
1348.453477,10050.8
1352.049309,10010.2
1355.639987,10009
1359.225522,10354.2
1362.805925,10187.2
1366.381207,10187
1369.951379,10310.4
1373.516452,10297.8
1377.076436,10494.8
1380.631343,10268.6
1384.181184,10259
1387.725969,10488
1391.26571,10238
1394.800417,10063.6
1398.330102,10064.4
1401.854776,10315.2
1405.374448,10073.4
1408.889132,9811
1412.398837,9521
1415.903574,9828.6
1419.403355,10316.4
1422.89819,10093.2
1426.388091,10190
1429.873069,10543
1433.353134,10139.8
1436.828298,10106.6
1440.298571,10219.2
1443.763965,9886.4
1447.224491,9772.8
1450.68016,9707.8
1454.130983,10120.4
1457.576971,10041.6
1461.018135,10119.6
1464.454486,10125.2
1467.886036,9768.6
1471.312794,9780.4
1474.734774,9692.8
1478.151985,10207.8
1481.564439,10014
1484.972146,9957.6
1488.375119,9742.6
1491.773368,9989.2
1495.166904,10354.8
1498.555739,9816.6
1501.939883,9902.4
1505.319349,9595.6
1508.694146,9888.2
1512.064286,9861.2
1515.429781,9888.4
1518.790642,9755
1522.146879,9906
1525.498505,9590.2
1528.845529,9539.6
1532.187965,10065.2
1535.525822,9780
1538.859112,9801.4
1542.187846,10191.2
1545.512036,9597.8
1548.831693,10575.8
1552.146829,10134.8
1555.457453,9618.6
1558.763579,9510.2
1562.065216,9833.2
1565.362377,10018.6
1568.655073,10240
1571.943315,10216.4
1575.227114,10224.4
1578.506482,10269.4
1581.781431,10709
1585.051971,10483.4
1588.318114,10633
1591.579872,10414.8
1594.837255,10309.8
1598.090275,9995.4
1601.338945,9950.8
1604.583274,10142.4
1607.823275,9848.6
1611.058959,9527.2
1614.290338,10234.8
1617.517422,9494
1620.740224,9602.6
1623.958755,9490.8
1627.173027,9525.4
1630.38305,9216.2
1633.588838,9531.6
1636.7904,9423.2
1639.987749,9457.2
1643.180896,9672
1646.369853,9272
1649.554632,9812
1652.735244,9367.6
1655.9117,9122
1659.084013,9369.8
1662.252193,9811.4
1665.416254,9230.2
1668.576205,9406.4
1671.732059,9571.2
1674.883828,9507.2
1678.031523,9253.8
1681.175157,9292.8
1684.314739,9392.2
1687.450284,9319.2
1690.581801,9221
1693.709304,9108.4
1696.832803,9154
1699.952311,9282.8
1703.067839,9306.8
1706.179399,9287
1709.287003,9486
1712.390663,9293
1715.49039,9307.2
1718.586197,9452
1721.678095,9405.8
1724.766096,9418.4
1727.850213,9042
1730.930456,9268
1734.006838,9126.6
1737.079372,9388.8
1740.148067,9062.6
1743.212938,9798.2
1746.273996,9266.4
1749.331252,9249.6
1752.384718,9338
1755.434408,9325
1758.480332,9259.4
1761.522503,9392.6
1764.560933,9254.4
1767.595634,8952
1770.626618,9427
1773.653896,9457
1776.677482,9201.8
1779.697388,9164.8
1782.713625,9549.6
1785.726205,9481.4
1788.735141,9466.8
1791.740445,9179.8
1794.742129,9109.8
1797.740206,9513.4
1800.734687,9488.2
1803.725585,9314.4
1806.712912,9313.6
1809.69668,9192
1812.676902,9180.6
1815.65359,8996.6
1818.626756,9086.8
1821.596413,9121
1824.562573,8935
1827.525247,9208.4
1830.48445,9041
1833.440192,9237.6
1836.392487,9116.2
1839.341347,9286.2
1842.286784,9263
1845.22881,8928.6
1848.167439,9302.6
1851.102682,9168.4
1854.034553,9115.2
1856.963063,9020
1859.888226,9641.6
1862.810053,9202.2
1865.728557,9149.4
1868.643751,8923.2
1871.555648,8955.4
1874.46426,8857.6
1877.369599,9213.4
1880.271679,9163.6
1883.170512,9034.6
1886.06611,9323.8
1888.958487,9045.2
1891.847655,9053
1894.733626,9220
1897.616414,9159
1900.496032,8923.8
1903.372491,9055.2
1906.245805,9295.4
1909.115987,9370
1911.983049,9341.6
1914.847004,9258.4
1917.707866,9410
1920.565646,9344.2
1923.420359,9026.6
1926.272016,9274.2
1929.120631,9055.8
1931.966216,9107.2
1934.808786,9145.4
1937.648351,9219.4
1940.484927,9169.8
1943.318525,9323
1946.149158,9459.4
1948.97684,10158
1951.801584,9447.2
1954.623403,9385.4
1957.44231,9393.4
1960.258318,9017.6
1963.071439,9054.8
1965.881688,9212.4
1968.689078,9312.4
1971.493621,9138.2
