Ramanshift[cm-1],Intensity
-93.47115107,10573.4
-87.69374369,9674.6
-81.9253076,9638.8
-76.16582701,9658.2
-70.41528615,9736.4
-64.67366933,9533
-58.94096086,9502.4
-53.21714512,9623.8
-47.50220652,9712.6
-41.79612954,9643.2
-36.09889866,10020.4
-30.41049843,10131.8
-24.73091343,9865.4
-19.0601283,9951.6
-13.39812769,9805.2
-7.744896327,9637.2
-2.100418946,9476
3.535319659,9836.6
9.162334658,9390
14.78064118,9743.4
20.39025432,9521
25.99118913,9443.4
31.58346061,9817.4
37.16708375,9603.6
42.74207347,9422.8
48.30844468,9472.6
53.86621222,9430.6
59.41539093,9128.2
64.95599558,9141.8
70.48804091,9399.6
76.01154164,9390
81.52651243,9080.4
87.03296792,9415
92.5309227,9552
98.02039134,9184.4
103.5013884,9324.6
108.9739282,9251.6
114.4380255,9258.6
119.8936944,9372.8
125.3409495,9923.8
130.779805,9142.2
136.2102753,8992.4
141.6323747,9122.2
147.0461174,9531.8
152.4515176,9269.2
157.8485895,9212.8
163.2373472,9167
168.6178049,9455.8
173.9899766,9554
179.3538764,9149.8
184.7095182,9299.4
190.0569161,9462.6
195.396084,9566
200.7270358,9113.4
206.0497854,9187.6
211.3643466,8983.4
216.6707333,9229.6
221.9689593,9016
227.2590382,9144.6
232.5409839,9101.8
237.8148101,9063
243.0805303,9196.8
248.3381582,9137.2
253.5877075,8986.2
258.8291917,9089.6
264.0626244,9066.2
269.288019,9216.8
274.5053891,9282.6
279.7147481,9118.6
284.9161094,8992.6
290.1094865,9057.8
295.2948927,9249.2
300.4723414,10048
305.6418459,10363.4
310.8034194,10726
315.9570752,11422.8
321.1028267,11501.4
326.2406869,11450.8
331.370669,11655
336.4927863,11693
341.6070517,11649.6
346.7134786,11602
351.8120798,11802.2
356.9028684,11575
361.9858576,11630.6
367.0610602,11861.6
372.1284892,11813.4
377.1881577,11986.4
382.2400784,12253.6
387.2842644,12595
392.3207284,12828
397.3494833,12639.4
402.370542,12531.6
407.3839172,11951.8
412.3896217,11602
417.3876683,11324.6
422.3780697,11263.8
427.3608386,11323.2
432.3359876,11478
437.3035295,11634.6
442.2634769,11796.6
447.2158423,11303
452.1606383,11371.8
457.0978776,11389.4
462.0275727,10998.6
466.9497361,11344.4
471.8643802,10915.2
476.7715176,11330.4
481.6711608,11195
486.5633221,11537.4
491.448014,11208.6
496.3252488,11269
501.195039,11162.6
506.0573969,11399.8
510.9123349,11199.4
515.7598651,10838.2
520.6,11223.4
525.4327518,11160.2
530.2581327,11303
535.076155,10904.8
539.8868309,11228
544.6901726,11335.6
549.4861922,11000.4
554.2749019,11692.2
559.0563139,11007.8
563.8304402,10910
568.597293,11707.2
573.3568844,11328.6
578.1092263,11074.6
582.8543308,11351.6
587.5922101,11253
592.322876,11028.4
597.0463405,11079.4
601.7626157,11347.8
606.4717135,11012
611.1736458,11066
615.8684246,11101.8
620.5560617,11328.2
625.2365691,11023.4
629.9099585,11320.6
634.5762419,11560
639.2354312,11048.8
643.887538,11172.4
648.5325743,11021.8
653.1705518,11055.6
657.8014823,11104.2
662.4253775,10682.6
667.0422493,10900.4
671.6521092,10993.8
676.2549691,11196.6
680.8508407,11012.2
685.4397355,11000.2
690.0216654,11148.2
694.5966419,10962.2
699.1646767,11226
703.7257814,11074.4
708.2799676,11159.6
712.827247,11214
717.367631,11085.8
721.9011314,11028.6
726.4277595,10610.2
730.9475271,11079.6
735.4604456,10910.6
739.9665264,11236.4
744.4657813,10982.4
748.9582215,10983
753.4438587,10636.8
757.9227042,10549.6
762.3947696,11004
766.8600662,10648.2
771.3186056,11657.6
775.770399,10905
780.215458,11158.8
784.6537939,10675.4
789.0854181,10695.2
793.510342,10754.8
797.9285769,11130
802.3401342,10760.2
806.7450253,10844
811.1432614,10811.4
815.5348538,10689.2
819.9198139,10619.6
824.2981531,10701
828.6698824,10859.8
833.0350133,10688.6
837.393557,10424.8
841.7455248,10805.8
846.0909278,10543.8
850.4297774,10513.8
854.7620848,10618.4
859.0878611,10833
863.4071176,10328.6
867.7198655,10819
872.026116,10974.2
876.3258802,11188.4
880.6191693,10937
884.9059946,10839
889.186367,11149.2
893.4602979,10521.2
897.7277982,10417
901.9888793,10695
906.2435521,10938.4
910.4918277,10495.4
914.7337174,10533
918.9692321,10440.8
923.1983831,10877
927.4211813,10686
931.6376378,11153.8
935.8477637,10780.4
940.0515701,10877.4
944.249068,10960
948.4402684,10336.8
952.6251825,11000
956.8038212,10659.6
960.9761955,11113.4
965.1423166,10711.8
969.3021953,10753.6
973.4558427,10784.4
977.6032699,10672
981.7444877,10719.8
985.8795072,10723.6
990.0083394,10808.8
994.1309953,10462.8
998.2474857,10871.4
1002.357822,10239.8
1006.462014,10635.6
1010.560075,10451.8
1014.652013,10683.2
1018.737841,10948.8
1022.81757,10525.6
1026.891209,10543
1030.958771,10466.8
1035.020266,10645.2
1039.075705,10534
1043.1251,10250.4
1047.16846,10496.6
1051.205797,10451.2
1055.237121,10236.6
1059.262444,10181.4
1063.281777,10061.4
1067.295131,10165
1071.302515,11016
1075.303942,10792.8
1079.299422,11478.4
1083.288966,11092.2
1087.272585,10823
1091.250289,10472.8
1095.222091,10561.8
1099.187999,10298.4
1103.148026,10432
1107.102183,10319.4
1111.050479,10556.4
1114.992927,10424.4
1118.929536,10347.8
1122.860318,10598
1126.785283,10197.8
1130.704443,10077.2
1134.617808,10618.2
1138.52539,10563.8
1142.427198,10532.4
1146.323244,10506
1150.213538,10357.2
1154.098093,10604.4
1157.976917,10148
1161.850023,10201.4
1165.717421,10449.4
1169.579121,10330.6
1173.435135,10578.6
1177.285474,10044
1181.130148,10073.6
1184.969169,10417.8
1188.802547,10293.6
1192.630292,10048
1196.452416,9929.6
1200.26893,9943.4
1204.079844,9788.6
1207.88517,9621
1211.684917,10088.2
1215.479098,9798.2
1219.267722,10858.8
1223.050801,9788.2
1226.828346,9885.2
1230.600366,10027
1234.366874,10104
1238.12788,9901.8
1241.883395,9927.4
1245.633429,10160.8
1249.377994,10141.4
1253.1171,9622.8
1256.850759,9902.8
1260.578981,9833.8
1264.301776,9838.8
1268.019157,9893.8
1271.731133,9668.2
1275.437715,9532
1279.138915,9875.2
1282.834743,10058.8
1286.52521,9824.4
1290.210328,9690.8
1293.890106,9776
1297.564555,10032.4
1301.233688,9647.4
1304.897514,9854
1308.556044,10057
1312.209289,9950.4
1315.857261,9670.8
1319.499969,9715
1323.137425,10176.6
1326.769641,9904
1330.396626,10320.8
1334.018391,9864
1337.634948,9947.6
1341.246307,9690.4
1344.85248,9689.2
1348.453477,9555.6
1352.049309,9598.4
1355.639987,9611
1359.225522,9962.4
1362.805925,9740.8
1366.381207,9849.2
1369.951379,9918.8
1373.516452,9844.2
1377.076436,9961
1380.631343,9851.6
1384.181184,9752
1387.725969,9848.6
1391.26571,9582.2
1394.800417,9533
1398.330102,9680.2
1401.854776,9870.2
1405.374448,9732.2
1408.889132,9416.2
1412.398837,9203.2
1415.903574,9442.6
1419.403355,9844.4
1422.89819,9502
1426.388091,9554.8
1429.873069,9965.2
1433.353134,9569.4
1436.828298,9512.4
1440.298571,9732.8
1443.763965,9463.4
1447.224491,9444.2
1450.68016,9509.6
1454.130983,9756.4
1457.576971,9776.6
1461.018135,9838.4
1464.454486,9885.4
1467.886036,9642.6
1471.312794,9663.8
1474.734774,9360.4
1478.151985,9824
1481.564439,9737
1484.972146,9729.6
1488.375119,9419.4
1491.773368,9649.2
1495.166904,10008.8
1498.555739,9601
1501.939883,9512.8
1505.319349,9305.2
1508.694146,9583.8
1512.064286,9608.8
1515.429781,9570.8
1518.790642,9484.8
1522.146879,9579.2
1525.498505,9248.2
1528.845529,9315
1532.187965,9887.8
1535.525822,9518.6
1538.859112,9546.2
1542.187846,9871.8
1545.512036,9289.2
1548.831693,10254.2
1552.146829,9841
1555.457453,9297
1558.763579,9122.4
1562.065216,9472.8
1565.362377,9602.4
1568.655073,9853
1571.943315,9774.8
1575.227114,9759
1578.506482,9665.6
1581.781431,10093.8
1585.051971,9879.8
1588.318114,9894.8
1591.579872,9892.4
1594.837255,9725.2
1598.090275,9575.6
1601.338945,9552.2
1604.583274,9795.2
1607.823275,9547.6
1611.058959,9322.6
1614.290338,10088.8
1617.517422,9264.4
1620.740224,9409.8
1623.958755,9243
1627.173027,9280.8
1630.38305,9068.2
1633.588838,9326.6
1636.7904,9174.8
1639.987749,9299.4
1643.180896,9495.2
1646.369853,9076
1649.554632,9725.2
1652.735244,9208.6
1655.9117,8957.6
1659.084013,9222
1662.252193,9669.4
1665.416254,9076.8
1668.576205,9255.6
1671.732059,9470.4
1674.883828,9420.4
1678.031523,9187.4
1681.175157,9123.6
1684.314739,9251.2
1687.450284,9145.2
1690.581801,9156.2
1693.709304,9016
1696.832803,9028.2
1699.952311,9164.4
1703.067839,9228.2
1706.179399,9193
1709.287003,9424.8
1712.390663,9209.8
1715.49039,9206.6
1718.586197,9434.2
1721.678095,9345.4
1724.766096,9376.6
1727.850213,8861.6
1730.930456,9212
1734.006838,9086.8
1737.079372,9324.2
1740.148067,9033.8
1743.212938,9842.4
1746.273996,9258.2
1749.331252,9160
1752.384718,9285
1755.434408,9308.4
1758.480332,9313.4
1761.522503,9325
1764.560933,9170.6
1767.595634,8853
1770.626618,9439.2
1773.653896,9411.2
1776.677482,9159.4
1779.697388,9116.2
1782.713625,9450
1785.726205,9350
1788.735141,9461
1791.740445,9191.6
1794.742129,9093
1797.740206,9385.4
1800.734687,9436.4
1803.725585,9366.4
1806.712912,9336
1809.69668,9077
1812.676902,9082.6
1815.65359,8961.4
1818.626756,9012.8
1821.596413,9121.2
1824.562573,8914.4
1827.525247,9119.8
1830.48445,9021.2
1833.440192,9119.8
1836.392487,9104.8
1839.341347,9245.4
1842.286784,9252.4
1845.22881,8801
1848.167439,9262.2
1851.102682,9114.6
1854.034553,9116
1856.963063,8979.2
1859.888226,9584
1862.810053,9200.2
1865.728557,9112.8
1868.643751,8896.4
1871.555648,8841.2
1874.46426,8760
1877.369599,9201.6
1880.271679,9102
1883.170512,9046
1886.06611,9238
1888.958487,8972.4
1891.847655,9037.4
1894.733626,9157
1897.616414,9166.8
1900.496032,8842.4
1903.372491,9127.8
1906.245805,9223.8
1909.115987,9337.2
1911.983049,9360
1914.847004,9249.6
1917.707866,9385.2
1920.565646,9255
1923.420359,9002
1926.272016,9245
1929.120631,8982.8
1931.966216,9103
1934.808786,9048
1937.648351,9212
1940.484927,9235.4
1943.318525,9310.2
1946.149158,9452
1948.97684,10122.6
1951.801584,9382
1954.623403,9176.2
1957.44231,9338.4
1960.258318,9050.8
1963.071439,9046
1965.881688,9087
1968.689078,9165.2
1971.493621,9053.4
