Ramanshift[cm-1],Intensity
-93.47115107,10520.2
-87.69374369,9626.6
-81.9253076,9447
-76.16582701,9470.8
-70.41528615,9521.8
-64.67366933,9375.4
-58.94096086,9383.6
-53.21714512,9547.8
-47.50220652,9659.8
-41.79612954,9687
-36.09889866,9910.6
-30.41049843,10103.8
-24.73091343,9827.4
-19.0601283,9820.4
-13.39812769,9653.2
-7.744896327,9507
-2.100418946,9328.6
3.535319659,9825
9.162334658,9293.8
14.78064118,9646.2
20.39025432,9400.6
25.99118913,9403.6
31.58346061,9801.2
37.16708375,9623.2
42.74207347,9315.8
48.30844468,9419.4
53.86621222,9256.8
59.41539093,9085.2
64.95599558,9058
70.48804091,9313.2
76.01154164,9464
81.52651243,9038.8
87.03296792,9358.8
92.5309227,9530.6
98.02039134,9106.6
103.5013884,9287.8
108.9739282,9214.4
114.4380255,9117.6
119.8936944,9285.2
125.3409495,9882.2
130.779805,9090.6
136.2102753,8941.2
141.6323747,9010.4
147.0461174,9461
152.4515176,9220
157.8485895,9123.6
163.2373472,9031.6
168.6178049,9341
173.9899766,9466.4
179.3538764,9152.2
184.7095182,9171.2
190.0569161,9379.4
195.396084,9444.2
200.7270358,9079.6
206.0497854,9045.6
211.3643466,8870.8
216.6707333,9139.8
221.9689593,8985.2
227.2590382,9031.6
232.5409839,9179.8
237.8148101,8957.4
243.0805303,9063.6
248.3381582,9039.2
253.5877075,8945.2
258.8291917,8988.6
264.0626244,9020.6
269.288019,9139.4
274.5053891,9343.6
279.7147481,9061.8
284.9161094,9056.8
290.1094865,9497.8
295.2948927,10667.2
300.4723414,13811
305.6418459,17216.4
310.8034194,20350.8
315.9570752,22447.2
321.1028267,22768.6
326.2406869,23118.2
331.370669,23499.4
336.4927863,23772.8
341.6070517,24107
346.7134786,24588
351.8120798,24815.4
356.9028684,24772.4
361.9858576,24796.8
367.0610602,24817.8
372.1284892,24641.8
377.1881577,24966
382.2400784,25469.4
387.2842644,26340.8
392.3207284,27062.4
397.3494833,26585.8
402.370542,26129.2
407.3839172,25482.6
412.3896217,24686.2
417.3876683,24120.8
422.3780697,23880.2
427.3608386,23664.4
432.3359876,23704.4
437.3035295,23640
442.2634769,23838.6
447.2158423,22899.2
452.1606383,23038.6
457.0978776,23208.8
462.0275727,22709.6
466.9497361,23069.4
471.8643802,22620.4
476.7715176,23054.2
481.6711608,23222.6
486.5633221,23482.6
491.448014,23340
496.3252488,23212
501.195039,23110.4
506.0573969,23190.2
510.9123349,22755.6
515.7598651,22359.4
520.6,22653.8
525.4327518,22525
530.2581327,22654.2
535.076155,22125
539.8868309,22553
544.6901726,22647
549.4861922,22256.6
554.2749019,22843.4
559.0563139,22092.8
563.8304402,21707.2
568.597293,22533.8
573.3568844,22163.4
578.1092263,21809.6
582.8543308,22153.2
587.5922101,22070.6
592.322876,21695.8
597.0463405,22053.6
601.7626157,22233.6
606.4717135,21774.8
611.1736458,21700.2
615.8684246,21651
620.5560617,22001.6
625.2365691,21696
629.9099585,21924.4
634.5762419,21965.4
639.2354312,21321.8
643.887538,21461.2
648.5325743,21095.6
653.1705518,21183.2
657.8014823,21289.2
662.4253775,20721.8
667.0422493,21106.8
671.6521092,21045.2
676.2549691,21187.2
680.8508407,21000.2
685.4397355,20873.6
690.0216654,21024
694.5966419,20822.2
699.1646767,21136.2
703.7257814,20915.6
708.2799676,20909
712.827247,20970.6
717.367631,20955
721.9011314,20774
726.4277595,20219.2
730.9475271,20533.6
735.4604456,20496.6
739.9665264,20669.6
744.4657813,20263.6
748.9582215,20149.4
753.4438587,19818
757.9227042,19694
762.3947696,19970.6
766.8600662,19550.6
771.3186056,20445.8
775.770399,19699.8
780.215458,19776.8
784.6537939,19311.2
789.0854181,19212.4
793.510342,19269.2
797.9285769,19594.2
802.3401342,19178.4
806.7450253,19097
811.1432614,18977.4
815.5348538,18757.6
819.9198139,18511.6
824.2981531,18554.8
828.6698824,18588
833.0350133,18354.2
837.393557,18011.6
841.7455248,18292
846.0909278,18018.2
850.4297774,17974.8
854.7620848,18051.2
859.0878611,18270.4
863.4071176,17852.4
867.7198655,18323.2
872.026116,18610
876.3258802,18741
880.6191693,18414.8
884.9059946,18282.2
889.186367,18677.2
893.4602979,17832.4
897.7277982,17735.8
901.9888793,18186.8
906.2435521,18392.2
910.4918277,17992.4
914.7337174,18078.6
918.9692321,18070.8
923.1983831,18446.4
927.4211813,18081.6
931.6376378,18658.6
935.8477637,18302.6
940.0515701,18450.2
944.249068,18501.6
948.4402684,17833.2
952.6251825,18421.2
956.8038212,18213.6
960.9761955,18618.6
965.1423166,18163.8
969.3021953,18215.2
973.4558427,18191.4
977.6032699,18147
981.7444877,18055.8
985.8795072,17886.2
990.0083394,17938.2
994.1309953,17769.2
998.2474857,18139.4
1002.357822,17485.2
1006.462014,18003.8
1010.560075,17848.6
1014.652013,17792.6
1018.737841,18017.8
1022.81757,17636
1026.891209,17495.6
1030.958771,17383.2
1035.020266,17674
1039.075705,17383.8
1043.1251,17160
1047.16846,17354.4
1051.205797,17126.6
1055.237121,17209.4
1059.262444,17316.6
1063.281777,17734.6
1067.295131,18234.8
1071.302515,19906.4
1075.303942,19767.6
1079.299422,20216.2
1083.288966,19066.2
1087.272585,18097.6
1091.250289,17638.2
1095.222091,17561.8
1099.187999,17007.2
1103.148026,17090.6
1107.102183,17000.4
1111.050479,16986.8
1114.992927,17002
1118.929536,17005.6
1122.860318,17410.6
1126.785283,17237.4
1130.704443,17420
1134.617808,18386.6
1138.52539,18636.6
1142.427198,18452.8
1146.323244,18080.2
1150.213538,17496.8
1154.098093,17464.4
1157.976917,16848.8
1161.850023,16945.4
1165.717421,17248.4
1169.579121,16753.8
1173.435135,17131.4
1177.285474,16618.6
1181.130148,16821.4
1184.969169,16987.8
1188.802547,16722.6
1192.630292,16485
1196.452416,16139.2
1200.26893,16136
1204.079844,15825.6
1207.88517,15630.4
1211.684917,16074.8
1215.479098,15692
1219.267722,16857
1223.050801,15824
1226.828346,15835.2
1230.600366,15908.4
1234.366874,15938.8
1238.12788,15787.2
1241.883395,15797.4
1245.633429,15904.4
1249.377994,15875.4
1253.1171,15330.6
1256.850759,15670.6
1260.578981,15518.8
1264.301776,15649
1268.019157,15553.4
1271.731133,15280.2
1275.437715,15107
1279.138915,15504.6
1282.834743,15618.2
1286.52521,15471.2
1290.210328,15310.4
1293.890106,15370.8
1297.564555,15706.6
1301.233688,15326.4
1304.897514,15606.4
1308.556044,15694.4
1312.209289,15767.6
1315.857261,15301
1319.499969,15281.2
1323.137425,15781.6
1326.769641,15490.6
1330.396626,15883
1334.018391,15439.2
1337.634948,15473.4
1341.246307,15302
1344.85248,15319
1348.453477,15027.8
1352.049309,15183.2
1355.639987,15092
1359.225522,15568
1362.805925,15111.4
1366.381207,15208.4
1369.951379,15342
1373.516452,15337.2
1377.076436,15418.8
1380.631343,15412
1384.181184,15485.6
1387.725969,15729
1391.26571,15499.6
1394.800417,15333.8
1398.330102,15006.4
1401.854776,15142.6
1405.374448,14992
1408.889132,14611.6
1412.398837,14383
1415.903574,14582.8
1419.403355,15232
1422.89819,15047.4
1426.388091,15116.2
1429.873069,15588.4
1433.353134,15204.2
1436.828298,15069.4
1440.298571,14933.6
1443.763965,14594.2
1447.224491,14389.4
1450.68016,14215.2
1454.130983,14492.4
1457.576971,14325.6
1461.018135,14403.6
1464.454486,14512.8
1467.886036,14086.4
1471.312794,14129.4
1474.734774,14014
1478.151985,14214
1481.564439,14095.2
1484.972146,14029
1488.375119,13671.8
1491.773368,13948.8
1495.166904,14270.2
1498.555739,13853
1501.939883,13845.8
1505.319349,13368.8
1508.694146,13798.2
1512.064286,13842.4
1515.429781,13730.2
1518.790642,13585.8
1522.146879,13753
1525.498505,13453.8
1528.845529,13368.8
1532.187965,13988
1535.525822,13535.4
1538.859112,13660.8
1542.187846,14006.2
1545.512036,13387
1548.831693,14305.2
1552.146829,14044.2
1555.457453,13436.2
1558.763579,13308.4
1562.065216,13744.4
1565.362377,14058.2
1568.655073,14418.4
1571.943315,14557.6
1575.227114,14578
1578.506482,14322.6
1581.781431,14696.4
1585.051971,14308.8
1588.318114,14252.2
1591.579872,14028.2
1594.837255,13544.4
1598.090275,13423.8
1601.338945,13197
1604.583274,13333.8
1607.823275,13002.4
1611.058959,12593.2
1614.290338,13374
1617.517422,12463.4
1620.740224,12736
1623.958755,12486.2
1627.173027,12422
1630.38305,12138
1633.588838,12424
1636.7904,12315.4
1639.987749,12292
1643.180896,12328
1646.369853,11999
1649.554632,12472.2
1652.735244,12125.6
1655.9117,11721.2
1659.084013,11937.6
1662.252193,12363.8
1665.416254,11818.4
1668.576205,12045.6
1671.732059,12002.2
1674.883828,12095.8
1678.031523,11722.2
1681.175157,11817
1684.314739,11860.8
1687.450284,11660.8
1690.581801,11536
1693.709304,11384
1696.832803,11439
1699.952311,11584.8
1703.067839,11636.4
1706.179399,11618.2
1709.287003,11808
1712.390663,11483.6
1715.49039,11539
1718.586197,11794.6
1721.678095,11599.6
1724.766096,11588.6
1727.850213,11195.2
1730.930456,11418
1734.006838,11280.2
1737.079372,11537
1740.148067,11226.6
1743.212938,11950.2
1746.273996,11328.4
1749.331252,11261.6
1752.384718,11309.6
1755.434408,11272.6
1758.480332,11185.4
1761.522503,11310.6
1764.560933,11049.6
1767.595634,10852.8
1770.626618,11328.8
1773.653896,11286.4
1776.677482,11022.8
1779.697388,11031
1782.713625,11378.8
1785.726205,11320
1788.735141,11342.4
1791.740445,11032.4
1794.742129,10933
1797.740206,11283.4
1800.734687,11290
1803.725585,11171
1806.712912,11134.4
1809.69668,10870.6
1812.676902,10990
1815.65359,10752.2
1818.626756,10824
1821.596413,10936.2
1824.562573,10666.4
1827.525247,10956.8
1830.48445,10766.4
1833.440192,10840.4
1836.392487,10827
1839.341347,10989.8
1842.286784,10959.4
1845.22881,10509.8
1848.167439,10972.8
1851.102682,10863.8
1854.034553,10792.8
1856.963063,10633.2
1859.888226,11289.8
1862.810053,10878
1865.728557,10812.8
1868.643751,10584
1871.555648,10583.4
1874.46426,10327.6
1877.369599,10765.8
1880.271679,10610.4
1883.170512,10549.8
1886.06611,10808.2
1888.958487,10569.4
1891.847655,10617.6
1894.733626,10677.2
1897.616414,10737.8
1900.496032,10343.4
1903.372491,10614.2
1906.245805,10822.8
1909.115987,10851.8
1911.983049,10738.8
1914.847004,10789
1917.707866,10829.4
1920.565646,10746.8
1923.420359,10498.6
1926.272016,10699.4
1929.120631,10489.8
1931.966216,10559.4
1934.808786,10462.2
1937.648351,10616.4
1940.484927,10631.2
1943.318525,10659.2
1946.149158,10893
1948.97684,11474
1951.801584,10770.2
1954.623403,10640.4
1957.44231,10656
1960.258318,10372
1963.071439,10460.8
1965.881688,10445.2
1968.689078,10588.2
1971.493621,10362.2
