Ramanshift[cm-1],Intensity
-93.47115107,10651.4
-87.69374369,9747.2
-81.9253076,9755.4
-76.16582701,9727.2
-70.41528615,9767.8
-64.67366933,9604.2
-58.94096086,9525.6
-53.21714512,9740.6
-47.50220652,9856
-41.79612954,9774.2
-36.09889866,10113.2
-30.41049843,10290
-24.73091343,9969.6
-19.0601283,10075.2
-13.39812769,9818.6
-7.744896327,9740
-2.100418946,9556
3.535319659,10030
9.162334658,9567.6
14.78064118,9685.6
20.39025432,9536.8
25.99118913,9488.6
31.58346061,9995
37.16708375,9798
42.74207347,9464
48.30844468,9585
53.86621222,9493.8
59.41539093,9230.6
64.95599558,9151
70.48804091,9473.4
76.01154164,9573.6
81.52651243,9102.2
87.03296792,9498.6
92.5309227,9726.2
98.02039134,9309.2
103.5013884,9482.8
108.9739282,9378.6
114.4380255,9344.6
119.8936944,9533.2
125.3409495,10095.2
130.779805,9325
136.2102753,9108
141.6323747,9161.4
147.0461174,9562.6
152.4515176,9317.4
157.8485895,9328.6
163.2373472,9266.6
168.6178049,9465.6
173.9899766,9655
179.3538764,9264.4
184.7095182,9354.2
190.0569161,9592.8
195.396084,9618.8
200.7270358,9225.6
206.0497854,9197.4
211.3643466,9034.8
216.6707333,9351.6
221.9689593,9147
227.2590382,9307.2
232.5409839,9191.4
237.8148101,9147.8
243.0805303,9121.8
248.3381582,9139.4
253.5877075,9076.6
258.8291917,9166.6
264.0626244,9129.2
269.288019,9335.6
274.5053891,9461.4
279.7147481,9177.2
284.9161094,9022.8
290.1094865,9151.2
295.2948927,9410.8
300.4723414,10029.4
305.6418459,10203.2
310.8034194,10426.8
315.9570752,11078
321.1028267,11260.8
326.2406869,11196.8
331.370669,11297.6
336.4927863,11378
341.6070517,11326.4
346.7134786,11102
351.8120798,11286.4
356.9028684,11137.8
361.9858576,11347.2
367.0610602,11483.2
372.1284892,11288.4
377.1881577,11479.6
382.2400784,11496
387.2842644,11506
392.3207284,11830.2
397.3494833,11549.4
402.370542,11746.6
407.3839172,11277.4
412.3896217,11142.8
417.3876683,10857.6
422.3780697,10920.4
427.3608386,10967.6
432.3359876,11200.8
437.3035295,11290.4
442.2634769,11450.6
447.2158423,10930.4
452.1606383,11036.8
457.0978776,11103.2
462.0275727,10697.8
466.9497361,11022.4
471.8643802,10627.4
476.7715176,11028.8
481.6711608,10964.8
486.5633221,11212.2
491.448014,11037.2
496.3252488,10984.6
501.195039,10961.2
506.0573969,11165.8
510.9123349,10934
515.7598651,10611
520.6,11003.2
525.4327518,10954.8
530.2581327,10971
535.076155,10611
539.8868309,10910.8
544.6901726,10994.8
549.4861922,10778.6
554.2749019,11432.8
559.0563139,10840.4
563.8304402,10697.6
568.597293,11412.2
573.3568844,11097
578.1092263,10799
582.8543308,11204.8
587.5922101,11032.8
592.322876,10840.4
597.0463405,10863.4
601.7626157,11134.2
606.4717135,10742.6
611.1736458,10737.4
615.8684246,10804.8
620.5560617,11046.6
625.2365691,10849.4
629.9099585,11083.8
634.5762419,11295.4
639.2354312,10892.4
643.887538,11021.6
648.5325743,10697.4
653.1705518,10783.2
657.8014823,10940
662.4253775,10482
667.0422493,10733
671.6521092,10696
676.2549691,10954.6
680.8508407,10823.2
685.4397355,10731.6
690.0216654,10878
694.5966419,10719
699.1646767,10956.6
703.7257814,10743.6
708.2799676,10866
712.827247,11034.2
717.367631,10815.2
721.9011314,10706.4
726.4277595,10269.2
730.9475271,10832.2
735.4604456,10861
739.9665264,11130.2
744.4657813,10715.8
748.9582215,10677
753.4438587,10415.8
757.9227042,10282.6
762.3947696,10722.8
766.8600662,10426.2
771.3186056,11438.6
775.770399,10659.6
780.215458,10957.8
784.6537939,10469.2
789.0854181,10390.2
793.510342,10497.6
797.9285769,10822.6
802.3401342,10483.2
806.7450253,10626
811.1432614,10511.4
815.5348538,10499.2
819.9198139,10340.4
824.2981531,10540.6
828.6698824,10613.4
833.0350133,10481.8
837.393557,10295.8
841.7455248,10474.2
846.0909278,10500.8
850.4297774,10218.6
854.7620848,10429.2
859.0878611,10552
863.4071176,10201.2
867.7198655,10559.6
872.026116,10780.4
876.3258802,11067.2
880.6191693,10678.2
884.9059946,10724.8
889.186367,10993.6
893.4602979,10124.2
897.7277982,10235.4
901.9888793,10524.6
906.2435521,10677.2
910.4918277,10322.8
914.7337174,10270.8
918.9692321,10202.2
923.1983831,10621.2
927.4211813,10450
931.6376378,10903.2
935.8477637,10558.2
940.0515701,10666.2
944.249068,10619.2
948.4402684,10077.8
952.6251825,10684
956.8038212,10422
960.9761955,10874.6
965.1423166,10491.8
969.3021953,10517.2
973.4558427,10519.8
977.6032699,10370.8
981.7444877,10518.4
985.8795072,10362.4
990.0083394,10454.8
994.1309953,10279.4
998.2474857,10594.6
1002.357822,9930.6
1006.462014,10381
1010.560075,10133.4
1014.652013,10381.4
1018.737841,10688
1022.81757,10306.8
1026.891209,10346.2
1030.958771,10123.2
1035.020266,10528.4
1039.075705,10284.6
1043.1251,10240.6
1047.16846,10248
1051.205797,10197.8
1055.237121,10067.2
1059.262444,10056.6
1063.281777,9879
1067.295131,9882.4
1071.302515,10689.8
1075.303942,10320
1079.299422,10958.4
1083.288966,10549.6
1087.272585,10432.4
1091.250289,10418
1095.222091,10411.2
1099.187999,10221.8
1103.148026,10272.8
1107.102183,10260.6
1111.050479,10394.2
1114.992927,10326.6
1118.929536,10253.2
1122.860318,10443
1126.785283,10090.6
1130.704443,9883.8
1134.617808,10473.4
1138.52539,10398
1142.427198,10356.8
1146.323244,10455
1150.213538,10209.2
1154.098093,10424
1157.976917,10102
1161.850023,10031.8
1165.717421,10460.2
1169.579121,10214.8
1173.435135,10362.8
1177.285474,9830.6
1181.130148,9874
1184.969169,10228.8
1188.802547,10195.2
1192.630292,9910.2
1196.452416,9747.2
1200.26893,9864.4
1204.079844,9681.2
1207.88517,9484.4
1211.684917,10035.2
1215.479098,9667.8
1219.267722,10693.2
1223.050801,9757.4
1226.828346,9744.8
1230.600366,9876.4
1234.366874,9973.4
1238.12788,9764.8
1241.883395,9911.6
1245.633429,10006.2
1249.377994,9975.6
1253.1171,9486.6
1256.850759,9804.8
1260.578981,9737.4
1264.301776,9789.2
1268.019157,9774.2
1271.731133,9563
1275.437715,9315
1279.138915,9808.8
1282.834743,10002.6
1286.52521,9702.8
1290.210328,9590.4
1293.890106,9679.8
1297.564555,10030.2
1301.233688,9536.8
1304.897514,9801.8
1308.556044,9872.6
1312.209289,9951.8
1315.857261,9547.8
1319.499969,9617.2
1323.137425,10105.6
1326.769641,9810.4
1330.396626,10168.8
1334.018391,9799.6
1337.634948,9892.8
1341.246307,9623
1344.85248,9615.8
1348.453477,9527.2
1352.049309,9514.4
1355.639987,9559.6
1359.225522,9986
1362.805925,9642.6
1366.381207,9775.8
1369.951379,9756.8
1373.516452,9845
1377.076436,9962.4
1380.631343,9723.8
1384.181184,9578.4
1387.725969,9711.6
1391.26571,9512.6
1394.800417,9508.4
1398.330102,9596.8
1401.854776,9778.2
1405.374448,9714.8
1408.889132,9336.4
1412.398837,9184
1415.903574,9470.2
1419.403355,9909.2
1422.89819,9545.2
1426.388091,9444.8
1429.873069,9792.8
1433.353134,9414
1436.828298,9480.2
1440.298571,9630.2
1443.763965,9413.4
1447.224491,9375
1450.68016,9385
1454.130983,9724.2
1457.576971,9614
1461.018135,9754.8
1464.454486,9837
1467.886036,9519.4
1471.312794,9574.4
1474.734774,9299.4
1478.151985,9816.6
1481.564439,9625.6
1484.972146,9656
1488.375119,9302.2
1491.773368,9657
1495.166904,10086
1498.555739,9597.8
1501.939883,9541.2
1505.319349,9265
1508.694146,9650.4
1512.064286,9603.4
1515.429781,9525.6
1518.790642,9424.2
1522.146879,9542.2
1525.498505,9292.4
1528.845529,9321.8
1532.187965,9824
1535.525822,9527.2
1538.859112,9476.8
1542.187846,9935.8
1545.512036,9257.6
1548.831693,10202.8
1552.146829,9784
1555.457453,9218
1558.763579,8999.2
1562.065216,9352.2
1565.362377,9568.2
1568.655073,9717.4
1571.943315,9619.8
1575.227114,9643.8
1578.506482,9527
1581.781431,9913.2
1585.051971,9566.4
1588.318114,9642.4
1591.579872,9653.4
1594.837255,9583
1598.090275,9452.2
1601.338945,9478.4
1604.583274,9788.8
1607.823275,9491
1611.058959,9176.8
1614.290338,10109
1617.517422,9108.4
1620.740224,9447
1623.958755,9212.6
1627.173027,9199.8
1630.38305,8988.4
1633.588838,9263.4
1636.7904,9240.6
1639.987749,9284.2
1643.180896,9377.8
1646.369853,9024.6
1649.554632,9518.6
1652.735244,9207.6
1655.9117,8956
1659.084013,9222
1662.252193,9597
1665.416254,9043.8
1668.576205,9224.8
1671.732059,9406.4
1674.883828,9449.2
1678.031523,9122.2
1681.175157,9248.8
1684.314739,9236.8
1687.450284,9123.4
1690.581801,9154
1693.709304,8971.2
1696.832803,9064.2
1699.952311,9179.8
1703.067839,9269
1706.179399,9176
1709.287003,9498
1712.390663,9163.6
1715.49039,9234.4
1718.586197,9420.4
1721.678095,9365.6
1724.766096,9347.2
1727.850213,8954
1730.930456,9223.4
1734.006838,9093.8
1737.079372,9323.4
1740.148067,9053.4
1743.212938,9795.6
1746.273996,9257.8
1749.331252,9215
1752.384718,9306.6
1755.434408,9266
1758.480332,9268.2
1761.522503,9266.8
1764.560933,9177.8
1767.595634,8882.6
1770.626618,9373
1773.653896,9331.4
1776.677482,9165.6
1779.697388,9169
1782.713625,9467
1785.726205,9415.4
1788.735141,9437.8
1791.740445,9124.6
1794.742129,9116.2
1797.740206,9432.4
1800.734687,9514.8
1803.725585,9328
1806.712912,9250
1809.69668,9096
1812.676902,9186.8
1815.65359,8976.8
1818.626756,9089.8
1821.596413,9179.2
1824.562573,8919.8
1827.525247,9200.8
1830.48445,9018.8
1833.440192,9147
1836.392487,9109
1839.341347,9210.6
1842.286784,9307.8
1845.22881,8764.2
1848.167439,9191
1851.102682,9182.8
1854.034553,9063.8
1856.963063,8995.6
1859.888226,9550.6
1862.810053,9246
1865.728557,9105.6
1868.643751,8931
1871.555648,8949.8
1874.46426,8780.6
1877.369599,9191
1880.271679,9032.6
1883.170512,9021.6
1886.06611,9291
1888.958487,9064.4
1891.847655,9041
1894.733626,9189.4
1897.616414,9206
1900.496032,8904
1903.372491,9034
1906.245805,9302
1909.115987,9376.2
1911.983049,9302.2
1914.847004,9240.8
1917.707866,9305.8
1920.565646,9314.4
1923.420359,9077.4
1926.272016,9246.4
1929.120631,9000.2
1931.966216,9117.2
1934.808786,9075
1937.648351,9262.8
1940.484927,9252
1943.318525,9339
1946.149158,9473.6
1948.97684,10093.6
1951.801584,9392.4
1954.623403,9260.4
1957.44231,9269.6
1960.258318,8990.8
1963.071439,9040.4
1965.881688,9184
1968.689078,9321.4
1971.493621,9144.2
