Ramanshift[cm-1],Intensity
-93.47115107,10665.8
-87.69374369,9885.6
-81.9253076,9700
-76.16582701,9804.8
-70.41528615,9847.4
-64.67366933,9606.2
-58.94096086,9526.8
-53.21714512,9739
-47.50220652,9904.8
-41.79612954,9870.8
-36.09889866,10103.6
-30.41049843,10319
-24.73091343,10018.6
-19.0601283,10057.8
-13.39812769,9892.2
-7.744896327,9653.8
-2.100418946,9601.6
3.535319659,10033.2
9.162334658,9499
14.78064118,9928.4
20.39025432,9577.6
25.99118913,9586.4
31.58346061,10016
37.16708375,9845.4
42.74207347,9573.2
48.30844468,9628.8
53.86621222,9522.8
59.41539093,9260.4
64.95599558,9232.4
70.48804091,9519.6
76.01154164,9670
81.52651243,9283.2
87.03296792,9592.6
92.5309227,9747.8
98.02039134,9272.4
103.5013884,9462.2
108.9739282,9335.2
114.4380255,9331.6
119.8936944,9558.4
125.3409495,10158
130.779805,9315.6
136.2102753,9181
141.6323747,9206.8
147.0461174,9633.8
152.4515176,9429
157.8485895,9378.2
163.2373472,9209.8
168.6178049,9479
173.9899766,9737.4
179.3538764,9308.8
184.7095182,9444
190.0569161,9620.6
195.396084,9704
200.7270358,9230
206.0497854,9260.4
211.3643466,9047.2
216.6707333,9455.8
221.9689593,9127.8
227.2590382,9280.2
232.5409839,9246.6
237.8148101,9215.6
243.0805303,9234.2
248.3381582,9161
253.5877075,9153.2
258.8291917,9153.8
264.0626244,9258.2
269.288019,9373.8
274.5053891,9545.4
279.7147481,9278.4
284.9161094,9035
290.1094865,9168.2
295.2948927,9500.4
300.4723414,10270
305.6418459,10505.2
310.8034194,10870.4
315.9570752,11648.6
321.1028267,11701.4
326.2406869,11595.4
331.370669,11891.6
336.4927863,11800.8
341.6070517,11887.8
346.7134786,11732.8
351.8120798,11973.4
356.9028684,11847.8
361.9858576,11849.6
367.0610602,11986.8
372.1284892,11938
377.1881577,12148.2
382.2400784,12430.2
387.2842644,13019
392.3207284,13493.6
397.3494833,13120.4
402.370542,13032.8
407.3839172,12252.6
412.3896217,11904.4
417.3876683,11450.6
422.3780697,11430.6
427.3608386,11508.6
432.3359876,11628.8
437.3035295,11713
442.2634769,11792.2
447.2158423,11320
452.1606383,11410.2
457.0978776,11585.8
462.0275727,11058
466.9497361,11457
471.8643802,10974.8
476.7715176,11415.6
481.6711608,11391.8
486.5633221,11683.2
491.448014,11416.6
496.3252488,11447.8
501.195039,11407.4
506.0573969,11571.2
510.9123349,11307.4
515.7598651,10992.4
520.6,11385.6
525.4327518,11279
530.2581327,11436.8
535.076155,10980
539.8868309,11314.8
544.6901726,11358.8
549.4861922,11072.8
554.2749019,11771.6
559.0563139,11135
563.8304402,10937.2
568.597293,11600.2
573.3568844,11438.6
578.1092263,11118
582.8543308,11468.6
587.5922101,11365.6
592.322876,11019.8
597.0463405,11230
601.7626157,11352.6
606.4717135,11089.6
611.1736458,11083
615.8684246,11160.4
620.5560617,11447.6
625.2365691,11117.8
629.9099585,11459
634.5762419,11652.4
639.2354312,11132.4
643.887538,11355.2
648.5325743,11103.8
653.1705518,11015.8
657.8014823,11275.8
662.4253775,10770.4
667.0422493,11022.6
671.6521092,11050
676.2549691,11164.2
680.8508407,11134
685.4397355,11073
690.0216654,11160.4
694.5966419,11002
699.1646767,11305.2
703.7257814,11193
708.2799676,11291.8
712.827247,11339.6
717.367631,11200.6
721.9011314,11097.2
726.4277595,10589.6
730.9475271,11048
735.4604456,11050.6
739.9665264,11370.6
744.4657813,11018.4
748.9582215,10978.6
753.4438587,10657.4
757.9227042,10599.8
762.3947696,11100
766.8600662,10749
771.3186056,11709.6
775.770399,11010
780.215458,11222.6
784.6537939,10780.8
789.0854181,10656.6
793.510342,10830.2
797.9285769,11274.8
802.3401342,10822.2
806.7450253,10998
811.1432614,10905.4
815.5348538,10828.4
819.9198139,10672.2
824.2981531,10842
828.6698824,10804
833.0350133,10783.8
837.393557,10574.2
841.7455248,10780.6
846.0909278,10655.6
850.4297774,10597.4
854.7620848,10595
859.0878611,10881.4
863.4071176,10402.4
867.7198655,10854.2
872.026116,10967.4
876.3258802,11313
880.6191693,11037.8
884.9059946,10936.4
889.186367,11361
893.4602979,10551.6
897.7277982,10519.4
901.9888793,10817.2
906.2435521,10988
910.4918277,10605.2
914.7337174,10639
918.9692321,10538.6
923.1983831,10967.4
927.4211813,10804
931.6376378,11253.8
935.8477637,10901.6
940.0515701,11051.6
944.249068,11050.6
948.4402684,10476.4
952.6251825,11057
956.8038212,10890.8
960.9761955,11267.2
965.1423166,10811
969.3021953,10906
973.4558427,10942.2
977.6032699,10804.4
981.7444877,10909
985.8795072,10748
990.0083394,10938.8
994.1309953,10613.2
998.2474857,10998.6
1002.357822,10415.6
1006.462014,10727.8
1010.560075,10565
1014.652013,10761.2
1018.737841,10985.2
1022.81757,10594.6
1026.891209,10573.4
1030.958771,10546.6
1035.020266,10838.8
1039.075705,10558.6
1043.1251,10430.2
1047.16846,10576
1051.205797,10579
1055.237121,10357.6
1059.262444,10384.8
1063.281777,10296.6
1067.295131,10528.4
1071.302515,11425.4
1075.303942,11312.6
1079.299422,11918.2
1083.288966,11437.2
1087.272585,11150.6
1091.250289,10804.2
1095.222091,10770
1099.187999,10373.2
1103.148026,10528
1107.102183,10475.2
1111.050479,10559.8
1114.992927,10513
1118.929536,10449.2
1122.860318,10692.6
1126.785283,10254
1130.704443,10319
1134.617808,10924.8
1138.52539,11007.2
1142.427198,10855.2
1146.323244,10873.4
1150.213538,10442
1154.098093,10653
1157.976917,10309.4
1161.850023,10232.2
1165.717421,10630
1169.579121,10409.8
1173.435135,10685.2
1177.285474,10122.4
1181.130148,10255.4
1184.969169,10581.4
1188.802547,10456
1192.630292,10270.2
1196.452416,9994.4
1200.26893,10049.6
1204.079844,9960.4
1207.88517,9678.4
1211.684917,10147
1215.479098,9806.8
1219.267722,10891
1223.050801,9819.6
1226.828346,9946.4
1230.600366,10093.2
1234.366874,10214.4
1238.12788,9991.4
1241.883395,10074.4
1245.633429,10230.2
1249.377994,10247.8
1253.1171,9686.8
1256.850759,10033.4
1260.578981,9881.2
1264.301776,9942.6
1268.019157,9828
1271.731133,9730
1275.437715,9591.4
1279.138915,9993.8
1282.834743,10150.4
1286.52521,9879.6
1290.210328,9881.8
1293.890106,9865
1297.564555,10153.2
1301.233688,9825.4
1304.897514,10109.2
1308.556044,10175.4
1312.209289,10197.2
1315.857261,9784.4
1319.499969,9796.2
1323.137425,10370.2
1326.769641,10063.4
1330.396626,10408.2
1334.018391,9969.8
1337.634948,10037.4
1341.246307,9852.8
1344.85248,9783.4
1348.453477,9810.2
1352.049309,9741.4
1355.639987,9744.8
1359.225522,10186.8
1362.805925,9868
1366.381207,9970.8
1369.951379,9997.2
1373.516452,10043
1377.076436,10182.6
1380.631343,10049.4
1384.181184,9913
1387.725969,10075
1391.26571,9826
1394.800417,9721
1398.330102,9798.8
1401.854776,9958.6
1405.374448,9866.8
1408.889132,9515.2
1412.398837,9353.8
1415.903574,9625
1419.403355,10091.6
1422.89819,9811
1426.388091,9826
1429.873069,10167.2
1433.353134,9833.2
1436.828298,9814.2
1440.298571,9968.8
1443.763965,9584.6
1447.224491,9498.4
1450.68016,9589
1454.130983,9838.4
1457.576971,9830.6
1461.018135,9955
1464.454486,10012.4
1467.886036,9719.4
1471.312794,9683
1474.734774,9534.4
1478.151985,10044.6
1481.564439,9793.2
1484.972146,9837.8
1488.375119,9492.4
1491.773368,9802
1495.166904,10210.8
1498.555739,9744.8
1501.939883,9785.2
1505.319349,9371.2
1508.694146,9741.4
1512.064286,9749.2
1515.429781,9708.4
1518.790642,9535.2
1522.146879,9667.8
1525.498505,9366.4
1528.845529,9376.8
1532.187965,9977
1535.525822,9657.4
1538.859112,9656
1542.187846,10094.4
1545.512036,9395.2
1548.831693,10386.8
1552.146829,9976.4
1555.457453,9327.8
1558.763579,9255.8
1562.065216,9605
1565.362377,9739.8
1568.655073,9995.8
1571.943315,9882.8
1575.227114,9864.2
1578.506482,9846
1581.781431,10247.2
1585.051971,9997.8
1588.318114,10141.6
1591.579872,10066.6
1594.837255,9955.4
1598.090275,9736.6
1601.338945,9767.8
1604.583274,9877.4
1607.823275,9661.8
1611.058959,9331.8
1614.290338,10152.6
1617.517422,9288.2
1620.740224,9465.6
1623.958755,9362
1627.173027,9320.4
1630.38305,9067.2
1633.588838,9452.4
1636.7904,9274.8
1639.987749,9345.8
1643.180896,9544.2
1646.369853,9130
1649.554632,9684.4
1652.735244,9349.2
1655.9117,9051
1659.084013,9385.2
1662.252193,9730.8
1665.416254,9226.4
1668.576205,9302.6
1671.732059,9475.6
1674.883828,9533
1678.031523,9210.6
1681.175157,9264.6
1684.314739,9318.2
1687.450284,9326.6
1690.581801,9150.6
1693.709304,9039
1696.832803,9126.4
1699.952311,9265.6
1703.067839,9391
1706.179399,9211.2
1709.287003,9539.2
1712.390663,9273.6
1715.49039,9302.8
1718.586197,9520.8
1721.678095,9374
1724.766096,9375.2
1727.850213,9039.6
1730.930456,9267.4
1734.006838,9048
1737.079372,9281
1740.148067,9080.8
1743.212938,9817
1746.273996,9377.4
1749.331252,9252.2
1752.384718,9273.6
1755.434408,9339
1758.480332,9382.6
1761.522503,9371.2
1764.560933,9226
1767.595634,8954.8
1770.626618,9422.6
1773.653896,9457.4
1776.677482,9224
1779.697388,9134.6
1782.713625,9525.6
1785.726205,9467.2
1788.735141,9495.8
1791.740445,9178.4
1794.742129,9117.6
1797.740206,9507.6
1800.734687,9557.2
1803.725585,9340.8
1806.712912,9388.2
1809.69668,9121.8
1812.676902,9170
1815.65359,8984.6
1818.626756,9157.8
1821.596413,9234.8
1824.562573,8948.2
1827.525247,9178.4
1830.48445,9024.8
1833.440192,9251.8
1836.392487,9138
1839.341347,9202
1842.286784,9276.2
1845.22881,8884.2
1848.167439,9319.4
1851.102682,9223.6
1854.034553,9137.6
1856.963063,9056
1859.888226,9699.8
1862.810053,9285.6
1865.728557,9156.4
1868.643751,9014.8
1871.555648,8930.6
1874.46426,8816
1877.369599,9188.8
1880.271679,9166.2
1883.170512,8986
1886.06611,9392.8
1888.958487,9045.6
1891.847655,9107.2
1894.733626,9131.6
1897.616414,9301
1900.496032,8963
1903.372491,9245.6
1906.245805,9306.4
1909.115987,9432
1911.983049,9334
1914.847004,9321.4
1917.707866,9490.8
1920.565646,9397
1923.420359,9037.4
1926.272016,9252
1929.120631,9054.2
1931.966216,9114.2
1934.808786,9102.4
1937.648351,9375.2
1940.484927,9268.6
1943.318525,9387.8
1946.149158,9596.8
1948.97684,10212
1951.801584,9397.4
1954.623403,9407
1957.44231,9401.2
1960.258318,9034.6
1963.071439,9031.2
1965.881688,9179.8
1968.689078,9305.4
1971.493621,9148.4
