Ramanshift[cm-1],Intensity
-93.47115107,10588.4
-87.69374369,9790.4
-81.9253076,9701
-76.16582701,9688.4
-70.41528615,9729.6
-64.67366933,9498.4
-58.94096086,9533.4
-53.21714512,9801.2
-47.50220652,9819.8
-41.79612954,9748.6
-36.09889866,10049.2
-30.41049843,10220.6
-24.73091343,9936.8
-19.0601283,9895.6
-13.39812769,9843.4
-7.744896327,9610.6
-2.100418946,9484.4
3.535319659,9960.2
9.162334658,9452.2
14.78064118,9735.6
20.39025432,9587.2
25.99118913,9527.4
31.58346061,9877.8
37.16708375,9716.2
42.74207347,9511.6
48.30844468,9587.6
53.86621222,9430.2
59.41539093,9258.2
64.95599558,9242.4
70.48804091,9458.6
76.01154164,9578.4
81.52651243,9188.4
87.03296792,9495
92.5309227,9666.6
98.02039134,9229
103.5013884,9392.4
108.9739282,9293
114.4380255,9334.8
119.8936944,9566.4
125.3409495,10052.2
130.779805,9272.6
136.2102753,9139.4
141.6323747,9160.2
147.0461174,9518.4
152.4515176,9321.4
157.8485895,9328.4
163.2373472,9223.8
168.6178049,9591
173.9899766,9658.4
179.3538764,9338
184.7095182,9351.8
190.0569161,9695
195.396084,9677.6
200.7270358,9161.2
206.0497854,9207.4
211.3643466,9044.6
216.6707333,9363.4
221.9689593,9106.8
227.2590382,9194.8
232.5409839,9189.2
237.8148101,9115.8
243.0805303,9269.6
248.3381582,9161.8
253.5877075,9091.8
258.8291917,9148.2
264.0626244,9293.4
269.288019,9339.2
274.5053891,9451
279.7147481,9264
284.9161094,9280.6
290.1094865,9886
295.2948927,11973.8
300.4723414,17148.8
305.6418459,23598.4
310.8034194,29007.2
315.9570752,32253.4
321.1028267,32821.2
326.2406869,33371.2
331.370669,34019.2
336.4927863,34827.4
341.6070517,35316
346.7134786,35897.2
351.8120798,36442.8
356.9028684,36359
361.9858576,36001.8
367.0610602,36283.6
372.1284892,36012.2
377.1881577,36834.8
382.2400784,38244
387.2842644,39968.8
392.3207284,40502.6
397.3494833,39753.8
402.370542,38617
407.3839172,37137.6
412.3896217,36036
417.3876683,35021
422.3780697,34650
427.3608386,34041.2
432.3359876,34164.4
437.3035295,33784.8
442.2634769,33661
447.2158423,32984.4
452.1606383,33072.8
457.0978776,32952.4
462.0275727,32440.6
466.9497361,32886.2
471.8643802,32643
476.7715176,33612.6
481.6711608,34163.4
486.5633221,34369.2
491.448014,33909.4
496.3252488,33116.8
501.195039,32787
506.0573969,32568
510.9123349,32081.8
515.7598651,31517.2
520.6,31914.4
525.4327518,31453.6
530.2581327,31674
535.076155,31316.2
539.8868309,31642.4
544.6901726,31331.8
549.4861922,30608.6
554.2749019,30971.8
559.0563139,30433.8
563.8304402,30143
568.597293,31023.8
573.3568844,30664.6
578.1092263,30340.8
582.8543308,30683.8
587.5922101,30560.6
592.322876,30233.6
597.0463405,30588.2
601.7626157,30669.8
606.4717135,30245.6
611.1736458,30148.2
615.8684246,30077.4
620.5560617,30476.2
625.2365691,30232.8
629.9099585,30395.6
634.5762419,30310.2
639.2354312,29859.4
643.887538,29797.6
648.5325743,29516
653.1705518,29459.2
657.8014823,29580
662.4253775,28968.6
667.0422493,29319.2
671.6521092,29139.6
676.2549691,29132.2
680.8508407,29156.4
685.4397355,29103.6
690.0216654,29163.8
694.5966419,28935
699.1646767,29411.8
703.7257814,29452.2
708.2799676,29568
712.827247,29894
717.367631,29641
721.9011314,29178.6
726.4277595,28479.8
730.9475271,28648.6
735.4604456,28434.4
739.9665264,28443.8
744.4657813,28191.2
748.9582215,27878.8
753.4438587,27437
757.9227042,27188.4
762.3947696,27410.2
766.8600662,26756.4
771.3186056,27756.4
775.770399,26705.8
780.215458,26935
784.6537939,26261.4
789.0854181,26393.8
793.510342,26364
797.9285769,26503.2
802.3401342,26146.8
806.7450253,26167.4
811.1432614,25903.2
815.5348538,25742.2
819.9198139,25337
824.2981531,25383.6
828.6698824,25290
833.0350133,24894.2
837.393557,24395.4
841.7455248,24907.6
846.0909278,24486.2
850.4297774,24690.2
854.7620848,24635.8
859.0878611,24867.8
863.4071176,24318
867.7198655,24820.4
872.026116,24982
876.3258802,25231.2
880.6191693,24967.4
884.9059946,24819.8
889.186367,25041
893.4602979,24022.8
897.7277982,23997.2
901.9888793,24565.6
906.2435521,24848.2
910.4918277,24655.4
914.7337174,24945.6
918.9692321,24942.4
923.1983831,25339
927.4211813,25046.6
931.6376378,25558.8
935.8477637,25099.8
940.0515701,25313.8
944.249068,25415
948.4402684,24513.4
952.6251825,25208.2
956.8038212,25258.4
960.9761955,25689
965.1423166,25277.6
969.3021953,25277.6
973.4558427,25079
977.6032699,25114
981.7444877,24960.2
985.8795072,24965.4
990.0083394,25106.8
994.1309953,24821.4
998.2474857,25397.6
1002.357822,25023
1006.462014,25505.8
1010.560075,25046.4
1014.652013,24782.8
1018.737841,24748
1022.81757,24524.4
1026.891209,24248.4
1030.958771,24115.6
1035.020266,24365.4
1039.075705,24369.8
1043.1251,24282.6
1047.16846,24603
1051.205797,24811.8
1055.237121,25757
1059.262444,27243
1063.281777,29726
1067.295131,32108.6
1071.302515,33709.6
1075.303942,32668
1079.299422,31629.6
1083.288966,28829.6
1087.272585,26681.4
1091.250289,25570
1095.222091,25187.4
1099.187999,24579.8
1103.148026,24783
1107.102183,24842.8
1111.050479,25057.4
1114.992927,25383.4
1118.929536,25914
1122.860318,27242
1126.785283,28661.8
1130.704443,31023
1134.617808,34520
1138.52539,35791.2
1142.427198,34312
1146.323244,31264.2
1150.213538,28025.8
1154.098093,26919.4
1157.976917,25803.8
1161.850023,25183
1165.717421,25281.4
1169.579121,25080.4
1173.435135,25566.2
1177.285474,24947.4
1181.130148,25337.4
1184.969169,26065.8
1188.802547,25814
1192.630292,25463.2
1196.452416,24590
1200.26893,24399.4
1204.079844,23989.6
1207.88517,23326.6
1211.684917,24005.8
1215.479098,23381.4
1219.267722,24753.8
1223.050801,23512.2
1226.828346,23525.4
1230.600366,23681.4
1234.366874,23782.6
1238.12788,23854.6
1241.883395,23700.2
1245.633429,23922.6
1249.377994,23850.6
1253.1171,23344.6
1256.850759,23624.8
1260.578981,23542
1264.301776,23652.8
1268.019157,23669.6
1271.731133,23379.2
1275.437715,23326
1279.138915,23699.2
1282.834743,23854
1286.52521,23590.8
1290.210328,23618.4
1293.890106,23774.8
1297.564555,24358.6
1301.233688,24062.8
1304.897514,24272.6
1308.556044,24543.2
1312.209289,24045.2
1315.857261,23527.8
1319.499969,23280.4
1323.137425,24073.4
1326.769641,23442.8
1330.396626,23953.2
1334.018391,23647.6
1337.634948,23611
1341.246307,23635.6
1344.85248,23449.8
1348.453477,23586.4
1352.049309,23424.4
1355.639987,23701.6
1359.225522,23988.4
1362.805925,23821
1366.381207,23781.6
1369.951379,23955.2
1373.516452,24357
1377.076436,24892
1380.631343,25769.4
1384.181184,26579
1387.725969,27509
1391.26571,26799
1394.800417,25329.2
1398.330102,23945.2
1401.854776,23321.4
1405.374448,22867
1408.889132,22518.4
1412.398837,22741.8
1415.903574,23352.6
1419.403355,25227.2
1422.89819,26249.6
1426.388091,27715.6
1429.873069,28690
1433.353134,28024.2
1436.828298,26973.8
1440.298571,25753.8
1443.763965,24375.2
1447.224491,23308.2
1450.68016,22451
1454.130983,22104.2
1457.576971,21881.6
1461.018135,21753.4
1464.454486,21953
1467.886036,21386.2
1471.312794,21739.4
1474.734774,20940.8
1478.151985,21327.2
1481.564439,20815.8
1484.972146,20607.4
1488.375119,20057
1491.773368,20312.8
1495.166904,20523.2
1498.555739,20031.6
1501.939883,20093
1505.319349,19535
1508.694146,19943.6
1512.064286,20076
1515.429781,19776
1518.790642,19711.8
1522.146879,19748.8
1525.498505,19414.6
1528.845529,19436.4
1532.187965,20024.8
1535.525822,19781.2
1538.859112,19651
1542.187846,20125.2
1545.512036,19555.4
1548.831693,20508.8
1552.146829,20231.6
1555.457453,19985
1558.763579,19979.8
1562.065216,20751.8
1565.362377,21052
1568.655073,21703.2
1571.943315,21672.8
1575.227114,21711.8
1578.506482,21257
1581.781431,21338
1585.051971,20711.2
1588.318114,20449.2
1591.579872,19857.8
1594.837255,18932
1598.090275,18211
1601.338945,18000.6
1604.583274,17773.2
1607.823275,17558.8
1611.058959,16810.8
1614.290338,17606.4
1617.517422,16365.4
1620.740224,16584.4
1623.958755,16101.4
1627.173027,16049.6
1630.38305,15685.2
1633.588838,15746.6
1636.7904,15528.6
1639.987749,15452.2
1643.180896,15609.8
1646.369853,14998
1649.554632,15427.8
1652.735244,14963
1655.9117,14514.8
1659.084013,14570.2
1662.252193,15043.6
1665.416254,14395.6
1668.576205,14613
1671.732059,14489.4
1674.883828,14556.6
1678.031523,14092.6
1681.175157,14126.6
1684.314739,14148.4
1687.450284,13971.8
1690.581801,13726.2
1693.709304,13752
1696.832803,13635.8
1699.952311,13792.4
1703.067839,13776.8
1706.179399,13726.6
1709.287003,13838.8
1712.390663,13655
1715.49039,13530.6
1718.586197,13802.2
1721.678095,13576
1724.766096,13567.8
1727.850213,13187.2
1730.930456,13380.2
1734.006838,13236.2
1737.079372,13356.2
1740.148067,13036
1743.212938,13645.8
1746.273996,13173.8
1749.331252,13042.6
1752.384718,13131.4
1755.434408,12994
1758.480332,13058.8
1761.522503,13050.6
1764.560933,12771.8
1767.595634,12460.4
1770.626618,12918.8
1773.653896,12876.8
1776.677482,12604.8
1779.697388,12551.4
1782.713625,12913.6
1785.726205,12865.6
1788.735141,12792
1791.740445,12442.6
1794.742129,12437.6
1797.740206,12844.6
1800.734687,12716
1803.725585,12699.4
1806.712912,12641.8
1809.69668,12502.6
1812.676902,12401
1815.65359,12285
1818.626756,12385.8
1821.596413,12464.8
1824.562573,12182.2
1827.525247,12322.2
1830.48445,12315.4
1833.440192,12309.8
1836.392487,12196
1839.341347,12243.4
1842.286784,12378.2
1845.22881,12027.6
1848.167439,12417.2
1851.102682,12198.4
1854.034553,12145
1856.963063,12086.6
1859.888226,12624.8
1862.810053,12317.2
1865.728557,12064.8
1868.643751,11993.2
1871.555648,11779.8
1874.46426,11703.2
1877.369599,12193.2
1880.271679,11948.8
1883.170512,11967.4
1886.06611,12136.4
1888.958487,11989.8
1891.847655,11793.2
1894.733626,12067
1897.616414,12065.4
1900.496032,11667.6
1903.372491,11840.4
1906.245805,12151.6
1909.115987,12166.2
1911.983049,12001
1914.847004,12099.6
1917.707866,12035.4
1920.565646,12022.4
1923.420359,11678
1926.272016,11871.2
1929.120631,11797.4
1931.966216,11776.8
1934.808786,11750.8
1937.648351,11825.2
1940.484927,11866.2
1943.318525,11788.2
1946.149158,11996.2
1948.97684,12758.8
1951.801584,11911
1954.623403,11790.8
1957.44231,11844.8
1960.258318,11565.4
1963.071439,11496.4
1965.881688,11692.6
1968.689078,11717.6
1971.493621,11477.4
