Ramanshift[cm-1],Intensity
-93.47115107,10748.6
-87.69374369,9898.4
-81.9253076,9840
-76.16582701,9924.4
-70.41528615,9945
-64.67366933,9674.4
-58.94096086,9632.8
-53.21714512,9921.4
-47.50220652,9963.4
-41.79612954,9966.6
-36.09889866,10293.8
-30.41049843,10419.4
-24.73091343,10100.4
-19.0601283,10157.8
-13.39812769,9957
-7.744896327,9741.8
-2.100418946,9677.2
3.535319659,10113.2
9.162334658,9668.6
14.78064118,9951
20.39025432,9699.6
25.99118913,9707.2
31.58346061,10116.4
37.16708375,9872
42.74207347,9696.8
48.30844468,9724.6
53.86621222,9629.4
59.41539093,9373.2
64.95599558,9355.8
70.48804091,9631.6
76.01154164,9774.6
81.52651243,9273.2
87.03296792,9662.8
92.5309227,9855.6
98.02039134,9488.6
103.5013884,9587.2
108.9739282,9359.4
114.4380255,9512.2
119.8936944,9621.8
125.3409495,10194.8
130.779805,9375.4
136.2102753,9284.6
141.6323747,9274.4
147.0461174,9777
152.4515176,9422.6
157.8485895,9451.4
163.2373472,9398.4
168.6178049,9674.6
173.9899766,9789.2
179.3538764,9426.2
184.7095182,9478.4
190.0569161,9748.6
195.396084,9745
200.7270358,9338.2
206.0497854,9407.8
211.3643466,9135.4
216.6707333,9451.2
221.9689593,9219.2
227.2590382,9354.2
232.5409839,9279.8
237.8148101,9309.2
243.0805303,9373.8
248.3381582,9329.4
253.5877075,9192.4
258.8291917,9248.8
264.0626244,9377
269.288019,9443.6
274.5053891,9589.2
279.7147481,9328.8
284.9161094,9161
290.1094865,9301.6
295.2948927,9499
300.4723414,10303.2
305.6418459,10434.6
310.8034194,10753.6
315.9570752,11458
321.1028267,11526.8
326.2406869,11554.8
331.370669,11712.4
336.4927863,11673.6
341.6070517,11738.8
346.7134786,11559.8
351.8120798,11761
356.9028684,11559.8
361.9858576,11630.8
367.0610602,11765.2
372.1284892,11708.4
377.1881577,11949
382.2400784,11892.4
387.2842644,12125
392.3207284,12386.4
397.3494833,11999.6
402.370542,11980.4
407.3839172,11607
412.3896217,11456.6
417.3876683,11243.6
422.3780697,11299.6
427.3608386,11429.4
432.3359876,11610.2
437.3035295,11738.4
442.2634769,11830.8
447.2158423,11283.4
452.1606383,11384.2
457.0978776,11454
462.0275727,11007.2
466.9497361,11462.2
471.8643802,10930.8
476.7715176,11383.4
481.6711608,11299.8
486.5633221,11558.8
491.448014,11294.8
496.3252488,11270.2
501.195039,11278.4
506.0573969,11471.6
510.9123349,11313.6
515.7598651,10938
520.6,11353.4
525.4327518,11216.6
530.2581327,11372.6
535.076155,10980.2
539.8868309,11288.2
544.6901726,11343.4
549.4861922,11067.6
554.2749019,11788.6
559.0563139,11261
563.8304402,10933.2
568.597293,11710.8
573.3568844,11479
578.1092263,11176.4
582.8543308,11363.6
587.5922101,11322.8
592.322876,11120.4
597.0463405,11222.4
601.7626157,11497.2
606.4717135,11080.6
611.1736458,11143.6
615.8684246,11095.8
620.5560617,11385.6
625.2365691,11078
629.9099585,11555.2
634.5762419,11637.4
639.2354312,11179
643.887538,11280.2
648.5325743,11106.6
653.1705518,11052
657.8014823,11169.6
662.4253775,10820.6
667.0422493,10958.8
671.6521092,10996.2
676.2549691,11217
680.8508407,11117.4
685.4397355,11051.8
690.0216654,11223.6
694.5966419,11034.8
699.1646767,11297.8
703.7257814,11101.8
708.2799676,11227.8
712.827247,11320.6
717.367631,11161.4
721.9011314,11076.6
726.4277595,10644
730.9475271,11152.2
735.4604456,11061.8
739.9665264,11418.4
744.4657813,11067.4
748.9582215,11004
753.4438587,10728.4
757.9227042,10613
762.3947696,11144.2
766.8600662,10805.8
771.3186056,11767.2
775.770399,10978.2
780.215458,11262.6
784.6537939,10728.6
789.0854181,10657.6
793.510342,10767
797.9285769,11244.2
802.3401342,10781
806.7450253,10859.6
811.1432614,10862.2
815.5348538,10810.2
819.9198139,10626
824.2981531,10855.2
828.6698824,10899.8
833.0350133,10770.6
837.393557,10614.4
841.7455248,10833.2
846.0909278,10701
850.4297774,10694.2
854.7620848,10704.4
859.0878611,11015.4
863.4071176,10434.6
867.7198655,10842.6
872.026116,10998.2
876.3258802,11399.8
880.6191693,10972.8
884.9059946,10957.4
889.186367,11347.4
893.4602979,10531.8
897.7277982,10419
901.9888793,10778.2
906.2435521,11083.8
910.4918277,10601
914.7337174,10597
918.9692321,10493.4
923.1983831,11053.8
927.4211813,10761.4
931.6376378,11213.4
935.8477637,10865.6
940.0515701,10980
944.249068,10999.6
948.4402684,10417
952.6251825,10950.2
956.8038212,10660.4
960.9761955,11130.2
965.1423166,10760.4
969.3021953,10847.2
973.4558427,10759
977.6032699,10757.8
981.7444877,10828.6
985.8795072,10723.4
990.0083394,10838.4
994.1309953,10535.4
998.2474857,10840.2
1002.357822,10234.4
1006.462014,10655.2
1010.560075,10495.8
1014.652013,10666.6
1018.737841,11003.8
1022.81757,10609
1026.891209,10650.4
1030.958771,10554.8
1035.020266,10812.6
1039.075705,10585
1043.1251,10358.2
1047.16846,10618.8
1051.205797,10511.2
1055.237121,10322.2
1059.262444,10335
1063.281777,10189.4
1067.295131,10277.8
1071.302515,10985
1075.303942,10687.8
1079.299422,11388.2
1083.288966,10972.2
1087.272585,10716
1091.250289,10625
1095.222091,10767.4
1099.187999,10385.8
1103.148026,10570
1107.102183,10467.8
1111.050479,10609.2
1114.992927,10592.8
1118.929536,10449.2
1122.860318,10756
1126.785283,10355.6
1130.704443,10199
1134.617808,10766.2
1138.52539,10670.6
1142.427198,10721.6
1146.323244,10737.8
1150.213538,10397.4
1154.098093,10779
1157.976917,10370.8
1161.850023,10293
1165.717421,10687.6
1169.579121,10520.2
1173.435135,10638.4
1177.285474,10037.4
1181.130148,10201.6
1184.969169,10547.4
1188.802547,10477.6
1192.630292,10209
1196.452416,10018.2
1200.26893,10121.2
1204.079844,9992.6
1207.88517,9694.2
1211.684917,10164.8
1215.479098,9884.6
1219.267722,11003.8
1223.050801,10028
1226.828346,10022.8
1230.600366,10187.6
1234.366874,10258.6
1238.12788,10047.4
1241.883395,10102.8
1245.633429,10286.4
1249.377994,10325.4
1253.1171,9668.8
1256.850759,9968
1260.578981,10026.2
1264.301776,10036.4
1268.019157,10038.8
1271.731133,9848.6
1275.437715,9694.6
1279.138915,10118.8
1282.834743,10185.8
1286.52521,9928.2
1290.210328,9800.8
1293.890106,9922.8
1297.564555,10327.6
1301.233688,9809.6
1304.897514,10136
1308.556044,10184.2
1312.209289,10186.6
1315.857261,9823
1319.499969,9904.8
1323.137425,10458.8
1326.769641,10085.4
1330.396626,10403.8
1334.018391,10076.4
1337.634948,10126
1341.246307,9918.8
1344.85248,9877.4
1348.453477,9850.8
1352.049309,9785.2
1355.639987,9805.4
1359.225522,10222.4
1362.805925,9928.4
1366.381207,10093
1369.951379,10136
1373.516452,10093.6
1377.076436,10246.6
1380.631343,10052.2
1384.181184,9932
1387.725969,10022.8
1391.26571,9768.4
1394.800417,9734.6
1398.330102,9895
1401.854776,10089.8
1405.374448,9931.2
1408.889132,9602.6
1412.398837,9418
1415.903574,9759
1419.403355,10107.2
1422.89819,9778
1426.388091,9754
1429.873069,10180
1433.353134,9666.8
1436.828298,9812.6
1440.298571,9964.4
1443.763965,9772.8
1447.224491,9648.4
1450.68016,9743.4
1454.130983,10055.4
1457.576971,9956.4
1461.018135,10008.6
1464.454486,10086.8
1467.886036,9732.8
1471.312794,9858.8
1474.734774,9579.8
1478.151985,10079.6
1481.564439,9943.2
1484.972146,9959.8
1488.375119,9567.2
1491.773368,9943
1495.166904,10360
1498.555739,9727.4
1501.939883,9993.6
1505.319349,9611
1508.694146,9866.2
1512.064286,9849.6
1515.429781,9829.2
1518.790642,9725
1522.146879,9817.4
1525.498505,9446.2
1528.845529,9530.6
1532.187965,10035.6
1535.525822,9838.8
1538.859112,9782.8
1542.187846,10188.8
1545.512036,9486.2
1548.831693,10528.2
1552.146829,10075.6
1555.457453,9528
1558.763579,9279.4
1562.065216,9586.6
1565.362377,9778.6
1568.655073,9946.4
1571.943315,9938.6
1575.227114,9867.2
1578.506482,9777
1581.781431,10159.6
1585.051971,9887.6
1588.318114,9915
1591.579872,9931.2
1594.837255,9745.4
1598.090275,9831.2
1601.338945,9661.2
1604.583274,10019.6
1607.823275,9746.4
1611.058959,9380.8
1614.290338,10259.2
1617.517422,9416.8
1620.740224,9618.2
1623.958755,9373.6
1627.173027,9509.6
1630.38305,9188.8
1633.588838,9585.8
1636.7904,9388.8
1639.987749,9485
1643.180896,9670.8
1646.369853,9266.4
1649.554632,9851
1652.735244,9446.6
1655.9117,9096.8
1659.084013,9469.8
1662.252193,9923.2
1665.416254,9239.8
1668.576205,9434.8
1671.732059,9608.8
1674.883828,9691
1678.031523,9314.6
1681.175157,9429
1684.314739,9438.4
1687.450284,9384.6
1690.581801,9345.8
1693.709304,9169.4
1696.832803,9294.2
1699.952311,9472.8
1703.067839,9549
1706.179399,9327.8
1709.287003,9633
1712.390663,9401.4
1715.49039,9487.2
1718.586197,9770.4
1721.678095,9579.4
1724.766096,9558.6
1727.850213,9227.4
1730.930456,9484.4
1734.006838,9293
1737.079372,9503.6
1740.148067,9223.2
1743.212938,9963.6
1746.273996,9420.4
1749.331252,9368.6
1752.384718,9429.4
1755.434408,9432.8
1758.480332,9516.4
1761.522503,9536.6
1764.560933,9416.2
1767.595634,9067.6
1770.626618,9633.8
1773.653896,9615
1776.677482,9416.6
1779.697388,9344.6
1782.713625,9673.6
1785.726205,9669
1788.735141,9623.8
1791.740445,9310.2
1794.742129,9256.2
1797.740206,9651
1800.734687,9624.4
1803.725585,9562
1806.712912,9485.6
1809.69668,9250.6
1812.676902,9383.2
1815.65359,9180.2
1818.626756,9275.4
1821.596413,9380.8
1824.562573,9090
1827.525247,9296.4
1830.48445,9172
1833.440192,9342.6
1836.392487,9287
1839.341347,9330.2
1842.286784,9497
1845.22881,9075.4
1848.167439,9501
1851.102682,9256.6
1854.034553,9257
1856.963063,9168.8
1859.888226,9834.6
1862.810053,9408.6
1865.728557,9304.2
1868.643751,9135.8
1871.555648,9096.6
1874.46426,8985.6
1877.369599,9434.6
1880.271679,9273.2
1883.170512,9171
1886.06611,9473.4
1888.958487,9165.6
1891.847655,9227.6
1894.733626,9363.8
1897.616414,9411.8
1900.496032,9077.6
1903.372491,9283.4
1906.245805,9509.2
1909.115987,9657.6
1911.983049,9486.4
1914.847004,9427.2
1917.707866,9539
1920.565646,9458.8
1923.420359,9240.6
1926.272016,9428
1929.120631,9317.2
1931.966216,9290.2
1934.808786,9260.6
1937.648351,9441
1940.484927,9415.2
1943.318525,9485
1946.149158,9655.4
1948.97684,10417
1951.801584,9586.4
1954.623403,9486.8
1957.44231,9506.8
1960.258318,9196
1963.071439,9244
1965.881688,9351.8
1968.689078,9467.2
1971.493621,9296.4
