Ramanshift[cm-1],Intensity
-93.47115107,10721.4
-87.69374369,9905
-81.9253076,9763
-76.16582701,9886.2
-70.41528615,9845.6
-64.67366933,9624.6
-58.94096086,9719.6
-53.21714512,9851.6
-47.50220652,9884
-41.79612954,9877.4
-36.09889866,10264
-30.41049843,10330.8
-24.73091343,10067
-19.0601283,10121
-13.39812769,9878.4
-7.744896327,9760
-2.100418946,9650.8
3.535319659,10063.2
9.162334658,9628.2
14.78064118,9838.6
20.39025432,9571.8
25.99118913,9722.8
31.58346061,10025.8
37.16708375,9888
42.74207347,9678.4
48.30844468,9696.4
53.86621222,9605.4
59.41539093,9359.2
64.95599558,9266.4
70.48804091,9501.8
76.01154164,9614.8
81.52651243,9232.8
87.03296792,9586.8
92.5309227,9825.2
98.02039134,9335.2
103.5013884,9566.4
108.9739282,9414.4
114.4380255,9374.4
119.8936944,9573.2
125.3409495,10153.8
130.779805,9345.4
136.2102753,9217
141.6323747,9217.2
147.0461174,9701.8
152.4515176,9420.2
157.8485895,9489.4
163.2373472,9204.6
168.6178049,9550.6
173.9899766,9719
179.3538764,9356.8
184.7095182,9493.2
190.0569161,9629.4
195.396084,9780.4
200.7270358,9350.8
206.0497854,9330.6
211.3643466,9087
216.6707333,9448.4
221.9689593,9169.2
227.2590382,9356
232.5409839,9240.8
237.8148101,9238.4
243.0805303,9341.6
248.3381582,9303
253.5877075,9187.8
258.8291917,9225
264.0626244,9283.8
269.288019,9490.2
274.5053891,9491.4
279.7147481,9258.8
284.9161094,9149.8
290.1094865,9272.2
295.2948927,9553.6
300.4723414,10261.2
305.6418459,10689.4
310.8034194,11138.8
315.9570752,11930.6
321.1028267,12029.6
326.2406869,12116.8
331.370669,12189.4
336.4927863,12163.8
341.6070517,12310.6
346.7134786,12232.8
351.8120798,12381.4
356.9028684,12149.2
361.9858576,12241.8
367.0610602,12391.8
372.1284892,12244.6
377.1881577,12707.4
382.2400784,12777
387.2842644,13293.6
392.3207284,13786.6
397.3494833,13480.8
402.370542,13269
407.3839172,12585.2
412.3896217,12164.8
417.3876683,11753.8
422.3780697,11781.8
427.3608386,11766.4
432.3359876,11931.6
437.3035295,12117.2
442.2634769,12152.8
447.2158423,11636.8
452.1606383,11711.4
457.0978776,11866.4
462.0275727,11343.2
466.9497361,11850.4
471.8643802,11383.8
476.7715176,11758.8
481.6711608,11694
486.5633221,11910.6
491.448014,11681.4
496.3252488,11616.8
501.195039,11773.2
506.0573969,11882.2
510.9123349,11621.8
515.7598651,11340
520.6,11699.8
525.4327518,11723.6
530.2581327,11769
535.076155,11299.6
539.8868309,11582.2
544.6901726,11694.4
549.4861922,11408
554.2749019,12129.8
559.0563139,11497
563.8304402,11217.4
568.597293,12053.4
573.3568844,11838.4
578.1092263,11522.8
582.8543308,11803.8
587.5922101,11704
592.322876,11436.2
597.0463405,11616.6
601.7626157,11821
606.4717135,11495.8
611.1736458,11432.6
615.8684246,11511
620.5560617,11803.2
625.2365691,11565.8
629.9099585,11884.8
634.5762419,11997
639.2354312,11565
643.887538,11652.8
648.5325743,11518.8
653.1705518,11466.6
657.8014823,11541.6
662.4253775,11109.8
667.0422493,11329.8
671.6521092,11411.4
676.2549691,11579.8
680.8508407,11415.8
685.4397355,11445
690.0216654,11513.2
694.5966419,11313.4
699.1646767,11696.8
703.7257814,11438
708.2799676,11524.4
712.827247,11599.8
717.367631,11400.2
721.9011314,11360.8
726.4277595,10936.6
730.9475271,11473
735.4604456,11367.2
739.9665264,11604
744.4657813,11377
748.9582215,11357.4
753.4438587,11005
757.9227042,10947
762.3947696,11372.8
766.8600662,11004.6
771.3186056,12071
775.770399,11213.6
780.215458,11534
784.6537939,11068.2
789.0854181,10982.8
793.510342,11019.4
797.9285769,11594.4
802.3401342,11202.2
806.7450253,11252.2
811.1432614,11256.6
815.5348538,11136.2
819.9198139,10897.8
824.2981531,11115.2
828.6698824,11125.2
833.0350133,11058.4
837.393557,10800.8
841.7455248,11055
846.0909278,10891.6
850.4297774,10900.8
854.7620848,10924.8
859.0878611,11126.2
863.4071176,10630
867.7198655,11153.4
872.026116,11221.6
876.3258802,11635.4
880.6191693,11312.6
884.9059946,11254.2
889.186367,11597
893.4602979,10812.6
897.7277982,10831
901.9888793,11148.4
906.2435521,11340.8
910.4918277,10896.8
914.7337174,10902.8
918.9692321,10814.6
923.1983831,11256.2
927.4211813,11079.8
931.6376378,11565.6
935.8477637,11211.8
940.0515701,11206.6
944.249068,11244
948.4402684,10757.6
952.6251825,11391.4
956.8038212,11094
960.9761955,11478
965.1423166,11152.2
969.3021953,11210.6
973.4558427,11180.2
977.6032699,11123.6
981.7444877,11114
985.8795072,11077.8
990.0083394,11226.2
994.1309953,10885
998.2474857,11225
1002.357822,10697.6
1006.462014,10998.6
1010.560075,10728.4
1014.652013,11094.6
1018.737841,11214.4
1022.81757,11026
1026.891209,10939.2
1030.958771,10768.4
1035.020266,11101
1039.075705,10924.6
1043.1251,10642.6
1047.16846,10733.6
1051.205797,10718.8
1055.237121,10574.6
1059.262444,10567
1063.281777,10492
1067.295131,10487.8
1071.302515,11511.8
1075.303942,11389.8
1079.299422,12133.4
1083.288966,11629.2
1087.272585,11229
1091.250289,11051.2
1095.222091,10961.8
1099.187999,10616.6
1103.148026,10858.6
1107.102183,10637.2
1111.050479,10764.8
1114.992927,10707
1118.929536,10649.4
1122.860318,10909.6
1126.785283,10417.4
1130.704443,10429.6
1134.617808,10861
1138.52539,10843.4
1142.427198,10864.4
1146.323244,10851.4
1150.213538,10491.8
1154.098093,10971.2
1157.976917,10526.2
1161.850023,10521.2
1165.717421,10796.4
1169.579121,10605.6
1173.435135,10935
1177.285474,10338.2
1181.130148,10497.4
1184.969169,10826.4
1188.802547,10703
1192.630292,10409.4
1196.452416,10324.6
1200.26893,10316.8
1204.079844,10132.4
1207.88517,9765.8
1211.684917,10389
1215.479098,10061.8
1219.267722,11157
1223.050801,10087
1226.828346,10122.8
1230.600366,10385.6
1234.366874,10413.6
1238.12788,10198.8
1241.883395,10295.2
1245.633429,10500.6
1249.377994,10453.6
1253.1171,9967.4
1256.850759,10256
1260.578981,10116.8
1264.301776,10247.4
1268.019157,10160.4
1271.731133,9927.2
1275.437715,9832
1279.138915,10178
1282.834743,10411
1286.52521,10121.6
1290.210328,9993
1293.890106,10096.8
1297.564555,10416.2
1301.233688,10000.4
1304.897514,10258.6
1308.556044,10427.8
1312.209289,10342.6
1315.857261,9935
1319.499969,10041.2
1323.137425,10573
1326.769641,10211.6
1330.396626,10589.2
1334.018391,10203.8
1337.634948,10294.8
1341.246307,10147.4
1344.85248,10059
1348.453477,10029.8
1352.049309,10075
1355.639987,10060.2
1359.225522,10267.4
1362.805925,10139
1366.381207,10198.6
1369.951379,10198.2
1373.516452,10168.6
1377.076436,10298.6
1380.631343,10067.8
1384.181184,10027.6
1387.725969,10054.4
1391.26571,9924.6
1394.800417,9832.8
1398.330102,10034.6
1401.854776,10179.8
1405.374448,10032
1408.889132,9712.2
1412.398837,9556.2
1415.903574,9739.2
1419.403355,10245.4
1422.89819,9854.4
1426.388091,9867.2
1429.873069,10151.2
1433.353134,9831.6
1436.828298,9903.4
1440.298571,10008.4
1443.763965,9751.6
1447.224491,9736.4
1450.68016,9769.4
1454.130983,10065
1457.576971,10037.8
1461.018135,10119.8
1464.454486,10161.6
1467.886036,9860.2
1471.312794,9883
1474.734774,9659.2
1478.151985,10133.6
1481.564439,9963.6
1484.972146,9941.2
1488.375119,9604.4
1491.773368,9939.4
1495.166904,10378.6
1498.555739,9867.4
1501.939883,9896
1505.319349,9586.4
1508.694146,9827.4
1512.064286,9900.2
1515.429781,9905.6
1518.790642,9751
1522.146879,9886.8
1525.498505,9522.2
1528.845529,9578.8
1532.187965,10102.2
1535.525822,9742.8
1538.859112,9859
1542.187846,10150.6
1545.512036,9546.6
1548.831693,10495.4
1552.146829,10132.8
1555.457453,9601.2
1558.763579,9356.8
1562.065216,9720.8
1565.362377,9931.8
1568.655073,10205.8
1571.943315,10063.2
1575.227114,10050
1578.506482,10032
1581.781431,10469
1585.051971,10146.8
1588.318114,10329.8
1591.579872,10303.2
1594.837255,10113
1598.090275,9889.4
1601.338945,9907.8
1604.583274,10107
1607.823275,9844
1611.058959,9502.4
1614.290338,10369.6
1617.517422,9439.4
1620.740224,9753.2
1623.958755,9456.8
1627.173027,9516.8
1630.38305,9241.8
1633.588838,9599.8
1636.7904,9496.8
1639.987749,9577.6
1643.180896,9662.8
1646.369853,9322.2
1649.554632,9842.6
1652.735244,9460.2
1655.9117,9110.2
1659.084013,9459
1662.252193,9851.8
1665.416254,9304.8
1668.576205,9444.2
1671.732059,9623.8
1674.883828,9659
1678.031523,9345.4
1681.175157,9419.6
1684.314739,9439
1687.450284,9404.2
1690.581801,9381.8
1693.709304,9175.6
1696.832803,9282
1699.952311,9415
1703.067839,9485.6
1706.179399,9328.4
1709.287003,9712
1712.390663,9385
1715.49039,9447.8
1718.586197,9631
1721.678095,9541.8
1724.766096,9597
1727.850213,9088.2
1730.930456,9391
1734.006838,9219.6
1737.079372,9492.8
1740.148067,9168.2
1743.212938,9981
1746.273996,9314.4
1749.331252,9370.8
1752.384718,9440.4
1755.434408,9377.6
1758.480332,9453.6
1761.522503,9479
1764.560933,9365.8
1767.595634,9035.4
1770.626618,9590
1773.653896,9536.2
1776.677482,9302.2
1779.697388,9309
1782.713625,9714.8
1785.726205,9674
1788.735141,9500.8
1791.740445,9262.8
1794.742129,9266.8
1797.740206,9630.4
1800.734687,9662
1803.725585,9548
1806.712912,9444.4
1809.69668,9191.8
1812.676902,9383.4
1815.65359,9106.6
1818.626756,9190.2
1821.596413,9367.6
1824.562573,9094.6
1827.525247,9314
1830.48445,9249.4
1833.440192,9295
1836.392487,9237.2
1839.341347,9416.6
1842.286784,9420.4
1845.22881,8935.8
1848.167439,9411.8
1851.102682,9208.8
1854.034553,9234.2
1856.963063,9124.4
1859.888226,9772
1862.810053,9487.4
1865.728557,9263
1868.643751,9104.8
1871.555648,9118.8
1874.46426,8949.4
1877.369599,9351
1880.271679,9262.6
1883.170512,9119.2
1886.06611,9414.4
1888.958487,9168.4
1891.847655,9205.6
1894.733626,9316.6
1897.616414,9379
1900.496032,9062
1903.372491,9334.8
1906.245805,9430.6
1909.115987,9570.4
1911.983049,9539.8
1914.847004,9434.6
1917.707866,9591.8
1920.565646,9540.4
1923.420359,9196.6
1926.272016,9428.6
1929.120631,9171
1931.966216,9296.2
1934.808786,9278.2
1937.648351,9433.4
1940.484927,9336.6
1943.318525,9450
1946.149158,9652
1948.97684,10281
1951.801584,9450.6
1954.623403,9475.8
1957.44231,9444.2
1960.258318,9157.4
1963.071439,9132.2
1965.881688,9315
1968.689078,9413
1971.493621,9289
