Ramanshift[cm-1],Intensity
-93.47115107,10590.2
-87.69374369,9772.2
-81.9253076,9636.2
-76.16582701,9690.4
-70.41528615,9650
-64.67366933,9578.4
-58.94096086,9458.4
-53.21714512,9717.4
-47.50220652,9750.8
-41.79612954,9732.4
-36.09889866,10004.4
-30.41049843,10261
-24.73091343,9945.2
-19.0601283,9845.4
-13.39812769,9761.6
-7.744896327,9556.4
-2.100418946,9464
3.535319659,10004.6
9.162334658,9460
14.78064118,9780.8
20.39025432,9528
25.99118913,9443.4
31.58346061,9894.2
37.16708375,9698.6
42.74207347,9484.8
48.30844468,9467.4
53.86621222,9456.8
59.41539093,9181.6
64.95599558,9132
70.48804091,9417
76.01154164,9540.8
81.52651243,9109.8
87.03296792,9449.8
92.5309227,9600.4
98.02039134,9213.6
103.5013884,9328.8
108.9739282,9282.4
114.4380255,9256.4
119.8936944,9383.8
125.3409495,10011.8
130.779805,9260.8
136.2102753,9081.6
141.6323747,9078.6
147.0461174,9489.6
152.4515176,9263.4
157.8485895,9316.2
163.2373472,9216.8
168.6178049,9445.4
173.9899766,9582
179.3538764,9208.4
184.7095182,9308.4
190.0569161,9526.8
195.396084,9612.2
200.7270358,9201.2
206.0497854,9114.2
211.3643466,9023.4
216.6707333,9306
221.9689593,9060.4
227.2590382,9143.4
232.5409839,9137.2
237.8148101,9043.8
243.0805303,9109.4
248.3381582,9120.8
253.5877075,9026.6
258.8291917,9089
264.0626244,9195.2
269.288019,9310.2
274.5053891,9424
279.7147481,9190.4
284.9161094,9101.4
290.1094865,9232.2
295.2948927,9756
300.4723414,10950.6
305.6418459,12073.8
310.8034194,13110
315.9570752,14130
321.1028267,14313
326.2406869,14250.6
331.370669,14472.6
336.4927863,14608.2
341.6070517,14761.8
346.7134786,14634.4
351.8120798,14925.6
356.9028684,14730.6
361.9858576,14805.2
367.0610602,14858
372.1284892,14824.8
377.1881577,15397
382.2400784,15994.6
387.2842644,16885.6
392.3207284,17488.8
397.3494833,16808
402.370542,16202.2
407.3839172,15442
412.3896217,14614
417.3876683,14053.6
422.3780697,14038.2
427.3608386,14005.6
432.3359876,14113.4
437.3035295,14173.6
442.2634769,14167
447.2158423,13670.4
452.1606383,13726.4
457.0978776,13858.4
462.0275727,13339.4
466.9497361,13711.6
471.8643802,13294.2
476.7715176,13704.6
481.6711608,13790.4
486.5633221,14026.8
491.448014,13716.2
496.3252488,13811.2
501.195039,13749
506.0573969,13897
510.9123349,13675.8
515.7598651,13241.2
520.6,13570.2
525.4327518,13528.2
530.2581327,13486.8
535.076155,13102
539.8868309,13394.2
544.6901726,13408.4
549.4861922,13211
554.2749019,13920.8
559.0563139,13233.2
563.8304402,13083
568.597293,13723.4
573.3568844,13447.6
578.1092263,13105.4
582.8543308,13468.6
587.5922101,13313.4
592.322876,13112.2
597.0463405,13233.2
601.7626157,13461
606.4717135,13099
611.1736458,13194
615.8684246,13196
620.5560617,13403.2
625.2365691,13123.8
629.9099585,13420.2
634.5762419,13581.4
639.2354312,13046.6
643.887538,13240.4
648.5325743,13063.6
653.1705518,13056.8
657.8014823,13170.6
662.4253775,12770
667.0422493,13121.2
671.6521092,13031.8
676.2549691,13112.4
680.8508407,13135.8
685.4397355,12910.2
690.0216654,13115.8
694.5966419,12864.6
699.1646767,13282.6
703.7257814,13051.6
708.2799676,13042.4
712.827247,13102.6
717.367631,13001
721.9011314,12855
726.4277595,12437.4
730.9475271,12907.2
735.4604456,12866.6
739.9665264,13111.6
744.4657813,12867.4
748.9582215,12634.6
753.4438587,12431.4
757.9227042,12318.2
762.3947696,12635.4
766.8600662,12373
771.3186056,13334.4
775.770399,12590.4
780.215458,12952.4
784.6537939,12386
789.0854181,12332.8
793.510342,12491
797.9285769,12864.4
802.3401342,12590
806.7450253,12577
811.1432614,12543.4
815.5348538,12231.6
819.9198139,12229.8
824.2981531,12325.8
828.6698824,12353.2
833.0350133,12198.4
837.393557,11939.6
841.7455248,12187.8
846.0909278,12105
850.4297774,11964.8
854.7620848,11931.6
859.0878611,12279.4
863.4071176,11806
867.7198655,12260.8
872.026116,12334.2
876.3258802,12790.2
880.6191693,12354
884.9059946,12396.6
889.186367,12731.2
893.4602979,12061.2
897.7277982,11886
901.9888793,12313.6
906.2435521,12493.8
910.4918277,12098.8
914.7337174,12195.2
918.9692321,12215.8
923.1983831,12582.2
927.4211813,12384.2
931.6376378,12945.6
935.8477637,12423.8
940.0515701,12613
944.249068,12596
948.4402684,12054.6
952.6251825,12636.4
956.8038212,12315.8
960.9761955,12780.8
965.1423166,12366.4
969.3021953,12495.2
973.4558427,12442
977.6032699,12358
981.7444877,12336.4
985.8795072,12374
990.0083394,12399.8
994.1309953,12109.8
998.2474857,12458.2
1002.357822,11797.2
1006.462014,12303.2
1010.560075,12099.4
1014.652013,12189.4
1018.737841,12423.2
1022.81757,12134.6
1026.891209,12222.2
1030.958771,12117
1035.020266,12325.4
1039.075705,11993.2
1043.1251,11776.4
1047.16846,11985.2
1051.205797,11893.2
1055.237121,11871.6
1059.262444,11879
1063.281777,11941.4
1067.295131,12327.8
1071.302515,13622
1075.303942,13679
1079.299422,14128.8
1083.288966,13274.4
1087.272585,12573.8
1091.250289,12216
1095.222091,12164.6
1099.187999,11871.6
1103.148026,11941
1107.102183,11717.2
1111.050479,11919.8
1114.992927,11871
1118.929536,11734.6
1122.860318,12045.2
1126.785283,11653.2
1130.704443,11656.6
1134.617808,12418.8
1138.52539,12389.6
1142.427198,12233.4
1146.323244,12152.4
1150.213538,11882.6
1154.098093,12115.8
1157.976917,11714.2
1161.850023,11765.2
1165.717421,12125.2
1169.579121,11929.2
1173.435135,12223
1177.285474,11739.6
1181.130148,11862
1184.969169,12045.2
1188.802547,11805.8
1192.630292,11516.2
1196.452416,11315.2
1200.26893,11451.2
1204.079844,11161.8
1207.88517,10879.4
1211.684917,11326.2
1215.479098,11104.8
1219.267722,12162.4
1223.050801,11113
1226.828346,11218.4
1230.600366,11439.8
1234.366874,11482
1238.12788,11282.8
1241.883395,11424
1245.633429,11581.6
1249.377994,11510.8
1253.1171,11042.6
1256.850759,11412.6
1260.578981,11246.4
1264.301776,11356.4
1268.019157,11240.6
1271.731133,11154
1275.437715,11076.2
1279.138915,11331.4
1282.834743,11571
1286.52521,11209.4
1290.210328,11097.8
1293.890106,11262.4
1297.564555,11580.6
1301.233688,11195.2
1304.897514,11474.4
1308.556044,11554
1312.209289,11556.8
1315.857261,11227.6
1319.499969,11311.6
1323.137425,11824
1326.769641,11581.2
1330.396626,11950.8
1334.018391,11546.4
1337.634948,11635.8
1341.246307,11502.2
1344.85248,11437
1348.453477,11305.6
1352.049309,11242.6
1355.639987,11265
1359.225522,11571.8
1362.805925,11233.4
1366.381207,11367.2
1369.951379,11411.6
1373.516452,11385.4
1377.076436,11581.2
1380.631343,11381.4
1384.181184,11314.8
1387.725969,11432.6
1391.26571,11149.6
1394.800417,11090.4
1398.330102,11123.4
1401.854776,11283.4
1405.374448,11063.6
1408.889132,10720.8
1412.398837,10614.4
1415.903574,10744.6
1419.403355,11373
1422.89819,10993.8
1426.388091,10977.4
1429.873069,11214.2
1433.353134,10953
1436.828298,10921.4
1440.298571,11002.6
1443.763965,10759
1447.224491,10686
1450.68016,10683
1454.130983,10944.6
1457.576971,10910.4
1461.018135,10993.6
1464.454486,10998.4
1467.886036,10677.2
1471.312794,10755.6
1474.734774,10491.6
1478.151985,10957.4
1481.564439,10734.2
1484.972146,10725.6
1488.375119,10435.8
1491.773368,10805.2
1495.166904,11026
1498.555739,10641.8
1501.939883,10665.8
1505.319349,10326.8
1508.694146,10621.2
1512.064286,10753.4
1515.429781,10718.8
1518.790642,10553.2
1522.146879,10671.8
1525.498505,10384.6
1528.845529,10225.2
1532.187965,10852.6
1535.525822,10485.2
1538.859112,10572.8
1542.187846,10855.2
1545.512036,10387.2
1548.831693,11285.4
1552.146829,10915
1555.457453,10317.4
1558.763579,10094.8
1562.065216,10620.6
1565.362377,10810.4
1568.655073,11086.2
1571.943315,10976.2
1575.227114,11044.4
1578.506482,11059
1581.781431,11492.4
1585.051971,11255.8
1588.318114,11338.2
1591.579872,11041.4
1594.837255,10827
1598.090275,10645.4
1601.338945,10495.2
1604.583274,10694
1607.823275,10392.2
1611.058959,10027
1614.290338,10871.8
1617.517422,9971.2
1620.740224,10258.8
1623.958755,10036.6
1627.173027,9980.4
1630.38305,9640.6
1633.588838,10043
1636.7904,9930.4
1639.987749,10062.8
1643.180896,10191.2
1646.369853,9695.6
1649.554632,10225.6
1652.735244,9941.4
1655.9117,9516.6
1659.084013,9794.4
1662.252193,10195.4
1665.416254,9706.2
1668.576205,9747.6
1671.732059,9932.2
1674.883828,9998.8
1678.031523,9588.4
1681.175157,9701.4
1684.314739,9744
1687.450284,9617.6
1690.581801,9561.6
1693.709304,9389.8
1696.832803,9483.2
1699.952311,9622.2
1703.067839,9637
1706.179399,9608.6
1709.287003,9804.6
1712.390663,9605
1715.49039,9627.4
1718.586197,9775.8
1721.678095,9743.8
1724.766096,9717.4
1727.850213,9327
1730.930456,9491.8
1734.006838,9345.8
1737.079372,9589.2
1740.148067,9391.2
1743.212938,10096.6
1746.273996,9485
1749.331252,9491.8
1752.384718,9597.8
1755.434408,9509.6
1758.480332,9523.8
1761.522503,9625.2
1764.560933,9407.4
1767.595634,9172.8
1770.626618,9666.4
1773.653896,9662.4
1776.677482,9459.8
1779.697388,9393.6
1782.713625,9754.4
1785.726205,9721.6
1788.735141,9704.4
1791.740445,9376
1794.742129,9355.6
1797.740206,9609.8
1800.734687,9778.8
1803.725585,9572
1806.712912,9539
1809.69668,9357
1812.676902,9440.6
1815.65359,9233
1818.626756,9338.2
1821.596413,9416.6
1824.562573,9212.8
1827.525247,9368.8
1830.48445,9312.4
1833.440192,9353.4
1836.392487,9339.6
1839.341347,9463.8
1842.286784,9514
1845.22881,9033.6
1848.167439,9430.2
1851.102682,9350.2
1854.034553,9353.2
1856.963063,9239
1859.888226,9883.8
1862.810053,9482.6
1865.728557,9316.8
1868.643751,9154.8
1871.555648,9183.4
1874.46426,9016
1877.369599,9449.2
1880.271679,9302.6
1883.170512,9169.4
1886.06611,9460.6
1888.958487,9212.2
1891.847655,9245.2
1894.733626,9316.2
1897.616414,9377.2
1900.496032,9130.2
1903.372491,9306.4
1906.245805,9456
1909.115987,9619.4
1911.983049,9479.2
1914.847004,9446.2
1917.707866,9633.4
1920.565646,9564.8
1923.420359,9200.4
1926.272016,9409
1929.120631,9170.6
1931.966216,9246
1934.808786,9271.2
1937.648351,9416.2
1940.484927,9491.2
1943.318525,9492.6
1946.149158,9631
1948.97684,10336
1951.801584,9545
1954.623403,9476.8
1957.44231,9551.2
1960.258318,9193.4
1963.071439,9160
1965.881688,9366
1968.689078,9484.6
1971.493621,9262.4
