Ramanshift[cm-1],Intensity
-93.47115107,10711.6
-87.69374369,9765.2
-81.9253076,9672
-76.16582701,9780
-70.41528615,9779.4
-64.67366933,9598.4
-58.94096086,9590.2
-53.21714512,9776.8
-47.50220652,9899.2
-41.79612954,9783
-36.09889866,10127.2
-30.41049843,10302
-24.73091343,10045.2
-19.0601283,10038.2
-13.39812769,9858.2
-7.744896327,9696.4
-2.100418946,9561.2
3.535319659,10078
9.162334658,9529.2
14.78064118,9864.2
20.39025432,9600.2
25.99118913,9685.4
31.58346061,9975.8
37.16708375,9785.4
42.74207347,9613.8
48.30844468,9684
53.86621222,9449
59.41539093,9244
64.95599558,9266.8
70.48804091,9497
76.01154164,9638.4
81.52651243,9103.6
87.03296792,9547.8
92.5309227,9737.4
98.02039134,9239.6
103.5013884,9479.6
108.9739282,9457.6
114.4380255,9330.6
119.8936944,9489.8
125.3409495,10092
130.779805,9351.6
136.2102753,9147.2
141.6323747,9179.4
147.0461174,9621.2
152.4515176,9392
157.8485895,9343.6
163.2373472,9297.4
168.6178049,9601.6
173.9899766,9704.6
179.3538764,9325.4
184.7095182,9392.6
190.0569161,9634.4
195.396084,9720.4
200.7270358,9257
206.0497854,9233
211.3643466,9089.8
216.6707333,9361.2
221.9689593,9231.2
227.2590382,9258.8
232.5409839,9315.6
237.8148101,9180.8
243.0805303,9248.8
248.3381582,9210
253.5877075,9154.2
258.8291917,9223
264.0626244,9180
269.288019,9365.2
274.5053891,9545.8
279.7147481,9277
284.9161094,9113.8
290.1094865,9164
295.2948927,9551.6
300.4723414,10629.8
305.6418459,11248
310.8034194,12025.6
315.9570752,12961.2
321.1028267,13084
326.2406869,13021.6
331.370669,13240.6
336.4927863,13460.2
341.6070517,13500.6
346.7134786,13469.2
351.8120798,13785.8
356.9028684,13504.2
361.9858576,13634
367.0610602,13719.8
372.1284892,13692.8
377.1881577,13921.6
382.2400784,14509.8
387.2842644,15380
392.3207284,15964.4
397.3494833,15408.8
402.370542,14962.6
407.3839172,14136
412.3896217,13474.4
417.3876683,13032.2
422.3780697,12926
427.3608386,12950.8
432.3359876,13119.4
437.3035295,13147.2
442.2634769,13290.6
447.2158423,12681.8
452.1606383,12761.8
457.0978776,12917.4
462.0275727,12488.2
466.9497361,12796.4
471.8643802,12337.4
476.7715176,12801.4
481.6711608,12831
486.5633221,13060
491.448014,12720.2
496.3252488,12758.4
501.195039,12780.2
506.0573969,12877
510.9123349,12730
515.7598651,12382.6
520.6,12689.2
525.4327518,12601.2
530.2581327,12651.2
535.076155,12253
539.8868309,12584.6
544.6901726,12598.8
549.4861922,12343.8
554.2749019,13009.6
559.0563139,12427.6
563.8304402,12134
568.597293,12956
573.3568844,12756.8
578.1092263,12470.8
582.8543308,12730.8
587.5922101,12694.8
592.322876,12391.4
597.0463405,12511.8
601.7626157,12795.8
606.4717135,12396
611.1736458,12380.6
615.8684246,12483.6
620.5560617,12652.4
625.2365691,12350.2
629.9099585,12718.2
634.5762419,12798.6
639.2354312,12470.8
643.887538,12552
648.5325743,12274.8
653.1705518,12315
657.8014823,12524.4
662.4253775,11978.8
667.0422493,12233.4
671.6521092,12229
676.2549691,12409.6
680.8508407,12339.2
685.4397355,12304.2
690.0216654,12371.4
694.5966419,12192
699.1646767,12576
703.7257814,12424.8
708.2799676,12399
712.827247,12469.2
717.367631,12330.2
721.9011314,12249.6
726.4277595,11724.8
730.9475271,12236.8
735.4604456,12240.8
739.9665264,12499.2
744.4657813,12105
748.9582215,11992.2
753.4438587,11738.4
757.9227042,11717.8
762.3947696,12115.4
766.8600662,11739.2
771.3186056,12747.8
775.770399,11974.2
780.215458,12306.8
784.6537939,11822.8
789.0854181,11686
793.510342,11842.6
797.9285769,12329.2
802.3401342,11972.6
806.7450253,12011.8
811.1432614,12005
815.5348538,11774
819.9198139,11664.4
824.2981531,11726.6
828.6698824,11843
833.0350133,11604.4
837.393557,11460.8
841.7455248,11706
846.0909278,11546
850.4297774,11418.2
854.7620848,11466.6
859.0878611,11752.8
863.4071176,11266.6
867.7198655,11662.6
872.026116,11914.4
876.3258802,12282.2
880.6191693,11910.6
884.9059946,11781
889.186367,12173
893.4602979,11454.8
897.7277982,11478.8
901.9888793,11809.2
906.2435521,11915.8
910.4918277,11539.4
914.7337174,11479.2
918.9692321,11567.4
923.1983831,11986
927.4211813,11626.2
931.6376378,12246
935.8477637,11855.6
940.0515701,11983
944.249068,12022.4
948.4402684,11348.4
952.6251825,12127.4
956.8038212,11768.6
960.9761955,12240.8
965.1423166,11875.4
969.3021953,11856
973.4558427,11900.8
977.6032699,11759
981.7444877,11710.6
985.8795072,11718.4
990.0083394,11803.6
994.1309953,11534.6
998.2474857,11858.4
1002.357822,11289
1006.462014,11690.6
1010.560075,11544.6
1014.652013,11587.6
1018.737841,11809
1022.81757,11346
1026.891209,11451
1030.958771,11389.2
1035.020266,11537.6
1039.075705,11379.8
1043.1251,11127.8
1047.16846,11445
1051.205797,11386.4
1055.237121,11162
1059.262444,11192
1063.281777,11100.4
1067.295131,11465.6
1071.302515,12662.4
1075.303942,12671.2
1079.299422,13555.4
1083.288966,12764
1087.272585,12173.2
1091.250289,11618
1095.222091,11649.2
1099.187999,11251.8
1103.148026,11267
1107.102183,11199
1111.050479,11367.4
1114.992927,11225.8
1118.929536,11234.8
1122.860318,11437.6
1126.785283,11138.8
1130.704443,11013.6
1134.617808,11851.4
1138.52539,11700.4
1142.427198,11687.6
1146.323244,11600.2
1150.213538,11311
1154.098093,11444.4
1157.976917,11115.4
1161.850023,10992.2
1165.717421,11346.4
1169.579121,11233.2
1173.435135,11523.2
1177.285474,10957.8
1181.130148,11240.6
1184.969169,11426.8
1188.802547,11309.2
1192.630292,10961.8
1196.452416,10737
1200.26893,10844.8
1204.079844,10611
1207.88517,10394.6
1211.684917,10841.6
1215.479098,10465.4
1219.267722,11558.6
1223.050801,10558.4
1226.828346,10647.2
1230.600366,10779.2
1234.366874,10980.6
1238.12788,10764.8
1241.883395,10735.6
1245.633429,11009
1249.377994,10901.2
1253.1171,10376.8
1256.850759,10586
1260.578981,10682
1264.301776,10711.6
1268.019157,10596.8
1271.731133,10529.6
1275.437715,10334
1279.138915,10703.8
1282.834743,10789
1286.52521,10544.2
1290.210328,10433.2
1293.890106,10559.6
1297.564555,10998.4
1301.233688,10405.6
1304.897514,10782.2
1308.556044,10809.2
1312.209289,10868
1315.857261,10427.4
1319.499969,10495.2
1323.137425,11023.4
1326.769641,10703.6
1330.396626,11063
1334.018391,10693
1337.634948,10797.4
1341.246307,10532
1344.85248,10496.6
1348.453477,10324.8
1352.049309,10433.2
1355.639987,10425.8
1359.225522,10781.4
1362.805925,10551.8
1366.381207,10639.6
1369.951379,10635.4
1373.516452,10698.2
1377.076436,10843.8
1380.631343,10637
1384.181184,10543.8
1387.725969,10728
1391.26571,10547.6
1394.800417,10422.4
1398.330102,10446
1401.854776,10600.6
1405.374448,10465.4
1408.889132,10076.8
1412.398837,9946.2
1415.903574,10135.2
1419.403355,10692.6
1422.89819,10419.8
1426.388091,10418.4
1429.873069,10838
1433.353134,10394.8
1436.828298,10460.6
1440.298571,10589.8
1443.763965,10281
1447.224491,10259.4
1450.68016,10149.6
1454.130983,10508.4
1457.576971,10356.2
1461.018135,10495.2
1464.454486,10498.6
1467.886036,10180
1471.312794,10343.2
1474.734774,10090
1478.151985,10524.6
1481.564439,10362
1484.972146,10355.4
1488.375119,10005.8
1491.773368,10383.6
1495.166904,10747.2
1498.555739,10190.4
1501.939883,10260
1505.319349,9871.8
1508.694146,10227.2
1512.064286,10237.4
1515.429781,10165.4
1518.790642,10067.8
1522.146879,10150.4
1525.498505,9870.2
1528.845529,9919.2
1532.187965,10402.2
1535.525822,10085.2
1538.859112,10142.8
1542.187846,10559.4
1545.512036,9923.8
1548.831693,10840.8
1552.146829,10443.4
1555.457453,9855.8
1558.763579,9708
1562.065216,10136
1565.362377,10398.6
1568.655073,10547.4
1571.943315,10527.8
1575.227114,10467.6
1578.506482,10559
1581.781431,10972.4
1585.051971,10764.6
1588.318114,10944.2
1591.579872,10819
1594.837255,10537.6
1598.090275,10330.8
1601.338945,10221.8
1604.583274,10354.8
1607.823275,10054.4
1611.058959,9662.8
1614.290338,10532.2
1617.517422,9651.6
1620.740224,9919.2
1623.958755,9701
1627.173027,9814.6
1630.38305,9459.8
1633.588838,9800
1636.7904,9680.2
1639.987749,9778.6
1643.180896,9884.8
1646.369853,9425
1649.554632,10007.4
1652.735244,9585.4
1655.9117,9385
1659.084013,9618.2
1662.252193,10037.6
1665.416254,9468.2
1668.576205,9641
1671.732059,9809.4
1674.883828,9818
1678.031523,9486.4
1681.175157,9562.8
1684.314739,9608.8
1687.450284,9534
1690.581801,9486.8
1693.709304,9313.2
1696.832803,9380.2
1699.952311,9533.4
1703.067839,9573.4
1706.179399,9510.8
1709.287003,9804
1712.390663,9480.6
1715.49039,9558
1718.586197,9746.6
1721.678095,9639
1724.766096,9767
1727.850213,9230.2
1730.930456,9407.2
1734.006838,9387.6
1737.079372,9597.6
1740.148067,9321.8
1743.212938,10042
1746.273996,9525.4
1749.331252,9504.4
1752.384718,9591.4
1755.434408,9489.2
1758.480332,9582.4
1761.522503,9499.8
1764.560933,9378.4
1767.595634,9235.6
1770.626618,9650.2
1773.653896,9590
1776.677482,9421.4
1779.697388,9356.2
1782.713625,9745.8
1785.726205,9732.6
1788.735141,9666.8
1791.740445,9394
1794.742129,9275.6
1797.740206,9589.6
1800.734687,9729.6
1803.725585,9567.8
1806.712912,9608.2
1809.69668,9293.2
1812.676902,9400.8
1815.65359,9189.2
1818.626756,9294.4
1821.596413,9401.4
1824.562573,9079.6
1827.525247,9372
1830.48445,9177.2
1833.440192,9404.2
1836.392487,9303.4
1839.341347,9411.2
1842.286784,9425.6
1845.22881,9038.2
1848.167439,9466
1851.102682,9357.8
1854.034553,9330.6
1856.963063,9174.8
1859.888226,9773.8
1862.810053,9469.2
1865.728557,9307.6
1868.643751,9080.8
1871.555648,9152.2
1874.46426,8939
1877.369599,9351.6
1880.271679,9249.4
1883.170512,9212.4
1886.06611,9538.2
1888.958487,9196.2
1891.847655,9157
1894.733626,9369.8
1897.616414,9409.2
1900.496032,9110.2
1903.372491,9272.4
1906.245805,9488
1909.115987,9582
1911.983049,9471
1914.847004,9447.6
1917.707866,9546
1920.565646,9509.8
1923.420359,9279.8
1926.272016,9446.2
1929.120631,9227.6
1931.966216,9251.6
1934.808786,9255.8
1937.648351,9490.8
1940.484927,9471.4
1943.318525,9507
1946.149158,9672
1948.97684,10273
1951.801584,9583.8
1954.623403,9492.2
1957.44231,9556.2
1960.258318,9185.8
1963.071439,9195.4
1965.881688,9375.8
1968.689078,9464.4
1971.493621,9309
