Ramanshift[cm-1],Intensity
-93.47115107,10682.4
-87.69374369,9648.8
-81.9253076,9683.8
-76.16582701,9668.6
-70.41528615,9758
-64.67366933,9527.4
-58.94096086,9554.6
-53.21714512,9661.8
-47.50220652,9774.6
-41.79612954,9724.4
-36.09889866,10045.8
-30.41049843,10236.8
-24.73091343,9999
-19.0601283,9976.8
-13.39812769,9843.6
-7.744896327,9592.8
-2.100418946,9515
3.535319659,10026.2
9.162334658,9469
14.78064118,9730.6
20.39025432,9483.4
25.99118913,9451.8
31.58346061,9825.2
37.16708375,9770.6
42.74207347,9521.4
48.30844468,9537.4
53.86621222,9488.4
59.41539093,9229.6
64.95599558,9142.2
70.48804091,9384.2
76.01154164,9487.4
81.52651243,9095.8
87.03296792,9472.8
92.5309227,9630.8
98.02039134,9086.2
103.5013884,9394
108.9739282,9337.6
114.4380255,9294.2
119.8936944,9378.6
125.3409495,10040.4
130.779805,9234.2
136.2102753,9107.6
141.6323747,9129.4
147.0461174,9525
152.4515176,9324
157.8485895,9267.6
163.2373472,9161.4
168.6178049,9430.4
173.9899766,9584.2
179.3538764,9290
184.7095182,9354.4
190.0569161,9538.4
195.396084,9642.6
200.7270358,9157
206.0497854,9311.2
211.3643466,9049.2
216.6707333,9305.4
221.9689593,9068.8
227.2590382,9154.2
232.5409839,9152.4
237.8148101,9126.6
243.0805303,9157.2
248.3381582,9186.8
253.5877075,9036
258.8291917,9074.4
264.0626244,9173.6
269.288019,9281.8
274.5053891,9455.2
279.7147481,9158.8
284.9161094,9044.6
290.1094865,9240.4
295.2948927,9816
300.4723414,11289.4
305.6418459,12596.8
310.8034194,13763.6
315.9570752,14889.6
321.1028267,15042.6
326.2406869,15070
331.370669,15398.6
336.4927863,15597.2
341.6070517,15816.8
346.7134786,15918.8
351.8120798,16322.2
356.9028684,16053
361.9858576,16038
367.0610602,16291.8
372.1284892,16367.8
377.1881577,17516
382.2400784,19498.4
387.2842644,22043.2
392.3207284,23245.2
397.3494833,21787.6
402.370542,20060.8
407.3839172,18137.8
412.3896217,16489.6
417.3876683,15518.8
422.3780697,15194
427.3608386,14882
432.3359876,14900.2
437.3035295,14913.6
442.2634769,14846.8
447.2158423,14347.2
452.1606383,14403.6
457.0978776,14457.4
462.0275727,14080
466.9497361,14362.2
471.8643802,14009.4
476.7715176,14430.6
481.6711608,14594
486.5633221,14955.2
491.448014,14701
496.3252488,14479.4
501.195039,14288.8
506.0573969,14437.2
510.9123349,14227.8
515.7598651,13797.8
520.6,14163.8
525.4327518,14047.6
530.2581327,14204.8
535.076155,13804.8
539.8868309,14238.4
544.6901726,14202.6
549.4861922,13882
554.2749019,14454.6
559.0563139,13853.4
563.8304402,13530.4
568.597293,14352.4
573.3568844,13978.4
578.1092263,13696
582.8543308,13899
587.5922101,13842.6
592.322876,13682.2
597.0463405,13714
601.7626157,13966.4
606.4717135,13662.8
611.1736458,13652
615.8684246,13682.4
620.5560617,13840.8
625.2365691,13541
629.9099585,13938.8
634.5762419,14086.8
639.2354312,13632
643.887538,13828.4
648.5325743,13477.4
653.1705518,13420.4
657.8014823,13587.2
662.4253775,13095.6
667.0422493,13392.2
671.6521092,13324
676.2549691,13474.4
680.8508407,13478
685.4397355,13298
690.0216654,13442
694.5966419,13404.8
699.1646767,13827.6
703.7257814,13705
708.2799676,13798.2
712.827247,13754.8
717.367631,13630
721.9011314,13502.6
726.4277595,12946.4
730.9475271,13390
735.4604456,13115.2
739.9665264,13493.6
744.4657813,13195.2
748.9582215,13056.8
753.4438587,12802
757.9227042,12813
762.3947696,13073.6
766.8600662,12759.4
771.3186056,13803.8
775.770399,13113.6
780.215458,13409.2
784.6537939,12989.6
789.0854181,12909
793.510342,13103
797.9285769,13676.6
802.3401342,13211.6
806.7450253,13260
811.1432614,13105.8
815.5348538,12936.4
819.9198139,12766.6
824.2981531,12804.6
828.6698824,12825.6
833.0350133,12595.6
837.393557,12265.6
841.7455248,12692
846.0909278,12456.4
850.4297774,12416.6
854.7620848,12423
859.0878611,12658.6
863.4071176,12202.6
867.7198655,12709.4
872.026116,12860.2
876.3258802,13145.6
880.6191693,12903.8
884.9059946,12919.2
889.186367,13426.6
893.4602979,12495
897.7277982,12587.4
901.9888793,12893
906.2435521,13131.2
910.4918277,12816.6
914.7337174,12890.8
918.9692321,12948.8
923.1983831,13334
927.4211813,13161
931.6376378,13626.4
935.8477637,13284.8
940.0515701,13420.2
944.249068,13537
948.4402684,12897.2
952.6251825,13680
956.8038212,13411.4
960.9761955,13856.8
965.1423166,13483.4
969.3021953,13531
973.4558427,13396
977.6032699,13283
981.7444877,13311.4
985.8795072,13217.4
990.0083394,13201.8
994.1309953,13017.4
998.2474857,13348.4
1002.357822,12799.8
1006.462014,13241.4
1010.560075,12910.4
1014.652013,12838.6
1018.737841,12990.4
1022.81757,12543.6
1026.891209,12619.6
1030.958771,12525.8
1035.020266,12678.8
1039.075705,12448.6
1043.1251,12294.6
1047.16846,12477
1051.205797,12397.2
1055.237121,12466.4
1059.262444,12766.4
1063.281777,13422.4
1067.295131,14940.4
1071.302515,17235.4
1075.303942,18074.6
1079.299422,18191.8
1083.288966,16122
1087.272585,14187.8
1091.250289,13037.4
1095.222091,12694.2
1099.187999,12282.4
1103.148026,12249.8
1107.102183,12130
1111.050479,12245.8
1114.992927,12210.4
1118.929536,12243.8
1122.860318,12647.8
1126.785283,12554.4
1130.704443,13101.2
1134.617808,14344.8
1138.52539,14638.2
1142.427198,14295.8
1146.323244,13563.8
1150.213538,12737.8
1154.098093,12772.6
1157.976917,12136
1161.850023,12113.8
1165.717421,12430.2
1169.579121,12425.8
1173.435135,12808
1177.285474,12464.2
1181.130148,12856.2
1184.969169,12860
1188.802547,12573.8
1192.630292,12084.8
1196.452416,11720
1200.26893,11745.4
1204.079844,11414.2
1207.88517,11072.2
1211.684917,11633.4
1215.479098,11170.4
1219.267722,12365.8
1223.050801,11291.4
1226.828346,11371
1230.600366,11576.4
1234.366874,11710
1238.12788,11434.6
1241.883395,11624.8
1245.633429,11838.4
1249.377994,11762.6
1253.1171,11277.6
1256.850759,11393.2
1260.578981,11386.2
1264.301776,11436.4
1268.019157,11350.2
1271.731133,11139.6
1275.437715,10901.6
1279.138915,11352.6
1282.834743,11504.6
1286.52521,11279.8
1290.210328,11176.2
1293.890106,11267.4
1297.564555,11578
1301.233688,11215
1304.897514,11592.2
1308.556044,11660
1312.209289,11552
1315.857261,11094.6
1319.499969,11270.2
1323.137425,11733.6
1326.769641,11375.8
1330.396626,11791.8
1334.018391,11391.6
1337.634948,11433.4
1341.246307,11253.4
1344.85248,11309.2
1348.453477,11242.8
1352.049309,11187
1355.639987,11171.4
1359.225522,11627.6
1362.805925,11430.8
1366.381207,11485.4
1369.951379,11632.4
1373.516452,11797.2
1377.076436,12053
1380.631343,12125.6
1384.181184,12201.6
1387.725969,12498.6
1391.26571,12069.4
1394.800417,11618.8
1398.330102,11385.4
1401.854776,11453.8
1405.374448,11164.8
1408.889132,10809
1412.398837,10658
1415.903574,11170.4
1419.403355,11998.2
1422.89819,12109.4
1426.388091,12364
1429.873069,12640.2
1433.353134,11939.4
1436.828298,11675.8
1440.298571,11535.8
1443.763965,11017.4
1447.224491,10873.8
1450.68016,10821
1454.130983,10992.2
1457.576971,11005.8
1461.018135,11057
1464.454486,11183.8
1467.886036,10837.8
1471.312794,10837.4
1474.734774,10650.4
1478.151985,11060
1481.564439,10935
1484.972146,10874.8
1488.375119,10631.2
1491.773368,10839.4
1495.166904,11228
1498.555739,10613.2
1501.939883,10688.4
1505.319349,10399
1508.694146,10662.8
1512.064286,10728.6
1515.429781,10704.2
1518.790642,10638.2
1522.146879,10701
1525.498505,10262.4
1528.845529,10298.2
1532.187965,10887.8
1535.525822,10596.8
1538.859112,10642.2
1542.187846,11058.8
1545.512036,10455.4
1548.831693,11448.4
1552.146829,11094
1555.457453,10597.6
1558.763579,10604.6
1562.065216,11059
1565.362377,11428.6
1568.655073,11819.8
1571.943315,11906.6
1575.227114,12125.6
1578.506482,12249
1581.781431,12711.2
1585.051971,12672
1588.318114,12716
1591.579872,12197
1594.837255,11679.6
1598.090275,11071
1601.338945,10923.8
1604.583274,10890.4
1607.823275,10545.6
1611.058959,10227
1614.290338,11029
1617.517422,10171.2
1620.740224,10365.8
1623.958755,10130.6
1627.173027,10220.8
1630.38305,9890.8
1633.588838,10334.4
1636.7904,10094.6
1639.987749,10125.4
1643.180896,10244.2
1646.369853,9797.6
1649.554632,10397.4
1652.735244,9946.2
1655.9117,9590.2
1659.084013,9864.6
1662.252193,10381.6
1665.416254,9740.4
1668.576205,9870.4
1671.732059,10010.4
1674.883828,10024.8
1678.031523,9704.8
1681.175157,9719.6
1684.314739,9808.2
1687.450284,9749.8
1690.581801,9621
1693.709304,9508.2
1696.832803,9644.6
1699.952311,9694
1703.067839,9757.8
1706.179399,9640.8
1709.287003,9919.8
1712.390663,9802.6
1715.49039,9733
1718.586197,9986.6
1721.678095,9795
1724.766096,9810.2
1727.850213,9341
1730.930456,9698.4
1734.006838,9430
1737.079372,9760.8
1740.148067,9478.6
1743.212938,10195.4
1746.273996,9693.6
1749.331252,9561
1752.384718,9579.4
1755.434408,9640.4
1758.480332,9666.6
1761.522503,9797.4
1764.560933,9512.6
1767.595634,9272.4
1770.626618,9773
1773.653896,9732.8
1776.677482,9465.4
1779.697388,9483.2
1782.713625,9832.4
1785.726205,9731
1788.735141,9736.8
1791.740445,9444.8
1794.742129,9431.6
1797.740206,9774.4
1800.734687,9776.6
1803.725585,9671.2
1806.712912,9674.4
1809.69668,9458.8
1812.676902,9521.4
1815.65359,9306.8
1818.626756,9437.4
1821.596413,9489.8
1824.562573,9304.8
1827.525247,9470.6
1830.48445,9372.2
1833.440192,9497.8
1836.392487,9410.4
1839.341347,9524.2
1842.286784,9561
1845.22881,9184
1848.167439,9626.4
1851.102682,9457.8
1854.034553,9424.6
1856.963063,9239.8
1859.888226,9938.8
1862.810053,9653.6
1865.728557,9473.4
1868.643751,9225.8
1871.555648,9209.6
1874.46426,9135.4
1877.369599,9476
1880.271679,9328.8
1883.170512,9310
1886.06611,9634.4
1888.958487,9350
1891.847655,9368
1894.733626,9481.8
1897.616414,9554
1900.496032,9126.2
1903.372491,9312.8
1906.245805,9623.8
1909.115987,9634.4
1911.983049,9607
1914.847004,9548.4
1917.707866,9664.2
1920.565646,9621.6
1923.420359,9297.2
1926.272016,9542.2
1929.120631,9334
1931.966216,9421.2
1934.808786,9317.6
1937.648351,9593.6
1940.484927,9532.6
1943.318525,9566.2
1946.149158,9736
1948.97684,10367
1951.801584,9595.6
1954.623403,9610.2
1957.44231,9632.4
1960.258318,9311.8
1963.071439,9297.8
1965.881688,9491.4
1968.689078,9479
1971.493621,9401.2
