Ramanshift[cm-1],Intensity
-93.47115107,10834.8
-87.69374369,9976.2
-81.9253076,9687.8
-76.16582701,9838.8
-70.41528615,9872.2
-64.67366933,9723
-58.94096086,9614.8
-53.21714512,9824
-47.50220652,9996.2
-41.79612954,9891.2
-36.09889866,10166.6
-30.41049843,10339.6
-24.73091343,10066
-19.0601283,9972.2
-13.39812769,9896.8
-7.744896327,9771.8
-2.100418946,9634.6
3.535319659,10077
9.162334658,9599.4
14.78064118,9804.6
20.39025432,9655.6
25.99118913,9681.6
31.58346061,10028.6
37.16708375,9867.6
42.74207347,9636.2
48.30844468,9574.4
53.86621222,9543.6
59.41539093,9265.6
64.95599558,9275.4
70.48804091,9651
76.01154164,9664.4
81.52651243,9240.6
87.03296792,9628
92.5309227,9833.4
98.02039134,9290.6
103.5013884,9529.4
108.9739282,9465.2
114.4380255,9461.4
119.8936944,9491.2
125.3409495,10094.6
130.779805,9355.8
136.2102753,9310.4
141.6323747,9277.4
147.0461174,9670
152.4515176,9398.2
157.8485895,9380.6
163.2373472,9311
168.6178049,9547.6
173.9899766,9801.6
179.3538764,9381.4
184.7095182,9430.6
190.0569161,9708.4
195.396084,9693.6
200.7270358,9330.6
206.0497854,9330
211.3643466,9210.8
216.6707333,9432.4
221.9689593,9194.8
227.2590382,9370.6
232.5409839,9244.8
237.8148101,9241.4
243.0805303,9314.8
248.3381582,9268.2
253.5877075,9113
258.8291917,9220.4
264.0626244,9303.6
269.288019,9402.4
274.5053891,9589.8
279.7147481,9337.2
284.9161094,9153
290.1094865,9290.2
295.2948927,9568.8
300.4723414,10445.8
305.6418459,10750.2
310.8034194,11175
315.9570752,11989.8
321.1028267,12132.6
326.2406869,12029
331.370669,12250
336.4927863,12250.6
341.6070517,12304
346.7134786,12121.2
351.8120798,12385.8
356.9028684,12164.8
361.9858576,12271.6
367.0610602,12498
372.1284892,12342.2
377.1881577,12710.8
382.2400784,12939
387.2842644,13398
392.3207284,13788.8
397.3494833,13428.8
402.370542,13305.8
407.3839172,12639.8
412.3896217,12159.4
417.3876683,11813.8
422.3780697,11880.4
427.3608386,11896.6
432.3359876,12036.2
437.3035295,12166.8
442.2634769,12202
447.2158423,11700.8
452.1606383,11815
457.0978776,11915.6
462.0275727,11532.6
466.9497361,11828.6
471.8643802,11485.8
476.7715176,11785
481.6711608,11798.4
486.5633221,11994.4
491.448014,11750
496.3252488,11781.2
501.195039,11638.6
506.0573969,11952.4
510.9123349,11814.4
515.7598651,11357.6
520.6,11813.6
525.4327518,11729.6
530.2581327,11761
535.076155,11328
539.8868309,11727
544.6901726,11803.4
549.4861922,11461
554.2749019,12197
559.0563139,11537.6
563.8304402,11332.2
568.597293,12108.8
573.3568844,11792.8
578.1092263,11525.6
582.8543308,11822.8
587.5922101,11746.4
592.322876,11490
597.0463405,11587.6
601.7626157,11793.8
606.4717135,11503.2
611.1736458,11518.4
615.8684246,11530.8
620.5560617,11785.6
625.2365691,11536
629.9099585,11964
634.5762419,11990.8
639.2354312,11610.6
643.887538,11617.8
648.5325743,11427.4
653.1705518,11496.6
657.8014823,11696.6
662.4253775,11159.2
667.0422493,11461
671.6521092,11342
676.2549691,11613.2
680.8508407,11531.2
685.4397355,11375.6
690.0216654,11522
694.5966419,11412.2
699.1646767,11657
703.7257814,11528.2
708.2799676,11537.2
712.827247,11608.6
717.367631,11465.2
721.9011314,11412.6
726.4277595,10990.8
730.9475271,11468.2
735.4604456,11379.4
739.9665264,11692.2
744.4657813,11419.2
748.9582215,11290.4
753.4438587,10979
757.9227042,11055.6
762.3947696,11394
766.8600662,11044.4
771.3186056,11974
775.770399,11344.8
780.215458,11573
784.6537939,11079.4
789.0854181,11074.8
793.510342,11084.4
797.9285769,11515.2
802.3401342,11231.8
806.7450253,11270
811.1432614,11222.4
815.5348538,11114.2
819.9198139,10924.4
824.2981531,11120.8
828.6698824,11157
833.0350133,11072.2
837.393557,10876.6
841.7455248,11173
846.0909278,10952.2
850.4297774,10883
854.7620848,10961.6
859.0878611,11220.6
863.4071176,10690.2
867.7198655,11042.8
872.026116,11313.4
876.3258802,11591
880.6191693,11302.2
884.9059946,11174.8
889.186367,11656.2
893.4602979,10797.2
897.7277982,10787.8
901.9888793,11105.6
906.2435521,11402.8
910.4918277,10897.6
914.7337174,10813.8
918.9692321,10799
923.1983831,11275.4
927.4211813,11098.2
931.6376378,11554.2
935.8477637,11112.2
940.0515701,11280.4
944.249068,11326.8
948.4402684,10707.2
952.6251825,11360.8
956.8038212,11116.6
960.9761955,11545.2
965.1423166,11155
969.3021953,11244
973.4558427,11175.4
977.6032699,11031.4
981.7444877,11199.6
985.8795072,11095.2
990.0083394,11171.8
994.1309953,10910.8
998.2474857,11188
1002.357822,10644.6
1006.462014,11030.8
1010.560075,10859
1014.652013,11123.4
1018.737841,11297
1022.81757,10958.4
1026.891209,11052.2
1030.958771,10836.8
1035.020266,11082.6
1039.075705,10810.8
1043.1251,10668.2
1047.16846,10945
1051.205797,10724.8
1055.237121,10591.4
1059.262444,10587.8
1063.281777,10486
1067.295131,10591
1071.302515,11567.8
1075.303942,11414.4
1079.299422,12088.4
1083.288966,11598.8
1087.272585,11210.2
1091.250289,10968.8
1095.222091,10998
1099.187999,10733.4
1103.148026,10829
1107.102183,10691.8
1111.050479,10858.8
1114.992927,10783.6
1118.929536,10653
1122.860318,10936
1126.785283,10510.2
1130.704443,10316.2
1134.617808,10894.6
1138.52539,10860.4
1142.427198,10833.6
1146.323244,10869.8
1150.213538,10679.8
1154.098093,10878
1157.976917,10513.2
1161.850023,10492.2
1165.717421,10891.2
1169.579121,10730
1173.435135,10937
1177.285474,10337.4
1181.130148,10566.8
1184.969169,10826.2
1188.802547,10741.4
1192.630292,10426
1196.452416,10219.4
1200.26893,10323.2
1204.079844,10183.6
1207.88517,9931
1211.684917,10341.4
1215.479098,9945.6
1219.267722,11188.6
1223.050801,10166.8
1226.828346,10164.8
1230.600366,10391
1234.366874,10482.2
1238.12788,10152.2
1241.883395,10334
1245.633429,10508.2
1249.377994,10448.8
1253.1171,9915.2
1256.850759,10207.4
1260.578981,10179.2
1264.301776,10252.8
1268.019157,10279.8
1271.731133,9981
1275.437715,9790.2
1279.138915,10215
1282.834743,10408.4
1286.52521,10151.6
1290.210328,10019.2
1293.890106,10151.6
1297.564555,10369.4
1301.233688,9937.2
1304.897514,10342.8
1308.556044,10314.2
1312.209289,10315.4
1315.857261,9985.8
1319.499969,10142.4
1323.137425,10457.8
1326.769641,10240
1330.396626,10593.2
1334.018391,10292.2
1337.634948,10314.4
1341.246307,10212.8
1344.85248,10107.2
1348.453477,10047.4
1352.049309,10000.2
1355.639987,9966.2
1359.225522,10340.2
1362.805925,10203
1366.381207,10097.6
1369.951379,10188.2
1373.516452,10235.2
1377.076436,10321
1380.631343,10103.4
1384.181184,9973.4
1387.725969,10137.4
1391.26571,9978.8
1394.800417,9827.2
1398.330102,10012.4
1401.854776,10099.4
1405.374448,10036
1408.889132,9701.4
1412.398837,9581.8
1415.903574,9722.6
1419.403355,10208.4
1422.89819,9904
1426.388091,9802.6
1429.873069,10230.4
1433.353134,9886.2
1436.828298,9848
1440.298571,10006.4
1443.763965,9754
1447.224491,9779
1450.68016,9734
1454.130983,10072.8
1457.576971,10091.8
1461.018135,10143.2
1464.454486,10204.4
1467.886036,9913.4
1471.312794,9911.4
1474.734774,9647
1478.151985,10219.6
1481.564439,10006
1484.972146,9925.8
1488.375119,9692.2
1491.773368,9900.4
1495.166904,10393.8
1498.555739,9859.4
1501.939883,9835.6
1505.319349,9558.2
1508.694146,9932
1512.064286,9903.6
1515.429781,9937.6
1518.790642,9698.6
1522.146879,9858.8
1525.498505,9541.6
1528.845529,9541
1532.187965,10092.6
1535.525822,9811
1538.859112,9837.2
1542.187846,10292.4
1545.512036,9604.8
1548.831693,10520.2
1552.146829,10193
1555.457453,9597.4
1558.763579,9383.4
1562.065216,9764.6
1565.362377,9970.6
1568.655073,10118.6
1571.943315,10011
1575.227114,10019.6
1578.506482,10021.8
1581.781431,10511.8
1585.051971,10264.2
1588.318114,10325.6
1591.579872,10224.8
1594.837255,10119.4
1598.090275,9903.4
1601.338945,9907.6
1604.583274,10014
1607.823275,9834.8
1611.058959,9496.2
1614.290338,10468.8
1617.517422,9495.4
1620.740224,9699.6
1623.958755,9469.2
1627.173027,9614.4
1630.38305,9303.8
1633.588838,9651.8
1636.7904,9382.8
1639.987749,9559.6
1643.180896,9685.2
1646.369853,9291.2
1649.554632,9845.2
1652.735244,9479.8
1655.9117,9184.4
1659.084013,9392.6
1662.252193,9896.8
1665.416254,9266.6
1668.576205,9477.2
1671.732059,9617.6
1674.883828,9739.8
1678.031523,9412.4
1681.175157,9373
1684.314739,9436.8
1687.450284,9335.8
1690.581801,9246.4
1693.709304,9166.6
1696.832803,9307.4
1699.952311,9487.8
1703.067839,9428
1706.179399,9381
1709.287003,9702.6
1712.390663,9418.2
1715.49039,9459.8
1718.586197,9638.8
1721.678095,9574.8
1724.766096,9563
1727.850213,9168.8
1730.930456,9450.6
1734.006838,9270
1737.079372,9550
1740.148067,9233.2
1743.212938,9987.4
1746.273996,9384.4
1749.331252,9424.8
1752.384718,9499.8
1755.434408,9466.2
1758.480332,9468.8
1761.522503,9579.8
1764.560933,9375.4
1767.595634,9092.4
1770.626618,9637.2
1773.653896,9456.4
1776.677482,9336.2
1779.697388,9297.8
1782.713625,9712.8
1785.726205,9655.8
1788.735141,9685
1791.740445,9203.2
1794.742129,9305.2
1797.740206,9636.4
1800.734687,9607.2
1803.725585,9534.4
1806.712912,9496.6
1809.69668,9241
1812.676902,9388.2
1815.65359,9107.2
1818.626756,9144.8
1821.596413,9321.4
1824.562573,9126
1827.525247,9269.6
1830.48445,9115.4
1833.440192,9318
1836.392487,9178.4
1839.341347,9431.8
1842.286784,9482.6
1845.22881,9002.4
1848.167439,9443.6
1851.102682,9257.6
1854.034553,9249
1856.963063,9160.6
1859.888226,9824
1862.810053,9407.6
1865.728557,9250
1868.643751,9032.2
1871.555648,9094.4
1874.46426,8955.4
1877.369599,9327.6
1880.271679,9171.4
1883.170512,9173.6
1886.06611,9453.6
1888.958487,9232.8
1891.847655,9187
1894.733626,9355.8
1897.616414,9301.2
1900.496032,9060.8
1903.372491,9168.8
1906.245805,9531.6
1909.115987,9496.4
1911.983049,9427.6
1914.847004,9425
1917.707866,9542
1920.565646,9505.6
1923.420359,9250
1926.272016,9400.8
1929.120631,9210.6
1931.966216,9229
1934.808786,9338
1937.648351,9392.6
1940.484927,9259.4
1943.318525,9489.2
1946.149158,9662.8
1948.97684,10350
1951.801584,9545.2
1954.623403,9456.8
1957.44231,9464.8
1960.258318,9172.2
1963.071439,9109.6
1965.881688,9339
1968.689078,9402.8
1971.493621,9267.2
