Ramanshift[cm-1],Intensity
-93.47115107,10563.2
-87.69374369,9663.2
-81.9253076,9589.4
-76.16582701,9732.4
-70.41528615,9617
-64.67366933,9426.6
-58.94096086,9481.2
-53.21714512,9574.6
-47.50220652,9792.4
-41.79612954,9663.4
-36.09889866,9987.6
-30.41049843,10168.8
-24.73091343,9883.6
-19.0601283,9883.8
-13.39812769,9647.6
-7.744896327,9560
-2.100418946,9424
3.535319659,9879.2
9.162334658,9439.8
14.78064118,9669.8
20.39025432,9427.6
25.99118913,9453
31.58346061,9795
37.16708375,9585.8
42.74207347,9353.8
48.30844468,9423
53.86621222,9362.6
59.41539093,9103.2
64.95599558,9085
70.48804091,9381.2
76.01154164,9438.2
81.52651243,9018.4
87.03296792,9392
92.5309227,9605.6
98.02039134,9095
103.5013884,9295.6
108.9739282,9272.4
114.4380255,9226
119.8936944,9307.2
125.3409495,9944.8
130.779805,9139.4
136.2102753,9071
141.6323747,9125.8
147.0461174,9431
152.4515176,9197.6
157.8485895,9192.4
163.2373472,9056.2
168.6178049,9388.6
173.9899766,9505
179.3538764,9193.4
184.7095182,9267.4
190.0569161,9439.8
195.396084,9502.4
200.7270358,9088.6
206.0497854,9113.2
211.3643466,8944.4
216.6707333,9313.4
221.9689593,8930.2
227.2590382,9105.4
232.5409839,9029
237.8148101,9073.8
243.0805303,9212.8
248.3381582,9026.6
253.5877075,8917.2
258.8291917,9089.6
264.0626244,9028.2
269.288019,9211.6
274.5053891,9279
279.7147481,9041.2
284.9161094,8922.2
290.1094865,9060.8
295.2948927,9261
300.4723414,10023.4
305.6418459,10296.4
310.8034194,10665.2
315.9570752,11279.8
321.1028267,11514.6
326.2406869,11536
331.370669,11717
336.4927863,11815.2
341.6070517,11784
346.7134786,11761.4
351.8120798,11977
356.9028684,11863.6
361.9858576,12045.4
367.0610602,12189.2
372.1284892,12241.2
377.1881577,12899.2
382.2400784,13935.2
387.2842644,15723.8
392.3207284,16982.4
397.3494833,16234.6
402.370542,15208.2
407.3839172,13571.2
412.3896217,12575.2
417.3876683,11791.4
422.3780697,11636.4
427.3608386,11465
432.3359876,11572.8
437.3035295,11664
442.2634769,11729.2
447.2158423,11236
452.1606383,11282
457.0978776,11453.4
462.0275727,11034.2
466.9497361,11245.6
471.8643802,10831.2
476.7715176,11181.4
481.6711608,11249
486.5633221,11297.2
491.448014,11161
496.3252488,11254
501.195039,11278.2
506.0573969,11487.8
510.9123349,11315.6
515.7598651,10884.8
520.6,11306.6
525.4327518,11147.6
530.2581327,11335.4
535.076155,10829.4
539.8868309,11166.6
544.6901726,11204.8
549.4861922,11005.6
554.2749019,11670
559.0563139,11030.6
563.8304402,10927
568.597293,11547.8
573.3568844,11332.6
578.1092263,11010.2
582.8543308,11328.6
587.5922101,11237.6
592.322876,11043.8
597.0463405,10952.8
601.7626157,11251
606.4717135,10967.8
611.1736458,11000.8
615.8684246,11085.4
620.5560617,11240.4
625.2365691,11115.4
629.9099585,11390.4
634.5762419,11655
639.2354312,11259
643.887538,11403.8
648.5325743,11227.8
653.1705518,11113.2
657.8014823,11211.6
662.4253775,10687.6
667.0422493,10969
671.6521092,10917.4
676.2549691,11101.4
680.8508407,11110
685.4397355,11024
690.0216654,11151.8
694.5966419,10994.4
699.1646767,11420
703.7257814,11271.8
708.2799676,11296.4
712.827247,11206.8
717.367631,11098.6
721.9011314,10985.2
726.4277595,10591.6
730.9475271,11074.6
735.4604456,10971.6
739.9665264,11301.6
744.4657813,10941.6
748.9582215,10799.8
753.4438587,10622.2
757.9227042,10613.4
762.3947696,10967
766.8600662,10626.4
771.3186056,11678.8
775.770399,11004.2
780.215458,11143.2
784.6537939,10701.2
789.0854181,10649.2
793.510342,10780.6
797.9285769,11237.8
802.3401342,10942.8
806.7450253,11129.6
811.1432614,11065.2
815.5348538,10908.8
819.9198139,10700.4
824.2981531,10804.2
828.6698824,10823.8
833.0350133,10809
837.393557,10423.4
841.7455248,10640.6
846.0909278,10560.2
850.4297774,10437
854.7620848,10467.8
859.0878611,10863.4
863.4071176,10224.2
867.7198655,10683.2
872.026116,10858.8
876.3258802,11233.6
880.6191693,10884.4
884.9059946,10905
889.186367,11250.4
893.4602979,10375.6
897.7277982,10495
901.9888793,10769
906.2435521,10948
910.4918277,10579.6
914.7337174,10583
918.9692321,10589
923.1983831,10984.2
927.4211813,10775
931.6376378,11331.8
935.8477637,10957.8
940.0515701,11103.8
944.249068,11174.8
948.4402684,10647
952.6251825,11150.2
956.8038212,11037.2
960.9761955,11416.6
965.1423166,11069.2
969.3021953,11121.6
973.4558427,11183.8
977.6032699,11009.4
981.7444877,11126.8
985.8795072,11051.2
990.0083394,11172.2
994.1309953,10837
998.2474857,11233.2
1002.357822,10823.8
1006.462014,11295.8
1010.560075,10977
1014.652013,10984.4
1018.737841,11045
1022.81757,10546.8
1026.891209,10543.8
1030.958771,10444.2
1035.020266,10675.2
1039.075705,10550.8
1043.1251,10213
1047.16846,10543.4
1051.205797,10437.8
1055.237121,10281
1059.262444,10328.6
1063.281777,10300.6
1067.295131,10651.4
1071.302515,12107.4
1075.303942,13016.4
1079.299422,14654.2
1083.288966,14311.4
1087.272585,13074.4
1091.250289,11663.2
1095.222091,10989.8
1099.187999,10559
1103.148026,10502.2
1107.102183,10357
1111.050479,10464.8
1114.992927,10356.6
1118.929536,10312.8
1122.860318,10501.2
1126.785283,9972.8
1130.704443,10091.2
1134.617808,10633
1138.52539,10604.6
1142.427198,10658.4
1146.323244,10526.2
1150.213538,10299.6
1154.098093,10588
1157.976917,10161.6
1161.850023,10134.6
1165.717421,10495.6
1169.579121,10300.2
1173.435135,10655.6
1177.285474,10243.4
1181.130148,10540.4
1184.969169,10816.8
1188.802547,10581.6
1192.630292,10045
1196.452416,9836.2
1200.26893,9874.8
1204.079844,9766.6
1207.88517,9528.2
1211.684917,9962.6
1215.479098,9689.6
1219.267722,10707
1223.050801,9646.4
1226.828346,9735.2
1230.600366,9951.2
1234.366874,10085.6
1238.12788,9847.8
1241.883395,9937.4
1245.633429,10155.8
1249.377994,10051.6
1253.1171,9593.4
1256.850759,9779.6
1260.578981,9819.8
1264.301776,9815.8
1268.019157,9774.2
1271.731133,9555.2
1275.437715,9501.6
1279.138915,9838.2
1282.834743,9930.2
1286.52521,9707
1290.210328,9656.2
1293.890106,9683.2
1297.564555,10003.2
1301.233688,9548.2
1304.897514,9900.4
1308.556044,10061.8
1312.209289,9854.6
1315.857261,9479.4
1319.499969,9615.2
1323.137425,10167.6
1326.769641,9839
1330.396626,10113.4
1334.018391,9770
1337.634948,9799.8
1341.246307,9604.2
1344.85248,9531.8
1348.453477,9449.4
1352.049309,9472
1355.639987,9552.6
1359.225522,9901.8
1362.805925,9695.4
1366.381207,9744.4
1369.951379,9769.4
1373.516452,9785.4
1377.076436,9945.8
1380.631343,9716.8
1384.181184,9741.6
1387.725969,9732.4
1391.26571,9570
1394.800417,9497
1398.330102,9619.4
1401.854776,9788.6
1405.374448,9667.4
1408.889132,9266.8
1412.398837,9056
1415.903574,9343.8
1419.403355,9888.8
1422.89819,9552.4
1426.388091,9515
1429.873069,9898.6
1433.353134,9525.2
1436.828298,9540.6
1440.298571,9700.4
1443.763965,9496
1447.224491,9392.6
1450.68016,9338.2
1454.130983,9683.8
1457.576971,9541.6
1461.018135,9757.2
1464.454486,9857
1467.886036,9476.8
1471.312794,9612.8
1474.734774,9357.2
1478.151985,9776.6
1481.564439,9718.6
1484.972146,9687.8
1488.375119,9441.2
1491.773368,9724.8
1495.166904,10147
1498.555739,9584.4
1501.939883,9625.6
1505.319349,9284
1508.694146,9619
1512.064286,9587.2
1515.429781,9452.2
1518.790642,9389.8
1522.146879,9478.6
1525.498505,9213.2
1528.845529,9185.6
1532.187965,9851.4
1535.525822,9438.4
1538.859112,9553
1542.187846,9915.4
1545.512036,9325.4
1548.831693,10231.6
1552.146829,9850
1555.457453,9266.8
1558.763579,9145.4
1562.065216,9559.2
1565.362377,9827.8
1568.655073,9981
1571.943315,9994.4
1575.227114,9999.8
1578.506482,10100.4
1581.781431,10696.8
1585.051971,10705.4
1588.318114,11135.2
1591.579872,11234
1594.837255,11118.4
1598.090275,10679.2
1601.338945,10279.2
1604.583274,10173.2
1607.823275,9726.8
1611.058959,9397.4
1614.290338,10153.2
1617.517422,9264
1620.740224,9497.8
1623.958755,9201.2
1627.173027,9241
1630.38305,8952.4
1633.588838,9343
1636.7904,9186.8
1639.987749,9229.4
1643.180896,9372
1646.369853,8991.2
1649.554632,9545.4
1652.735244,9181.4
1655.9117,8881.2
1659.084013,9217.2
1662.252193,9545.4
1665.416254,8954.4
1668.576205,9113.2
1671.732059,9326.2
1674.883828,9320.6
1678.031523,9058.8
1681.175157,9112.2
1684.314739,9170.2
1687.450284,9175.6
1690.581801,9028.4
1693.709304,8984.8
1696.832803,8916.8
1699.952311,9099.2
1703.067839,9145.6
1706.179399,9080.4
1709.287003,9406
1712.390663,9145.8
1715.49039,9132
1718.586197,9370.2
1721.678095,9281
1724.766096,9306
1727.850213,8915.6
1730.930456,9156
1734.006838,8946.4
1737.079372,9318.2
1740.148067,8882.2
1743.212938,9673.8
1746.273996,9128
1749.331252,9124
1752.384718,9190.2
1755.434408,9215.4
1758.480332,9133.4
1761.522503,9226.2
1764.560933,9035
1767.595634,8814.4
1770.626618,9362.2
1773.653896,9352.4
1776.677482,9043.6
1779.697388,9012
1782.713625,9415.6
1785.726205,9340.4
1788.735141,9283
1791.740445,9024.6
1794.742129,8996.6
1797.740206,9386.4
1800.734687,9286.8
1803.725585,9221.2
1806.712912,9189.8
1809.69668,8987
1812.676902,9089.2
1815.65359,8906
1818.626756,8862.6
1821.596413,9033.8
1824.562573,8846.6
1827.525247,9086.2
1830.48445,8871
1833.440192,9037.2
1836.392487,8962
1839.341347,9137.4
1842.286784,9244.8
1845.22881,8710.4
1848.167439,9164.8
1851.102682,9016.2
1854.034553,8975.8
1856.963063,8870
1859.888226,9505
1862.810053,9155
1865.728557,9010.4
1868.643751,8825
1871.555648,8844.2
1874.46426,8688.8
1877.369599,9108.2
1880.271679,8960.2
1883.170512,8876.6
1886.06611,9133.4
1888.958487,8900.2
1891.847655,8923.4
1894.733626,9016.4
1897.616414,9093
1900.496032,8817.4
1903.372491,8970.6
1906.245805,9134.2
1909.115987,9212.4
1911.983049,9257.4
1914.847004,9168.6
1917.707866,9216.6
1920.565646,9190.2
1923.420359,8950.4
1926.272016,9124.2
1929.120631,8953.8
1931.966216,9022.8
1934.808786,8999.2
1937.648351,9170.6
1940.484927,9089.8
1943.318525,9139
1946.149158,9366.8
1948.97684,10039
1951.801584,9257.8
1954.623403,9177.2
1957.44231,9254.2
1960.258318,8909
1963.071439,8941.6
1965.881688,9088
1968.689078,9100.4
1971.493621,9001.2
