Ramanshift[cm-1],Intensity
-93.47115107,10439.6
-87.69374369,9526.4
-81.9253076,9429
-76.16582701,9510.2
-70.41528615,9616.4
-64.67366933,9358.6
-58.94096086,9394.8
-53.21714512,9609.8
-47.50220652,9618.6
-41.79612954,9634.8
-36.09889866,9912.8
-30.41049843,10107.4
-24.73091343,9807.6
-19.0601283,9796.4
-13.39812769,9655.6
-7.744896327,9497.8
-2.100418946,9368
3.535319659,9822.2
9.162334658,9336.8
14.78064118,9617.6
20.39025432,9359.2
25.99118913,9387.4
31.58346061,9838.2
37.16708375,9587.6
42.74207347,9429.4
48.30844468,9372.2
53.86621222,9290.6
59.41539093,9071.8
64.95599558,9109.6
70.48804091,9346
76.01154164,9344.8
81.52651243,9047.8
87.03296792,9390.2
92.5309227,9529
98.02039134,9081.8
103.5013884,9311
108.9739282,9212.6
114.4380255,9173.8
119.8936944,9286.6
125.3409495,9967
130.779805,9125.4
136.2102753,8936.8
141.6323747,9026
147.0461174,9445.8
152.4515176,9130.2
157.8485895,9118.6
163.2373472,9085.6
168.6178049,9345.8
173.9899766,9507.8
179.3538764,9148.8
184.7095182,9158.2
190.0569161,9355.4
195.396084,9435.8
200.7270358,9084.8
206.0497854,9109.6
211.3643466,8903.6
216.6707333,9246.2
221.9689593,8926.8
227.2590382,9106.4
232.5409839,9058.2
237.8148101,9041
243.0805303,9052.2
248.3381582,9061.6
253.5877075,8931.8
258.8291917,8965.2
264.0626244,9051
269.288019,9141.2
274.5053891,9245.6
279.7147481,9149.8
284.9161094,9088.4
290.1094865,9417.2
295.2948927,10464
300.4723414,12980
305.6418459,15820.4
310.8034194,18527.6
315.9570752,20287.2
321.1028267,20544.8
326.2406869,20886
331.370669,21123.4
336.4927863,21533.2
341.6070517,21770.2
346.7134786,22027.6
351.8120798,22379
356.9028684,22206.2
361.9858576,22161.6
367.0610602,22419.4
372.1284892,22117.6
377.1881577,22567.8
382.2400784,22999.8
387.2842644,23550.8
392.3207284,24072.2
397.3494833,23762
402.370542,23513.2
407.3839172,22884.6
412.3896217,22037.6
417.3876683,21440.2
422.3780697,21477.8
427.3608386,21138.6
432.3359876,21347.8
437.3035295,21351
442.2634769,21388.4
447.2158423,20708.4
452.1606383,20813.2
457.0978776,20928.2
462.0275727,20473.2
466.9497361,20800.8
471.8643802,20392.2
476.7715176,20874.2
481.6711608,20949.4
486.5633221,21244.4
491.448014,20968.2
496.3252488,20869.2
501.195039,21026.4
506.0573969,21185
510.9123349,20868.8
515.7598651,20418.2
520.6,20501.8
525.4327518,20318.6
530.2581327,20587.2
535.076155,20082.6
539.8868309,20610.8
544.6901726,20623.6
549.4861922,20372.8
554.2749019,20854.4
559.0563139,20343
563.8304402,20148.8
568.597293,20689.8
573.3568844,20304
578.1092263,19971.6
582.8543308,20425
587.5922101,20118.8
592.322876,19813.6
597.0463405,20028.6
601.7626157,20207.8
606.4717135,19716.2
611.1736458,19688.4
615.8684246,19651
620.5560617,20114.6
625.2365691,19732
629.9099585,20026.4
634.5762419,20019.6
639.2354312,19428.2
643.887538,19510
648.5325743,19265
653.1705518,19244.6
657.8014823,19475.2
662.4253775,18987.6
667.0422493,19353
671.6521092,19370.6
676.2549691,19504
680.8508407,19246.8
685.4397355,19107.6
690.0216654,19165
694.5966419,19132.2
699.1646767,19508.6
703.7257814,19337
708.2799676,19338.6
712.827247,19309.8
717.367631,19067.8
721.9011314,18859.8
726.4277595,18578.4
730.9475271,18889.8
735.4604456,18826.8
739.9665264,19114
744.4657813,18651.4
748.9582215,18489.2
753.4438587,18301.4
757.9227042,18127.6
762.3947696,18381.6
766.8600662,17978.6
771.3186056,19016
775.770399,18081
780.215458,18284.2
784.6537939,17718.8
789.0854181,17528.2
793.510342,17752.8
797.9285769,18132.2
802.3401342,17644.6
806.7450253,17734.6
811.1432614,17499.2
815.5348538,17226.8
819.9198139,16988.6
824.2981531,17120.2
828.6698824,17239.2
833.0350133,16887
837.393557,16707
841.7455248,16972.8
846.0909278,16755
850.4297774,16774.6
854.7620848,16726.6
859.0878611,16931.6
863.4071176,16584.6
867.7198655,16997.8
872.026116,17230.8
876.3258802,17392.6
880.6191693,16976.8
884.9059946,17066.4
889.186367,17392.2
893.4602979,16522.4
897.7277982,16393.8
901.9888793,16841.8
906.2435521,17031
910.4918277,16768.4
914.7337174,16757.6
918.9692321,16566.2
923.1983831,17009.2
927.4211813,16792
931.6376378,17278.2
935.8477637,16968
940.0515701,17027.2
944.249068,17215
948.4402684,16497.2
952.6251825,17160.6
956.8038212,16857.2
960.9761955,17133
965.1423166,16881.2
969.3021953,16922.4
973.4558427,16855.2
977.6032699,16771
981.7444877,16791.4
985.8795072,16681.6
990.0083394,16660
994.1309953,16462
998.2474857,16857.8
1002.357822,16297.2
1006.462014,16704.8
1010.560075,16515.8
1014.652013,16650.2
1018.737841,16803
1022.81757,16343.8
1026.891209,16213.8
1030.958771,16144.4
1035.020266,16399.6
1039.075705,16128
1043.1251,15955.8
1047.16846,16111.4
1051.205797,16119
1055.237121,15876.2
1059.262444,16234.8
1063.281777,16287.2
1067.295131,16891.4
1071.302515,18228.6
1075.303942,17897
1079.299422,18300
1083.288966,17388.2
1087.272585,16745.2
1091.250289,16359
1095.222091,16213.2
1099.187999,15776.8
1103.148026,15971.8
1107.102183,15887
1111.050479,15900
1114.992927,15927.2
1118.929536,15904.6
1122.860318,16183
1126.785283,15874
1130.704443,16035.2
1134.617808,16797
1138.52539,16964.4
1142.427198,16903
1146.323244,16761.8
1150.213538,16249
1154.098093,16288
1157.976917,15647
1161.850023,15606.6
1165.717421,16071
1169.579121,15808.6
1173.435135,16162.6
1177.285474,15541.8
1181.130148,15493.8
1184.969169,15939.4
1188.802547,15651
1192.630292,15272.2
1196.452416,15159.8
1200.26893,15096.8
1204.079844,14881.6
1207.88517,14627.2
1211.684917,14913
1215.479098,14717
1219.267722,15727.4
1223.050801,14753
1226.828346,14907
1230.600366,14855.2
1234.366874,14938.4
1238.12788,14754.2
1241.883395,14790
1245.633429,14943.4
1249.377994,14986.2
1253.1171,14326.2
1256.850759,14576.2
1260.578981,14690.8
1264.301776,14762
1268.019157,14740.8
1271.731133,14363
1275.437715,14318.8
1279.138915,14577.8
1282.834743,14888.4
1286.52521,14561.4
1290.210328,14402.2
1293.890106,14633.2
1297.564555,14887.2
1301.233688,14377
1304.897514,14637.2
1308.556044,14839.8
1312.209289,14769.2
1315.857261,14384.6
1319.499969,14429
1323.137425,14966.6
1326.769641,14571.2
1330.396626,14900.6
1334.018391,14586
1337.634948,14645
1341.246307,14476.2
1344.85248,14459.4
1348.453477,14266
1352.049309,14176.6
1355.639987,14092.6
1359.225522,14620
1362.805925,14261
1366.381207,14296.4
1369.951379,14400.8
1373.516452,14470.6
1377.076436,14530.6
1380.631343,14403.2
1384.181184,14533.6
1387.725969,14660
1391.26571,14424
1394.800417,14300.6
1398.330102,14133.4
1401.854776,14208.8
1405.374448,14000
1408.889132,13753.4
1412.398837,13518.6
1415.903574,13656.4
1419.403355,14244.6
1422.89819,14116.8
1426.388091,14225.6
1429.873069,14612
1433.353134,14132.6
1436.828298,14072.4
1440.298571,14043.2
1443.763965,13735
1447.224491,13606.8
1450.68016,13486.2
1454.130983,13748.8
1457.576971,13600.8
1461.018135,13683
1464.454486,13720.6
1467.886036,13409.8
1471.312794,13393
1474.734774,13156.8
1478.151985,13628.6
1481.564439,13300.4
1484.972146,13429.8
1488.375119,12836.8
1491.773368,13237
1495.166904,13710.8
1498.555739,13039.8
1501.939883,13177
1505.319349,12699.4
1508.694146,13117
1512.064286,13053.4
1515.429781,12972.2
1518.790642,12994.2
1522.146879,13057.8
1525.498505,12723.8
1528.845529,12648.2
1532.187965,13172
1535.525822,12911.8
1538.859112,12862.4
1542.187846,13259.4
1545.512036,12632.8
1548.831693,13576.4
1552.146829,13154
1555.457453,12716
1558.763579,12492
1562.065216,12968.8
1565.362377,13315
1568.655073,13757.2
1571.943315,13662.4
1575.227114,13670.4
1578.506482,13545
1581.781431,13885.4
1585.051971,13620
1588.318114,13607.2
1591.579872,13259.8
1594.837255,12933.4
1598.090275,12652
1601.338945,12452.6
1604.583274,12714.4
1607.823275,12249.8
1611.058959,12021.4
1614.290338,12721.8
1617.517422,11890
1620.740224,12057.2
1623.958755,11864.8
1627.173027,11892.6
1630.38305,11619.6
1633.588838,11726
1636.7904,11687.4
1639.987749,11799.2
1643.180896,11841
1646.369853,11492
1649.554632,11944.2
1652.735244,11507.2
1655.9117,11250
1659.084013,11466
1662.252193,11885
1665.416254,11257.6
1668.576205,11497.8
1671.732059,11673.6
1674.883828,11648.2
1678.031523,11280.4
1681.175157,11322.4
1684.314739,11351
1687.450284,11312
1690.581801,11180
1693.709304,11038.8
1696.832803,11045.2
1699.952311,11194.2
1703.067839,11227.6
1706.179399,11167
1709.287003,11406.6
1712.390663,11163.6
1715.49039,11171.4
1718.586197,11347.6
1721.678095,11182
1724.766096,11204.8
1727.850213,10823
1730.930456,11099
1734.006838,10813
1737.079372,11146.2
1740.148067,10755
1743.212938,11520.8
1746.273996,11020.8
1749.331252,10881.8
1752.384718,10986.4
1755.434408,10873.8
1758.480332,10851.8
1761.522503,10875
1764.560933,10755.4
1767.595634,10502.8
1770.626618,10894.6
1773.653896,10908.2
1776.677482,10689.2
1779.697388,10666.4
1782.713625,11070.6
1785.726205,11117.2
1788.735141,10943.6
1791.740445,10696.4
1794.742129,10623.2
1797.740206,10870
1800.734687,10970.6
1803.725585,10868.2
1806.712912,10866.2
1809.69668,10524.4
1812.676902,10587
1815.65359,10349
1818.626756,10534.6
1821.596413,10582.8
1824.562573,10361.8
1827.525247,10581.4
1830.48445,10455
1833.440192,10582.2
1836.392487,10451.6
1839.341347,10646.8
1842.286784,10718
1845.22881,10319
1848.167439,10704.6
1851.102682,10527.8
1854.034553,10523
1856.963063,10352.6
1859.888226,10983
1862.810053,10601.4
1865.728557,10446.4
1868.643751,10253.2
1871.555648,10214.2
1874.46426,10148
1877.369599,10464
1880.271679,10256.4
1883.170512,10263.8
1886.06611,10478
1888.958487,10352.2
1891.847655,10299.6
1894.733626,10449.6
1897.616414,10522.2
1900.496032,10091.2
1903.372491,10303
1906.245805,10409.6
1909.115987,10626.2
1911.983049,10581.4
1914.847004,10389.2
1917.707866,10605
1920.565646,10404.8
1923.420359,10193.4
1926.272016,10406.8
1929.120631,10227.4
1931.966216,10195.8
1934.808786,10274
1937.648351,10434.6
1940.484927,10417
1943.318525,10403.6
1946.149158,10558.6
1948.97684,11216.6
1951.801584,10461.4
1954.623403,10267.8
1957.44231,10428
1960.258318,10097.2
1963.071439,10129.4
1965.881688,10190.4
1968.689078,10400.4
1971.493621,10236
