Ramanshift[cm-1],Intensity
-93.47115107,10683
-87.69374369,9770.6
-81.9253076,9633.4
-76.16582701,9738
-70.41528615,9793.2
-64.67366933,9654.6
-58.94096086,9565.2
-53.21714512,9722.2
-47.50220652,9777.2
-41.79612954,9784.2
-36.09889866,10067.8
-30.41049843,10259.4
-24.73091343,9976.6
-19.0601283,9886.4
-13.39812769,9742.2
-7.744896327,9688
-2.100418946,9519.4
3.535319659,9981.4
9.162334658,9506.4
14.78064118,9781
20.39025432,9578.8
25.99118913,9597.8
31.58346061,9973
37.16708375,9676.4
42.74207347,9508.2
48.30844468,9451.6
53.86621222,9468.4
59.41539093,9219.2
64.95599558,9149.6
70.48804091,9441
76.01154164,9622.4
81.52651243,9116.4
87.03296792,9558.8
92.5309227,9702.4
98.02039134,9225.2
103.5013884,9487.6
108.9739282,9373.8
114.4380255,9349.2
119.8936944,9477
125.3409495,10060.4
130.779805,9210.4
136.2102753,9082.2
141.6323747,9141.2
147.0461174,9593.4
152.4515176,9308.6
157.8485895,9196.4
163.2373472,9153.8
168.6178049,9459
173.9899766,9599
179.3538764,9244.6
184.7095182,9395.2
190.0569161,9539.8
195.396084,9629.6
200.7270358,9207.2
206.0497854,9221.4
211.3643466,9004
216.6707333,9277
221.9689593,9079.2
227.2590382,9237.8
232.5409839,9193.4
237.8148101,9121.8
243.0805303,9184.2
248.3381582,9171
253.5877075,9112
258.8291917,9084.2
264.0626244,9197.6
269.288019,9303.4
274.5053891,9424.6
279.7147481,9281.2
284.9161094,9016.6
290.1094865,9190.4
295.2948927,9519.8
300.4723414,10475.4
305.6418459,10923.6
310.8034194,11515
315.9570752,12322.4
321.1028267,12396
326.2406869,12500.8
331.370669,12579.8
336.4927863,12688.4
341.6070517,12704.6
346.7134786,12543.8
351.8120798,12877
356.9028684,12666
361.9858576,12778.8
367.0610602,12933.2
372.1284892,12724.8
377.1881577,13250
382.2400784,13750.4
387.2842644,14631
392.3207284,15343.4
397.3494833,15016
402.370542,14588
407.3839172,13646.2
412.3896217,12863.6
417.3876683,12305.8
422.3780697,12161.2
427.3608386,12181
432.3359876,12420.2
437.3035295,12448.8
442.2634769,12476.2
447.2158423,11915.6
452.1606383,12039.2
457.0978776,12295.2
462.0275727,11726.8
466.9497361,11977.4
471.8643802,11623
476.7715176,12027
481.6711608,12007
486.5633221,12244
491.448014,12084.4
496.3252488,12067.8
501.195039,11950.8
506.0573969,12174.2
510.9123349,12073.2
515.7598651,11617.4
520.6,11914.2
525.4327518,11838.8
530.2581327,11992.8
535.076155,11598.8
539.8868309,11851
544.6901726,11945.8
549.4861922,11683.8
554.2749019,12271.6
559.0563139,11819.2
563.8304402,11509.2
568.597293,12259.2
573.3568844,11995.6
578.1092263,11617
582.8543308,11931.6
587.5922101,11834.4
592.322876,11594.4
597.0463405,11803.4
601.7626157,11913
606.4717135,11602.2
611.1736458,11685
615.8684246,11673.8
620.5560617,11922.8
625.2365691,11702.2
629.9099585,11985.4
634.5762419,12146
639.2354312,11633.2
643.887538,11848.6
648.5325743,11506.8
653.1705518,11565.2
657.8014823,11749
662.4253775,11282.6
667.0422493,11543.4
671.6521092,11521.6
676.2549691,11740.2
680.8508407,11661.6
685.4397355,11543.4
690.0216654,11620.8
694.5966419,11496.2
699.1646767,11810.4
703.7257814,11691
708.2799676,11753.8
712.827247,11752.6
717.367631,11617.4
721.9011314,11518.8
726.4277595,11171.4
730.9475271,11560.4
735.4604456,11490.6
739.9665264,11808.6
744.4657813,11383.6
748.9582215,11409.8
753.4438587,11144.8
757.9227042,11073.6
762.3947696,11459.4
766.8600662,11138.4
771.3186056,12081.6
775.770399,11412.8
780.215458,11656.2
784.6537939,11205.2
789.0854181,11219.6
793.510342,11270.2
797.9285769,11769.6
802.3401342,11272.6
806.7450253,11460.4
811.1432614,11247.6
815.5348538,11165.2
819.9198139,10992.6
824.2981531,11150.8
828.6698824,11328.4
833.0350133,11129.8
837.393557,10905.2
841.7455248,11238
846.0909278,11025
850.4297774,10938.2
854.7620848,11003.6
859.0878611,11278
863.4071176,10699.8
867.7198655,11236.2
872.026116,11335.2
876.3258802,11702.8
880.6191693,11406
884.9059946,11269
889.186367,11702.2
893.4602979,11026.8
897.7277982,10888
901.9888793,11183.2
906.2435521,11404
910.4918277,11015.2
914.7337174,11006.2
918.9692321,11045.8
923.1983831,11545.6
927.4211813,11163.6
931.6376378,11801.4
935.8477637,11397
940.0515701,11498.6
944.249068,11549.2
948.4402684,10953.8
952.6251825,11568
956.8038212,11295.6
960.9761955,11808.6
965.1423166,11409.6
969.3021953,11352.8
973.4558427,11380.2
977.6032699,11326
981.7444877,11343.8
985.8795072,11285.4
990.0083394,11444.2
994.1309953,11163.8
998.2474857,11373.4
1002.357822,10846.2
1006.462014,11255.8
1010.560075,11005
1014.652013,11307.8
1018.737841,11447
1022.81757,10965.2
1026.891209,11043.6
1030.958771,10900.2
1035.020266,11164.6
1039.075705,10878.2
1043.1251,10723.6
1047.16846,11023
1051.205797,10860.4
1055.237121,10685
1059.262444,10852.6
1063.281777,10772
1067.295131,11116.2
1071.302515,12188
1075.303942,12346.8
1079.299422,13101.8
1083.288966,12505.4
1087.272585,11723.4
1091.250289,11428.4
1095.222091,11165.8
1099.187999,10880.8
1103.148026,11006.8
1107.102183,10904.4
1111.050479,10891.8
1114.992927,10865
1118.929536,10847.4
1122.860318,11025.6
1126.785283,10656.2
1130.704443,10739.4
1134.617808,11444.8
1138.52539,11458.2
1142.427198,11439.8
1146.323244,11347.8
1150.213538,10950.6
1154.098093,11143.8
1157.976917,10625.2
1161.850023,10652.8
1165.717421,11020.4
1169.579121,10838.8
1173.435135,11080.4
1177.285474,10558.4
1181.130148,10791.8
1184.969169,11083.8
1188.802547,10947.4
1192.630292,10610.2
1196.452416,10378.6
1200.26893,10457.2
1204.079844,10269.6
1207.88517,9980.4
1211.684917,10456.2
1215.479098,10138.2
1219.267722,11204.6
1223.050801,10224.4
1226.828346,10256.6
1230.600366,10437.8
1234.366874,10546.4
1238.12788,10377
1241.883395,10410.2
1245.633429,10578.8
1249.377994,10598.8
1253.1171,10074
1256.850759,10365.4
1260.578981,10343.8
1264.301776,10295
1268.019157,10356
1271.731133,10049.8
1275.437715,9972
1279.138915,10324
1282.834743,10513.6
1286.52521,10311.4
1290.210328,10150.2
1293.890106,10242.6
1297.564555,10511.2
1301.233688,10134.2
1304.897514,10416.8
1308.556044,10543.4
1312.209289,10502.6
1315.857261,10078.4
1319.499969,10174.4
1323.137425,10691.6
1326.769641,10417.4
1330.396626,10692.6
1334.018391,10264
1337.634948,10424.2
1341.246307,10281.8
1344.85248,10195.4
1348.453477,10027
1352.049309,10113
1355.639987,10088.4
1359.225522,10448.2
1362.805925,10218.6
1366.381207,10324.6
1369.951379,10350.8
1373.516452,10384
1377.076436,10467
1380.631343,10397.4
1384.181184,10251.4
1387.725969,10469.2
1391.26571,10229.2
1394.800417,10127.2
1398.330102,10158.6
1401.854776,10262.8
1405.374448,10162.6
1408.889132,9830.2
1412.398837,9688
1415.903574,9930.2
1419.403355,10415
1422.89819,10253
1426.388091,10198
1429.873069,10541.4
1433.353134,10154.8
1436.828298,10218.8
1440.298571,10203
1443.763965,10013.4
1447.224491,9925.6
1450.68016,9889.4
1454.130983,10083.4
1457.576971,10092.2
1461.018135,10093
1464.454486,10182.4
1467.886036,9922
1471.312794,9966
1474.734774,9701.4
1478.151985,10185.6
1481.564439,10034
1484.972146,10053.8
1488.375119,9738.8
1491.773368,10052
1495.166904,10416.6
1498.555739,9888.6
1501.939883,9950.6
1505.319349,9654
1508.694146,9962
1512.064286,9943
1515.429781,9861
1518.790642,9758.6
1522.146879,9944.6
1525.498505,9609.8
1528.845529,9585.2
1532.187965,10211.6
1535.525822,9834.8
1538.859112,9895.6
1542.187846,10217.2
1545.512036,9663
1548.831693,10581.8
1552.146829,10130.8
1555.457453,9643.8
1558.763579,9407.4
1562.065216,9855.6
1565.362377,9994
1568.655073,10270.2
1571.943315,10267.8
1575.227114,10413.6
1578.506482,10351.2
1581.781431,10687.8
1585.051971,10542.4
1588.318114,10661.2
1591.579872,10548.4
1594.837255,10209.2
1598.090275,10055.8
1601.338945,9984.2
1604.583274,10143.4
1607.823275,9851.6
1611.058959,9561.6
1614.290338,10378.6
1617.517422,9448.2
1620.740224,9768.8
1623.958755,9497.2
1627.173027,9554.6
1630.38305,9281.4
1633.588838,9617.2
1636.7904,9541.8
1639.987749,9590.2
1643.180896,9743.2
1646.369853,9286
1649.554632,9852.4
1652.735244,9357.6
1655.9117,9150.4
1659.084013,9476.2
1662.252193,9779.2
1665.416254,9252.8
1668.576205,9446.2
1671.732059,9577.2
1674.883828,9614.2
1678.031523,9272.8
1681.175157,9392.6
1684.314739,9362.4
1687.450284,9277
1690.581801,9289.2
1693.709304,9083.2
1696.832803,9186
1699.952311,9397.2
1703.067839,9374.2
1706.179399,9252.6
1709.287003,9688.6
1712.390663,9232.6
1715.49039,9326.6
1718.586197,9624
1721.678095,9476.6
1724.766096,9437.8
1727.850213,9100.8
1730.930456,9240.4
1734.006838,9197.6
1737.079372,9433.8
1740.148067,9113.8
1743.212938,9840.2
1746.273996,9368.8
1749.331252,9226.2
1752.384718,9368
1755.434408,9300.2
1758.480332,9322
1761.522503,9489.2
1764.560933,9199.4
1767.595634,9010.6
1770.626618,9497.4
1773.653896,9484.6
1776.677482,9231.2
1779.697388,9214
1782.713625,9524.4
1785.726205,9522.4
1788.735141,9521.8
1791.740445,9162.8
1794.742129,9175.2
1797.740206,9435
1800.734687,9550.2
1803.725585,9429.4
1806.712912,9453.2
1809.69668,9142.6
1812.676902,9253.4
1815.65359,9015.2
1818.626756,9070.2
1821.596413,9254.6
1824.562573,8975.8
1827.525247,9189.4
1830.48445,9115.2
1833.440192,9194
1836.392487,9156.8
1839.341347,9244.2
1842.286784,9300.4
1845.22881,8942.6
1848.167439,9333.6
1851.102682,9097.8
1854.034553,9133.4
1856.963063,9013.2
1859.888226,9676.4
1862.810053,9269.2
1865.728557,9194.8
1868.643751,8984.8
1871.555648,8961.6
1874.46426,8848.8
1877.369599,9250.4
1880.271679,9084.4
1883.170512,9056.6
1886.06611,9315
1888.958487,9048.6
1891.847655,9079.2
1894.733626,9242.2
1897.616414,9240
1900.496032,8948.4
1903.372491,9176.4
1906.245805,9411.6
1909.115987,9442.2
1911.983049,9346.6
1914.847004,9244.6
1917.707866,9446.6
1920.565646,9397
1923.420359,9028.2
1926.272016,9277.8
1929.120631,8973
1931.966216,9070.4
1934.808786,9139.6
1937.648351,9345.8
1940.484927,9281.8
1943.318525,9361.6
1946.149158,9470
1948.97684,10175.4
1951.801584,9443
1954.623403,9373.4
1957.44231,9398.2
1960.258318,8990.8
1963.071439,9035.8
1965.881688,9230.2
1968.689078,9315.8
1971.493621,9170.2
