Ramanshift[cm-1],Intensity
-93.47115107,10592.6
-87.69374369,9832.2
-81.9253076,9653.4
-76.16582701,9750.6
-70.41528615,9691.8
-64.67366933,9485.2
-58.94096086,9578.6
-53.21714512,9673.8
-47.50220652,9760.6
-41.79612954,9758.8
-36.09889866,9975.4
-30.41049843,10243.4
-24.73091343,9906.4
-19.0601283,9892
-13.39812769,9854.4
-7.744896327,9555.8
-2.100418946,9470.8
3.535319659,9981
9.162334658,9527.2
14.78064118,9750.2
20.39025432,9521.8
25.99118913,9412.2
31.58346061,9865.2
37.16708375,9762
42.74207347,9563.6
48.30844468,9553.8
53.86621222,9445.4
59.41539093,9172.4
64.95599558,9132.6
70.48804091,9428
76.01154164,9550.6
81.52651243,9117.6
87.03296792,9504.4
92.5309227,9694
98.02039134,9204.6
103.5013884,9378.4
108.9739282,9279
114.4380255,9299.4
119.8936944,9488.6
125.3409495,9999.2
130.779805,9223.4
136.2102753,9080.4
141.6323747,9145.6
147.0461174,9595.6
152.4515176,9308.2
157.8485895,9331.8
163.2373472,9205.6
168.6178049,9443.6
173.9899766,9587
179.3538764,9296
184.7095182,9396.8
190.0569161,9418.6
195.396084,9641
200.7270358,9195
206.0497854,9265.4
211.3643466,9040.2
216.6707333,9267
221.9689593,9012.2
227.2590382,9218.8
232.5409839,9136
237.8148101,9164
243.0805303,9222.2
248.3381582,9176.6
253.5877075,9078.8
258.8291917,9216
264.0626244,9226.4
269.288019,9438.8
274.5053891,9506.6
279.7147481,9343.6
284.9161094,9477.8
290.1094865,10535
295.2948927,13899.8
300.4723414,21854.6
305.6418459,32351
310.8034194,41348.6
315.9570752,46293.8
321.1028267,47316.2
326.2406869,47949
331.370669,49062.6
336.4927863,50259
341.6070517,51277.8
346.7134786,52112.2
351.8120798,52984.2
356.9028684,53100.2
361.9858576,52739.2
367.0610602,52878
372.1284892,52850.2
377.1881577,54264.4
382.2400784,56843
387.2842644,60576.8
392.3207284,62046.6
397.3494833,60810.8
402.370542,58358
407.3839172,56037.4
412.3896217,53506.4
417.3876683,51748.2
422.3780697,50519
427.3608386,49156.6
432.3359876,48850.2
437.3035295,47978
442.2634769,47558.8
447.2158423,46504
452.1606383,46558.4
457.0978776,46435.6
462.0275727,46125
466.9497361,46835.2
471.8643802,46915.8
476.7715176,48780.8
481.6711608,50796
486.5633221,51840.4
491.448014,50917.4
496.3252488,49023.2
501.195039,47472.2
506.0573969,46496.6
510.9123349,45905
515.7598651,45143.2
520.6,45189
525.4327518,44808.8
530.2581327,44655.8
535.076155,44516.8
539.8868309,45464.8
544.6901726,44845.8
549.4861922,43348.6
554.2749019,43262.8
559.0563139,42752.4
563.8304402,42335.2
568.597293,42872.8
573.3568844,42627.4
578.1092263,42141.6
582.8543308,42443
587.5922101,42549
592.322876,41932.8
597.0463405,42451.8
601.7626157,42682.2
606.4717135,42007.6
611.1736458,42012.6
615.8684246,41652.6
620.5560617,42080.4
625.2365691,42010.2
629.9099585,41953
634.5762419,41595.8
639.2354312,41248.4
643.887538,41014
648.5325743,40831.8
653.1705518,40715
657.8014823,40528.6
662.4253775,39958.2
667.0422493,40102.8
671.6521092,39839.2
676.2549691,39972.4
680.8508407,39653.2
685.4397355,39786.8
690.0216654,39936.4
694.5966419,39938.8
699.1646767,40651.4
703.7257814,41072.6
708.2799676,41755.8
712.827247,42822
717.367631,42492.6
721.9011314,41190.2
726.4277595,39799.8
730.9475271,39344.8
735.4604456,38931.8
739.9665264,38941.4
744.4657813,38471.2
748.9582215,37895.8
753.4438587,37283.2
757.9227042,36983
762.3947696,37411.2
766.8600662,36427
771.3186056,37489
775.770399,36598.2
780.215458,36430.2
784.6537939,35894
789.0854181,36020.8
793.510342,36001.8
797.9285769,36210.2
802.3401342,35654.2
806.7450253,35637.4
811.1432614,35459.4
815.5348538,35040
819.9198139,34651.6
824.2981531,34318.2
828.6698824,34069.2
833.0350133,33631.8
837.393557,33149.6
841.7455248,33492.8
846.0909278,32722.8
850.4297774,33103.6
854.7620848,33135.6
859.0878611,33246.6
863.4071176,32977.4
867.7198655,33531.2
872.026116,33584.6
876.3258802,33719
880.6191693,33426.2
884.9059946,33276.8
889.186367,33538.8
893.4602979,32652.2
897.7277982,32450.4
901.9888793,33167.6
906.2435521,33754.8
910.4918277,33534.8
914.7337174,34125.6
918.9692321,34115.6
923.1983831,34483.2
927.4211813,34019.8
931.6376378,34473.2
935.8477637,34023.4
940.0515701,34291.8
944.249068,34329.6
948.4402684,33471.4
952.6251825,34252.2
956.8038212,33985.8
960.9761955,34454.4
965.1423166,34172.6
969.3021953,34164
973.4558427,34103.2
977.6032699,34077
981.7444877,33789.2
985.8795072,33882.6
990.0083394,33884
994.1309953,33495.4
998.2474857,34520.8
1002.357822,34565.4
1006.462014,35777
1010.560075,34654.2
1014.652013,33461.8
1018.737841,33132.2
1022.81757,32657.6
1026.891209,32729.6
1030.958771,32603.6
1035.020266,32860.6
1039.075705,32815.6
1043.1251,32944
1047.16846,33633.6
1051.205797,34566.8
1055.237121,36662.8
1059.262444,41021.4
1063.281777,48010.4
1067.295131,55736.2
1071.302515,60781.2
1075.303942,57867.6
1079.299422,52470
1083.288966,45190.2
1087.272585,39099.2
1091.250289,35752.6
1095.222091,34606.6
1099.187999,33424.2
1103.148026,33689.2
1107.102183,33769.4
1111.050479,34256.2
1114.992927,35366.2
1118.929536,37253.6
1122.860318,40742
1126.785283,45817.8
1130.704443,54119.2
1134.617808,63376.8
1138.52539,64365.2
1142.427198,63396.2
1146.323244,54083.4
1150.213538,45412.8
1154.098093,40429.2
1157.976917,37116.8
1161.850023,35722.8
1165.717421,35257.2
1169.579121,34422.4
1173.435135,34586.4
1177.285474,33982.4
1181.130148,34878
1184.969169,35965.8
1188.802547,36347.4
1192.630292,36027
1196.452416,34312.8
1200.26893,32912.8
1204.079844,31597.8
1207.88517,30599.8
1211.684917,30766.2
1215.479098,30238
1219.267722,31472.8
1223.050801,30105.6
1226.828346,30307.4
1230.600366,30445.6
1234.366874,30508.6
1238.12788,30374
1241.883395,30399
1245.633429,30377.6
1249.377994,30577
1253.1171,29988
1256.850759,30061.6
1260.578981,29852.8
1264.301776,30081.4
1268.019157,29700.6
1271.731133,29522
1275.437715,29404
1279.138915,29681.8
1282.834743,30109
1286.52521,29682.8
1290.210328,29768.2
1293.890106,30210
1297.564555,31201.8
1301.233688,31480.6
1304.897514,32065
1308.556044,32000.6
1312.209289,31089.4
1315.857261,30053.2
1319.499969,29427.8
1323.137425,30079.6
1326.769641,29339
1330.396626,30142
1334.018391,29571.4
1337.634948,29928
1341.246307,29978.6
1344.85248,30033
1348.453477,30429.6
1352.049309,30473.8
1355.639987,31130.6
1359.225522,31669.4
1362.805925,31585.4
1366.381207,32130
1369.951379,32650
1373.516452,34160
1377.076436,35760.8
1380.631343,38847.4
1384.181184,42292.4
1387.725969,45045.8
1391.26571,43645
1394.800417,39309.4
1398.330102,34469.6
1401.854776,32225.8
1405.374448,30510.8
1408.889132,30109.8
1412.398837,30787.8
1415.903574,33602.8
1419.403355,38519
1422.89819,43280.8
1426.388091,47293.2
1429.873069,48666
1433.353134,46714
1436.828298,42537.4
1440.298571,38581.6
1443.763965,34630.6
1447.224491,32058.6
1450.68016,30125.6
1454.130983,29030.4
1457.576971,28198.8
1461.018135,27826.8
1464.454486,27874.2
1467.886036,27760.8
1471.312794,27809.4
1474.734774,26877.8
1478.151985,26786
1481.564439,25857.2
1484.972146,25328.2
1488.375119,24763.4
1491.773368,24978.4
1495.166904,25001.6
1498.555739,24467.8
1501.939883,24428.2
1505.319349,24043.6
1508.694146,24177.2
1512.064286,24298
1515.429781,24159.8
1518.790642,24168.8
1522.146879,24231
1525.498505,23972
1528.845529,23774.6
1532.187965,24463.4
1535.525822,24343.2
1538.859112,24397.6
1542.187846,25043.2
1545.512036,24578.2
1548.831693,25852.2
1552.146829,25747.4
1555.457453,25924.8
1558.763579,26360.6
1562.065216,27828
1565.362377,28935.4
1568.655073,30249.8
1571.943315,30578.4
1575.227114,30469.4
1578.506482,29565.2
1581.781431,28925.4
1585.051971,27654.8
1588.318114,26723.4
1591.579872,25395
1594.837255,23947.4
1598.090275,22704.2
1601.338945,22164.4
1604.583274,21728.6
1607.823275,21309
1611.058959,20537
1614.290338,21292.6
1617.517422,20185.8
1620.740224,20176.2
1623.958755,19758.6
1627.173027,19428
1630.38305,18949.8
1633.588838,19141.8
1636.7904,18889.4
1639.987749,18803.2
1643.180896,18856.4
1646.369853,18124.6
1649.554632,18712.6
1652.735244,17885.4
1655.9117,17446.2
1659.084013,17589.8
1662.252193,17960.2
1665.416254,17333.4
1668.576205,17443
1671.732059,17354
1674.883828,17430.8
1678.031523,16932.6
1681.175157,16869.4
1684.314739,16915.8
1687.450284,16795.6
1690.581801,16523.8
1693.709304,16404
1696.832803,16272.2
1699.952311,16493.8
1703.067839,16458.4
1706.179399,16362.4
1709.287003,16519.4
1712.390663,16175
1715.49039,16142.6
1718.586197,16288.6
1721.678095,16139.6
1724.766096,16073.2
1727.850213,15665.2
1730.930456,15835.2
1734.006838,15668.6
1737.079372,15698.4
1740.148067,15410.6
1743.212938,16128
1746.273996,15571
1749.331252,15215.8
1752.384718,15429.2
1755.434408,15332
1758.480332,15281.2
1761.522503,15228.6
1764.560933,15015
1767.595634,14671.6
1770.626618,15168.6
1773.653896,15172.6
1776.677482,14810.2
1779.697388,14748.8
1782.713625,15188.2
1785.726205,15182
1788.735141,14975.6
1791.740445,14834.2
1794.742129,14582.4
1797.740206,15004
1800.734687,14918.8
1803.725585,14886.4
1806.712912,14778.6
1809.69668,14547
1812.676902,14606.8
1815.65359,14308.8
1818.626756,14429.6
1821.596413,14453.2
1824.562573,14225.2
1827.525247,14529.8
1830.48445,14286.4
1833.440192,14257.8
1836.392487,14199.8
1839.341347,14394.8
1842.286784,14417.4
1845.22881,13993.6
1848.167439,14381.8
1851.102682,14226
1854.034553,14098.8
1856.963063,14030.8
1859.888226,14566
1862.810053,14240
1865.728557,13957.2
1868.643751,13755.2
1871.555648,13931.8
1874.46426,13581.4
1877.369599,14015
1880.271679,13798.2
1883.170512,13855
1886.06611,13873.2
1888.958487,13782.8
1891.847655,13689
1894.733626,13812.2
1897.616414,13754.8
1900.496032,13452.6
1903.372491,13624.4
1906.245805,13842
1909.115987,13958.8
1911.983049,13620.4
1914.847004,13750.2
1917.707866,13746.6
1920.565646,13688.2
1923.420359,13369.8
1926.272016,13530
1929.120631,13348.8
1931.966216,13379.4
1934.808786,13346.8
1937.648351,13436.6
1940.484927,13444.6
1943.318525,13457.6
1946.149158,13674.4
1948.97684,14200.2
1951.801584,13505
1954.623403,13444.8
1957.44231,13327
1960.258318,13152
1963.071439,13052.4
1965.881688,13226.8
1968.689078,13252.2
1971.493621,12991.4
