Ramanshift[cm-1],Intensity
-93.47115107,10732.2
-87.69374369,9747
-81.9253076,9763
-76.16582701,9765.8
-70.41528615,9841
-64.67366933,9687.8
-58.94096086,9629.4
-53.21714512,9810.4
-47.50220652,9875.8
-41.79612954,9805.4
-36.09889866,10205.2
-30.41049843,10272.2
-24.73091343,9957.4
-19.0601283,10029.4
-13.39812769,9916.8
-7.744896327,9687.4
-2.100418946,9584.6
3.535319659,10024.2
9.162334658,9546.8
14.78064118,9883.4
20.39025432,9649.6
25.99118913,9588.6
31.58346061,9945.6
37.16708375,9843.4
42.74207347,9574.8
48.30844468,9629
53.86621222,9476.6
59.41539093,9193.4
64.95599558,9248
70.48804091,9538.2
76.01154164,9561
81.52651243,9159
87.03296792,9573.6
92.5309227,9758.4
98.02039134,9296.6
103.5013884,9517.8
108.9739282,9482.2
114.4380255,9392.6
119.8936944,9465
125.3409495,10119.8
130.779805,9302.6
136.2102753,9196.4
141.6323747,9232.4
147.0461174,9691.6
152.4515176,9324.6
157.8485895,9372.8
163.2373472,9317
168.6178049,9544
173.9899766,9727
179.3538764,9362.4
184.7095182,9445.2
190.0569161,9616.2
195.396084,9688
200.7270358,9264.4
206.0497854,9240.6
211.3643466,9003.8
216.6707333,9354.4
221.9689593,9134
227.2590382,9223.2
232.5409839,9227.6
237.8148101,9238.6
243.0805303,9279.4
248.3381582,9191.2
253.5877075,9115.4
258.8291917,9201.4
264.0626244,9318
269.288019,9385.8
274.5053891,9489.6
279.7147481,9250.4
284.9161094,9060.8
290.1094865,9151.8
295.2948927,9416
300.4723414,10078.4
305.6418459,10310.8
310.8034194,10553.4
315.9570752,11210.2
321.1028267,11340.6
326.2406869,11376.2
331.370669,11455.8
336.4927863,11471.4
341.6070517,11472.4
346.7134786,11409
351.8120798,11625.8
356.9028684,11267.4
361.9858576,11495.4
367.0610602,11655.8
372.1284892,11500.4
377.1881577,11765.2
382.2400784,11857.8
387.2842644,12097.4
392.3207284,12473
397.3494833,12166.2
402.370542,12167
407.3839172,11589.4
412.3896217,11356.2
417.3876683,11022
422.3780697,11136.8
427.3608386,11161.6
432.3359876,11424.2
437.3035295,11494.8
442.2634769,11581.6
447.2158423,11016.4
452.1606383,11047.4
457.0978776,11234.2
462.0275727,10907.6
466.9497361,11244.8
471.8643802,10741.8
476.7715176,11179.4
481.6711608,11113.4
486.5633221,11367.4
491.448014,11075.8
496.3252488,10998.2
501.195039,11142.2
506.0573969,11286.8
510.9123349,11159.2
515.7598651,10822.2
520.6,11130.6
525.4327518,11009
530.2581327,11132.2
535.076155,10747.2
539.8868309,11050.6
544.6901726,11137.4
549.4861922,10891.8
554.2749019,11618.4
559.0563139,10976.2
563.8304402,10714.2
568.597293,11409
573.3568844,11162.8
578.1092263,10992
582.8543308,11284
587.5922101,11218
592.322876,10960.8
597.0463405,11001.2
601.7626157,11256.8
606.4717135,11010.4
611.1736458,10953.6
615.8684246,10959
620.5560617,11183.8
625.2365691,10963.4
629.9099585,11231.4
634.5762419,11396.4
639.2354312,10973.8
643.887538,11133.8
648.5325743,10867
653.1705518,10874.4
657.8014823,10994
662.4253775,10478
667.0422493,10780.8
671.6521092,10819.6
676.2549691,10934.4
680.8508407,10969
685.4397355,10893.2
690.0216654,10927.4
694.5966419,10819.4
699.1646767,11122.8
703.7257814,10986.4
708.2799676,11007
712.827247,11075
717.367631,10932.4
721.9011314,10875.6
726.4277595,10404.6
730.9475271,10908.8
735.4604456,10814.6
739.9665264,11110.8
744.4657813,10891.2
748.9582215,10814.6
753.4438587,10547
757.9227042,10459.2
762.3947696,10932
766.8600662,10542
771.3186056,11666.6
775.770399,10717.8
780.215458,11131.2
784.6537939,10585
789.0854181,10586.4
793.510342,10599.4
797.9285769,11096.2
802.3401342,10649.8
806.7450253,10707
811.1432614,10762.6
815.5348538,10667.6
819.9198139,10489.4
824.2981531,10608.8
828.6698824,10737
833.0350133,10557.2
837.393557,10364.6
841.7455248,10668.4
846.0909278,10489.6
850.4297774,10486.4
854.7620848,10541.8
859.0878611,10727.8
863.4071176,10258.8
867.7198655,10627.4
872.026116,10856
876.3258802,11159
880.6191693,10851.6
884.9059946,10766.8
889.186367,11154
893.4602979,10402.6
897.7277982,10343
901.9888793,10646.2
906.2435521,10879.6
910.4918277,10464.4
914.7337174,10447.6
918.9692321,10423
923.1983831,10870.4
927.4211813,10497.6
931.6376378,11054.4
935.8477637,10708.6
940.0515701,10832.8
944.249068,10751.6
948.4402684,10211.8
952.6251825,10853
956.8038212,10516.2
960.9761955,11059.6
965.1423166,10714
969.3021953,10753.2
973.4558427,10702.2
977.6032699,10620.6
981.7444877,10690.6
985.8795072,10644.2
990.0083394,10707.2
994.1309953,10434.2
998.2474857,10803.4
1002.357822,10199.4
1006.462014,10522.8
1010.560075,10375.6
1014.652013,10675
1018.737841,10854.6
1022.81757,10488
1026.891209,10391.2
1030.958771,10358.8
1035.020266,10655.2
1039.075705,10459.6
1043.1251,10218.8
1047.16846,10476.2
1051.205797,10446.6
1055.237121,10209.4
1059.262444,10200.6
1063.281777,10049.2
1067.295131,10086.2
1071.302515,10923.8
1075.303942,10680.8
1079.299422,11255.6
1083.288966,10882.8
1087.272585,10773.6
1091.250289,10596.2
1095.222091,10641.6
1099.187999,10284
1103.148026,10468
1107.102183,10329.4
1111.050479,10480.8
1114.992927,10384.2
1118.929536,10323.2
1122.860318,10551
1126.785283,10111.2
1130.704443,10089
1134.617808,10587.6
1138.52539,10532.8
1142.427198,10418
1146.323244,10530
1150.213538,10280.4
1154.098093,10537.8
1157.976917,10191
1161.850023,10213.2
1165.717421,10513.4
1169.579121,10246.8
1173.435135,10589.8
1177.285474,9956.6
1181.130148,10073.8
1184.969169,10310.2
1188.802547,10316.6
1192.630292,10032.6
1196.452416,9872.4
1200.26893,9966.4
1204.079844,9853.6
1207.88517,9575.8
1211.684917,9962.6
1215.479098,9725.2
1219.267722,10889.2
1223.050801,9809.6
1226.828346,9871
1230.600366,9969.4
1234.366874,10124.4
1238.12788,9795.4
1241.883395,9945
1245.633429,10029.8
1249.377994,10056
1253.1171,9553.2
1256.850759,9947.2
1260.578981,9818.2
1264.301776,9935
1268.019157,9832
1271.731133,9609.4
1275.437715,9512.2
1279.138915,9926.4
1282.834743,10068.8
1286.52521,9765.8
1290.210328,9622.2
1293.890106,9805.8
1297.564555,10083.4
1301.233688,9640.4
1304.897514,9987.4
1308.556044,10067.4
1312.209289,10080.6
1315.857261,9651.8
1319.499969,9744.8
1323.137425,10190.2
1326.769641,9917.6
1330.396626,10258.6
1334.018391,9961.6
1337.634948,10026.4
1341.246307,9782
1344.85248,9692.6
1348.453477,9625
1352.049309,9656
1355.639987,9672
1359.225522,10036
1362.805925,9771.8
1366.381207,9866.4
1369.951379,9895.4
1373.516452,9889.8
1377.076436,9994
1380.631343,9800.6
1384.181184,9743.2
1387.725969,9785.8
1391.26571,9671.6
1394.800417,9542.8
1398.330102,9724.4
1401.854776,9820.6
1405.374448,9736.6
1408.889132,9462.4
1412.398837,9216.4
1415.903574,9450.2
1419.403355,9942.8
1422.89819,9639.8
1426.388091,9552.4
1429.873069,9896.8
1433.353134,9520.8
1436.828298,9575.4
1440.298571,9744.8
1443.763965,9524
1447.224491,9454
1450.68016,9457.4
1454.130983,9777.6
1457.576971,9770.2
1461.018135,9798
1464.454486,9907.4
1467.886036,9657.4
1471.312794,9640.8
1474.734774,9434.2
1478.151985,9904.2
1481.564439,9753.8
1484.972146,9806.8
1488.375119,9428.4
1491.773368,9773.4
1495.166904,10104.4
1498.555739,9668
1501.939883,9714.2
1505.319349,9304.4
1508.694146,9669
1512.064286,9650
1515.429781,9680
1518.790642,9469.2
1522.146879,9606.2
1525.498505,9377.4
1528.845529,9398.4
1532.187965,9894.8
1535.525822,9499
1538.859112,9627.6
1542.187846,10001.4
1545.512036,9378.2
1548.831693,10231.2
1552.146829,9860.4
1555.457453,9357.2
1558.763579,9153
1562.065216,9529.4
1565.362377,9641.8
1568.655073,9769
1571.943315,9699.4
1575.227114,9690.4
1578.506482,9645
1581.781431,10022.2
1585.051971,9766
1588.318114,9941.2
1591.579872,9880.8
1594.837255,9743
1598.090275,9576.2
1601.338945,9679
1604.583274,9826.2
1607.823275,9569.2
1611.058959,9239.8
1614.290338,10148.2
1617.517422,9208.8
1620.740224,9482.6
1623.958755,9230.8
1627.173027,9239.4
1630.38305,9044.6
1633.588838,9406.2
1636.7904,9268.4
1639.987749,9388.8
1643.180896,9481.6
1646.369853,9047
1649.554632,9616.4
1652.735244,9214.4
1655.9117,9010.6
1659.084013,9225.6
1662.252193,9694.8
1665.416254,9134
1668.576205,9294.2
1671.732059,9476.4
1674.883828,9519.8
1678.031523,9198.8
1681.175157,9253.4
1684.314739,9304.8
1687.450284,9236.8
1690.581801,9227
1693.709304,9153.6
1696.832803,9062.2
1699.952311,9260.4
1703.067839,9285.2
1706.179399,9251.4
1709.287003,9516.6
1712.390663,9273.8
1715.49039,9290.2
1718.586197,9534.2
1721.678095,9474.4
1724.766096,9447
1727.850213,9010
1730.930456,9217.6
1734.006838,9187
1737.079372,9363
1740.148067,9079
1743.212938,9844.4
1746.273996,9247.4
1749.331252,9169.4
1752.384718,9340.6
1755.434408,9310
1758.480332,9340.8
1761.522503,9369.8
1764.560933,9257.8
1767.595634,8901.8
1770.626618,9426.4
1773.653896,9473.4
1776.677482,9207.2
1779.697388,9184.8
1782.713625,9607.2
1785.726205,9578.8
1788.735141,9532.8
1791.740445,9134.2
1794.742129,9118.6
1797.740206,9465.8
1800.734687,9479.2
1803.725585,9339.4
1806.712912,9381.4
1809.69668,9166.8
1812.676902,9219.4
1815.65359,9019.6
1818.626756,9073
1821.596413,9163
1824.562573,8931.8
1827.525247,9257.2
1830.48445,9064.4
1833.440192,9210.8
1836.392487,9181
1839.341347,9190.8
1842.286784,9222.6
1845.22881,8960.4
1848.167439,9402.2
1851.102682,9150
1854.034553,9103.2
1856.963063,9029
1859.888226,9617.2
1862.810053,9290.8
1865.728557,9180
1868.643751,8983.2
1871.555648,8951
1874.46426,8777
1877.369599,9305.2
1880.271679,9139
1883.170512,9059.2
1886.06611,9328.2
1888.958487,9047.6
1891.847655,9053.8
1894.733626,9294
1897.616414,9304.2
1900.496032,8971
1903.372491,9112.8
1906.245805,9407.2
1909.115987,9434
1911.983049,9389.8
1914.847004,9307
1917.707866,9416.4
1920.565646,9303.2
1923.420359,9093.2
1926.272016,9244.6
1929.120631,9031.4
1931.966216,9179
1934.808786,9149.2
1937.648351,9369.6
1940.484927,9298.8
1943.318525,9316.2
1946.149158,9564.4
1948.97684,10137.8
1951.801584,9460.6
1954.623403,9314.2
1957.44231,9361.8
1960.258318,9124.6
1963.071439,9089.4
1965.881688,9202
1968.689078,9294
1971.493621,9097.4
