Ramanshift[cm-1],Intensity
-93.47115107,10405.8
-87.69374369,9522.8
-81.9253076,9523.4
-76.16582701,9487
-70.41528615,9500
-64.67366933,9405
-58.94096086,9370.4
-53.21714512,9530.6
-47.50220652,9633.2
-41.79612954,9488
-36.09889866,9909.2
-30.41049843,9996
-24.73091343,9750.2
-19.0601283,9772.6
-13.39812769,9632.2
-7.744896327,9407
-2.100418946,9303.8
3.535319659,9780.2
9.162334658,9363.4
14.78064118,9643.6
20.39025432,9359.6
25.99118913,9331.8
31.58346061,9739.6
37.16708375,9683.4
42.74207347,9351.4
48.30844468,9312.2
53.86621222,9267.8
59.41539093,9067
64.95599558,8968.2
70.48804091,9309.6
76.01154164,9432.8
81.52651243,8981
87.03296792,9326.6
92.5309227,9482.6
98.02039134,9090.4
103.5013884,9184.4
108.9739282,9201.8
114.4380255,9186.4
119.8936944,9284
125.3409495,9926.6
130.779805,9080
136.2102753,8941.2
141.6323747,8972
147.0461174,9403.4
152.4515176,9135.6
157.8485895,9044.8
163.2373472,9008.6
168.6178049,9309.8
173.9899766,9452
179.3538764,9128
184.7095182,9194.4
190.0569161,9432.2
195.396084,9443.4
200.7270358,9000.2
206.0497854,9048.4
211.3643466,8805.2
216.6707333,9154
221.9689593,8907.8
227.2590382,9084.2
232.5409839,9050
237.8148101,8933.6
243.0805303,9038
248.3381582,9014.2
253.5877075,8852.4
258.8291917,8918.4
264.0626244,8983.6
269.288019,9158.4
274.5053891,9273.6
279.7147481,9045.8
284.9161094,8919
290.1094865,9008
295.2948927,9375.6
300.4723414,10525
305.6418459,11135.8
310.8034194,11848.2
315.9570752,12612.4
321.1028267,12785.2
326.2406869,12740.2
331.370669,12881.4
336.4927863,12920.6
341.6070517,12915
346.7134786,12930.2
351.8120798,13134.8
356.9028684,12928
361.9858576,12949.2
367.0610602,13217.8
372.1284892,12964.6
377.1881577,13264
382.2400784,13436.8
387.2842644,13775.6
392.3207284,13992.8
397.3494833,13596.2
402.370542,13558.6
407.3839172,13160.8
412.3896217,12827.4
417.3876683,12430.4
422.3780697,12545.6
427.3608386,12515.6
432.3359876,12744.8
437.3035295,12835.8
442.2634769,12817.8
447.2158423,12400
452.1606383,12480
457.0978776,12611.8
462.0275727,12082.4
466.9497361,12419.4
471.8643802,12082.6
476.7715176,12379
481.6711608,12378
486.5633221,12492.6
491.448014,12394.4
496.3252488,12338.2
501.195039,12336.6
506.0573969,12534.8
510.9123349,12362.2
515.7598651,11842.4
520.6,12301.2
525.4327518,12193.2
530.2581327,12312.4
535.076155,11767.6
539.8868309,12213.6
544.6901726,12362.8
549.4861922,12035.8
554.2749019,12655.8
559.0563139,12122.6
563.8304402,11905.2
568.597293,12590.2
573.3568844,12439.8
578.1092263,12076
582.8543308,12237.2
587.5922101,12241.4
592.322876,12021.2
597.0463405,12086
601.7626157,12355.4
606.4717135,11976
611.1736458,11972.2
615.8684246,11969.8
620.5560617,12168.6
625.2365691,11962
629.9099585,12351
634.5762419,12420.4
639.2354312,11907.8
643.887538,12087.2
648.5325743,11866.2
653.1705518,11876.2
657.8014823,12055.6
662.4253775,11547.4
667.0422493,11821.6
671.6521092,11812.6
676.2549691,11995
680.8508407,11976
685.4397355,11919.2
690.0216654,11978
694.5966419,11781
699.1646767,12107
703.7257814,11827.6
708.2799676,12019.6
712.827247,11974.2
717.367631,11877
721.9011314,11925
726.4277595,11363
730.9475271,11911.4
735.4604456,11774.8
739.9665264,12105.2
744.4657813,11666.6
748.9582215,11598
753.4438587,11290.6
757.9227042,11329.4
762.3947696,11643.2
766.8600662,11388.8
771.3186056,12339.4
775.770399,11587.6
780.215458,11887.8
784.6537939,11394.4
789.0854181,11350.2
793.510342,11436.4
797.9285769,11763.4
802.3401342,11381.4
806.7450253,11436.2
811.1432614,11477.8
815.5348538,11306.8
819.9198139,11165
824.2981531,11252.8
828.6698824,11492.4
833.0350133,11370.6
837.393557,11049
841.7455248,11388
846.0909278,11138.4
850.4297774,11069.2
854.7620848,11086.6
859.0878611,11454.4
863.4071176,11002
867.7198655,11406.4
872.026116,11637.4
876.3258802,11828
880.6191693,11593.4
884.9059946,11482.4
889.186367,11814.2
893.4602979,11094.6
897.7277982,10957.4
901.9888793,11331.2
906.2435521,11540.2
910.4918277,11039.4
914.7337174,11113.4
918.9692321,11071.8
923.1983831,11521.4
927.4211813,11216.6
931.6376378,11761
935.8477637,11401.6
940.0515701,11527.8
944.249068,11420.8
948.4402684,10916
952.6251825,11600.2
956.8038212,11215.8
960.9761955,11616.8
965.1423166,11326.4
969.3021953,11378.2
973.4558427,11240.8
977.6032699,11264
981.7444877,11293
985.8795072,11266.8
990.0083394,11322.6
994.1309953,11070.6
998.2474857,11326
1002.357822,10818.8
1006.462014,11358
1010.560075,11017.2
1014.652013,11235.4
1018.737841,11503.2
1022.81757,11173.6
1026.891209,11171
1030.958771,11049.2
1035.020266,11203.2
1039.075705,11052.2
1043.1251,10879.8
1047.16846,11166
1051.205797,11111.4
1055.237121,10912.8
1059.262444,11039.4
1063.281777,11002
1067.295131,11154.8
1071.302515,12318.8
1075.303942,12094.8
1079.299422,12438
1083.288966,11843
1087.272585,11500.2
1091.250289,11289.8
1095.222091,11201.2
1099.187999,10976.2
1103.148026,11065.8
1107.102183,10980
1111.050479,11049.8
1114.992927,10963
1118.929536,10901
1122.860318,11251.4
1126.785283,10891.2
1130.704443,10885.2
1134.617808,11637.6
1138.52539,11659.2
1142.427198,11527
1146.323244,11557
1150.213538,11208
1154.098093,11412.8
1157.976917,10957
1161.850023,10839.8
1165.717421,11314.2
1169.579121,11108.2
1173.435135,11335.4
1177.285474,10833.2
1181.130148,10850.4
1184.969169,11081.6
1188.802547,11067.2
1192.630292,10772.2
1196.452416,10574.2
1200.26893,10699.8
1204.079844,10453
1207.88517,10205.2
1211.684917,10647
1215.479098,10335.2
1219.267722,11402.8
1223.050801,10390.6
1226.828346,10506.8
1230.600366,10689
1234.366874,10715
1238.12788,10510.8
1241.883395,10506.2
1245.633429,10722.2
1249.377994,10716.4
1253.1171,10221
1256.850759,10455
1260.578981,10364.2
1264.301776,10495
1268.019157,10444
1271.731133,10201.4
1275.437715,10086.6
1279.138915,10555.4
1282.834743,10606.6
1286.52521,10422.4
1290.210328,10319.6
1293.890106,10408.2
1297.564555,10641.4
1301.233688,10257.4
1304.897514,10576.6
1308.556044,10616.2
1312.209289,10611.4
1315.857261,10309.8
1319.499969,10347.6
1323.137425,10884.2
1326.769641,10511.6
1330.396626,10918
1334.018391,10584
1337.634948,10642
1341.246307,10460.2
1344.85248,10376.8
1348.453477,10343
1352.049309,10330.2
1355.639987,10391
1359.225522,10774.4
1362.805925,10471.6
1366.381207,10621
1369.951379,10512
1373.516452,10694.8
1377.076436,10825.8
1380.631343,10685.4
1384.181184,10547.4
1387.725969,10819.8
1391.26571,10422.8
1394.800417,10273.8
1398.330102,10387
1401.854776,10493.4
1405.374448,10363.8
1408.889132,10147.4
1412.398837,9997.4
1415.903574,10167.2
1419.403355,10665.2
1422.89819,10333.2
1426.388091,10290.4
1429.873069,10711.8
1433.353134,10355.8
1436.828298,10401.4
1440.298571,10446.4
1443.763965,10117.2
1447.224491,10204.8
1450.68016,10171.6
1454.130983,10419
1457.576971,10368.8
1461.018135,10408.4
1464.454486,10447
1467.886036,10078.6
1471.312794,10213.2
1474.734774,9849.8
1478.151985,10360.6
1481.564439,10201.8
1484.972146,10274
1488.375119,9901
1491.773368,10182.6
1495.166904,10625.2
1498.555739,10093.6
1501.939883,10100.8
1505.319349,9820
1508.694146,10163.2
1512.064286,10194.4
1515.429781,10115.2
1518.790642,9962.2
1522.146879,10083
1525.498505,9774.4
1528.845529,9843
1532.187965,10382.6
1535.525822,10064
1538.859112,10085.6
1542.187846,10435.4
1545.512036,9904.8
1548.831693,10841.8
1552.146829,10463.8
1555.457453,9891.6
1558.763579,9701
1562.065216,10078.8
1565.362377,10240.6
1568.655073,10566.4
1571.943315,10541.8
1575.227114,10418.6
1578.506482,10398.8
1581.781431,10714.8
1585.051971,10373.6
1588.318114,10438
1591.579872,10351.4
1594.837255,10183.2
1598.090275,9998.8
1601.338945,9948.8
1604.583274,10207
1607.823275,9834.2
1611.058959,9559
1614.290338,10399.4
1617.517422,9550.2
1620.740224,9752.4
1623.958755,9511.2
1627.173027,9514.4
1630.38305,9319.2
1633.588838,9631
1636.7904,9508.4
1639.987749,9529
1643.180896,9682
1646.369853,9349.2
1649.554632,9809
1652.735244,9396.4
1655.9117,9162
1659.084013,9415.6
1662.252193,9847
1665.416254,9273
1668.576205,9463.6
1671.732059,9593.2
1674.883828,9635.6
1678.031523,9281.8
1681.175157,9343.8
1684.314739,9362
1687.450284,9390.2
1690.581801,9228.8
1693.709304,9116.4
1696.832803,9078.8
1699.952311,9274
1703.067839,9334.6
1706.179399,9246.8
1709.287003,9509
1712.390663,9228.6
1715.49039,9267.2
1718.586197,9523.6
1721.678095,9381.2
1724.766096,9396
1727.850213,9041.6
1730.930456,9235.6
1734.006838,9129.2
1737.079372,9335.6
1740.148067,9087.8
1743.212938,9817.8
1746.273996,9254.4
1749.331252,9237.8
1752.384718,9328.8
1755.434408,9267.2
1758.480332,9314.8
1761.522503,9304.4
1764.560933,9204
1767.595634,8895.4
1770.626618,9433.2
1773.653896,9339.8
1776.677482,9179.6
1779.697388,9129
1782.713625,9530
1785.726205,9400.4
1788.735141,9478.4
1791.740445,9089.4
1794.742129,9068.6
1797.740206,9489
1800.734687,9404.4
1803.725585,9281.4
1806.712912,9307.8
1809.69668,9098
1812.676902,9110.6
1815.65359,8986.2
1818.626756,9020.2
1821.596413,9188.6
1824.562573,8951
1827.525247,9107.2
1830.48445,8968.6
1833.440192,9051.2
1836.392487,9031.8
1839.341347,9154.6
1842.286784,9225.4
1845.22881,8799.4
1848.167439,9222.2
1851.102682,9094.6
1854.034553,9079.2
1856.963063,8937.8
1859.888226,9577.8
1862.810053,9232.2
1865.728557,9127.8
1868.643751,8895.6
1871.555648,8904.2
1874.46426,8768.2
1877.369599,9155.2
1880.271679,9034.2
1883.170512,8963.2
1886.06611,9302.8
1888.958487,8999.2
1891.847655,8975
1894.733626,9095
1897.616414,9285.2
1900.496032,8822
1903.372491,9060.6
1906.245805,9330.4
1909.115987,9272.6
1911.983049,9223.6
1914.847004,9133.4
1917.707866,9405.2
1920.565646,9247.4
1923.420359,9019
1926.272016,9179.8
1929.120631,9024.2
1931.966216,9005.2
1934.808786,8979.4
1937.648351,9159.6
1940.484927,9150.8
1943.318525,9231.8
1946.149158,9391
1948.97684,9979.8
1951.801584,9278.2
1954.623403,9269.4
1957.44231,9272.4
1960.258318,8958.8
1963.071439,8948
1965.881688,9125.4
1968.689078,9247
1971.493621,9021.4
