Ramanshift[cm-1],Intensity
-93.47115107,10598.4
-87.69374369,9760.8
-81.9253076,9623.2
-76.16582701,9654.6
-70.41528615,9721.8
-64.67366933,9569.6
-58.94096086,9477.2
-53.21714512,9677
-47.50220652,9833.4
-41.79612954,9748.8
-36.09889866,10074.8
-30.41049843,10211.8
-24.73091343,9906.4
-19.0601283,10008.4
-13.39812769,9753.2
-7.744896327,9641.6
-2.100418946,9426.8
3.535319659,9946.6
9.162334658,9527
14.78064118,9756
20.39025432,9458.8
25.99118913,9567.2
31.58346061,9870
37.16708375,9722.2
42.74207347,9382.6
48.30844468,9583.6
53.86621222,9439.8
59.41539093,9191.8
64.95599558,9157.2
70.48804091,9443.4
76.01154164,9548.6
81.52651243,9155.4
87.03296792,9523
92.5309227,9757
98.02039134,9257.8
103.5013884,9481.2
108.9739282,9354.4
114.4380255,9198
119.8936944,9407.8
125.3409495,10045.8
130.779805,9202.2
136.2102753,9121.8
141.6323747,9123
147.0461174,9575.6
152.4515176,9300
157.8485895,9336.6
163.2373472,9201.2
168.6178049,9435
173.9899766,9575.6
179.3538764,9230.4
184.7095182,9332.6
190.0569161,9564.4
195.396084,9634.4
200.7270358,9243
206.0497854,9241.8
211.3643466,9116.6
216.6707333,9400
221.9689593,9111.6
227.2590382,9193.2
232.5409839,9170.4
237.8148101,9091.8
243.0805303,9266.6
248.3381582,9201.2
253.5877075,9087.6
258.8291917,9189.8
264.0626244,9314
269.288019,9347.4
274.5053891,9525.4
279.7147481,9322.4
284.9161094,9534
290.1094865,10677
295.2948927,13992.6
300.4723414,22220
305.6418459,33007
310.8034194,42277.8
315.9570752,47317
321.1028267,48294.2
326.2406869,49135.4
331.370669,49931.6
336.4927863,51357.8
341.6070517,52176.4
346.7134786,53241.4
351.8120798,53882.8
356.9028684,54218.2
361.9858576,53679.6
367.0610602,53550
372.1284892,54136.6
377.1881577,56105.2
382.2400784,60293
387.2842644,63905.2
392.3207284,64076.8
397.3494833,63385
402.370542,60331.4
407.3839172,57359
412.3896217,54173.2
417.3876683,51904.2
422.3780697,50563.4
427.3608386,49189.4
432.3359876,48690.6
437.3035295,47977
442.2634769,47556.8
447.2158423,46751.6
452.1606383,46683.4
457.0978776,46535
462.0275727,46303.2
466.9497361,46839.4
471.8643802,47534.4
476.7715176,49945.8
481.6711608,52198.8
486.5633221,53113.8
491.448014,51841.2
496.3252488,49293.6
501.195039,47914.2
506.0573969,46950.2
510.9123349,46195.6
515.7598651,45264.8
520.6,45224.4
525.4327518,44613.2
530.2581327,44905.6
535.076155,44974.6
539.8868309,45714.6
544.6901726,44950.6
549.4861922,43084.4
554.2749019,43249.2
559.0563139,42657.8
563.8304402,42196.8
568.597293,42836.6
573.3568844,42471
578.1092263,41978.8
582.8543308,42538
587.5922101,42664.4
592.322876,42201.4
597.0463405,42208.8
601.7626157,42582.4
606.4717135,42067.2
611.1736458,41849
615.8684246,41834
620.5560617,41939.8
625.2365691,41774
629.9099585,42059.6
634.5762419,41892.8
639.2354312,41316.8
643.887538,40931.6
648.5325743,40770
653.1705518,40602.8
657.8014823,40425.6
662.4253775,39802.6
667.0422493,40061.2
671.6521092,39862.6
676.2549691,39871.2
680.8508407,39885.4
685.4397355,39688.4
690.0216654,39878
694.5966419,40379
699.1646767,41138.4
703.7257814,41715.8
708.2799676,42547.4
712.827247,43744.2
717.367631,42858.8
721.9011314,41289.8
726.4277595,39832
730.9475271,39234.4
735.4604456,38859.4
739.9665264,38841.4
744.4657813,38555.6
748.9582215,37989
753.4438587,37460.2
757.9227042,36918.8
762.3947696,37376.4
766.8600662,36357.6
771.3186056,37524
775.770399,36574.4
780.215458,36753.2
784.6537939,36217.4
789.0854181,36170.4
793.510342,36080.6
797.9285769,36441.2
802.3401342,35999.4
806.7450253,35885.2
811.1432614,35646.6
815.5348538,35198.6
819.9198139,34786.8
824.2981531,34548.2
828.6698824,34646.4
833.0350133,33670.8
837.393557,33132.8
841.7455248,33427.8
846.0909278,33007.8
850.4297774,33322.8
854.7620848,33073.2
859.0878611,33238
863.4071176,32860
867.7198655,33529.2
872.026116,33666.6
876.3258802,33843.2
880.6191693,33585.2
884.9059946,33564
889.186367,33866.4
893.4602979,33023.6
897.7277982,33030.8
901.9888793,33400.2
906.2435521,34079.2
910.4918277,33992
914.7337174,34622.6
918.9692321,34639.2
923.1983831,35046.8
927.4211813,34354
931.6376378,34926.6
935.8477637,34379.8
940.0515701,34848
944.249068,34793
948.4402684,33983.6
952.6251825,34817
956.8038212,34652.4
960.9761955,35072.6
965.1423166,34680.6
969.3021953,34550.8
973.4558427,34552.6
977.6032699,34524.6
981.7444877,34086.4
985.8795072,34020.2
990.0083394,34222.6
994.1309953,33913.2
998.2474857,35026
1002.357822,35369
1006.462014,36121.6
1010.560075,34659.8
1014.652013,33536.2
1018.737841,33364.4
1022.81757,33040.2
1026.891209,33000.2
1030.958771,32914.8
1035.020266,33252.4
1039.075705,33172.2
1043.1251,33200.8
1047.16846,34189.6
1051.205797,35218.6
1055.237121,37957.8
1059.262444,43629.2
1063.281777,52039.4
1067.295131,60537.6
1071.302515,64207.8
1075.303942,61372.2
1079.299422,54800.6
1083.288966,45818
1087.272585,39246.2
1091.250289,35632
1095.222091,34561.8
1099.187999,33672.8
1103.148026,33710.6
1107.102183,34191.4
1111.050479,34703
1114.992927,36252.4
1118.929536,38756.4
1122.860318,43399.4
1126.785283,50228.2
1130.704443,59699.6
1134.617808,64196.2
1138.52539,64298
1142.427198,63722.6
1146.323244,54101.4
1150.213538,44831
1154.098093,40218
1157.976917,36673.4
1161.850023,35292.2
1165.717421,34838.8
1169.579121,34137.8
1173.435135,34762.4
1177.285474,34516.4
1181.130148,35370.4
1184.969169,36570.2
1188.802547,36827
1192.630292,36258
1196.452416,34292
1200.26893,32635.4
1204.079844,31378.4
1207.88517,30394.2
1211.684917,30531.4
1215.479098,29912.8
1219.267722,31105.8
1223.050801,29687.8
1226.828346,29864.4
1230.600366,29814.8
1234.366874,30064.8
1238.12788,30016.6
1241.883395,29991.2
1245.633429,29949.2
1249.377994,29888.6
1253.1171,29548.6
1256.850759,29609.8
1260.578981,29506.4
1264.301776,29380.6
1268.019157,29155.4
1271.731133,29065.6
1275.437715,28954.6
1279.138915,29408
1282.834743,29700.6
1286.52521,29594.6
1290.210328,29703.2
1293.890106,30408.4
1297.564555,31538
1301.233688,31716.8
1304.897514,32169.4
1308.556044,31555.2
1312.209289,30648.2
1315.857261,29547.6
1319.499969,29239.2
1323.137425,29664.4
1326.769641,29101.2
1330.396626,29525.2
1334.018391,29257.4
1337.634948,29452
1341.246307,29584.6
1344.85248,29803.8
1348.453477,30259.8
1352.049309,30417
1355.639987,31125.4
1359.225522,31850.2
1362.805925,31758.2
1366.381207,32178
1369.951379,33193.4
1373.516452,34880.4
1377.076436,37755
1380.631343,41422.4
1384.181184,44997
1387.725969,47242.6
1391.26571,44459.4
1394.800417,38949.8
1398.330102,34363
1401.854776,31767.6
1405.374448,30339.4
1408.889132,30541.8
1412.398837,31919
1415.903574,35624
1419.403355,41731
1422.89819,47141.8
1426.388091,50692.6
1429.873069,51003
1433.353134,47638
1436.828298,42938.4
1440.298571,38420.2
1443.763965,34310.4
1447.224491,31576.2
1450.68016,29494.6
1454.130983,28532.2
1457.576971,27852.2
1461.018135,27743.6
1464.454486,27648.6
1467.886036,27654.8
1471.312794,27520.6
1474.734774,26369.4
1478.151985,26064.4
1481.564439,25308.4
1484.972146,24941.8
1488.375119,24260.8
1491.773368,24494.6
1495.166904,24494
1498.555739,23830.8
1501.939883,23861.6
1505.319349,23474.4
1508.694146,23749
1512.064286,23795
1515.429781,23721
1518.790642,23667.4
1522.146879,24026.2
1525.498505,23662
1528.845529,23562
1532.187965,24358.6
1535.525822,23971
1538.859112,24183.8
1542.187846,24734.4
1545.512036,24304.8
1548.831693,25664
1552.146829,25887.4
1555.457453,26108.4
1558.763579,26860.8
1562.065216,28413.2
1565.362377,29802.2
1568.655073,30923.4
1571.943315,31476
1575.227114,30895.8
1578.506482,30063
1581.781431,29177.8
1585.051971,27944
1588.318114,26868
1591.579872,25355
1594.837255,23686.8
1598.090275,22559.4
1601.338945,21782
1604.583274,21404.8
1607.823275,20971.8
1611.058959,20301.4
1614.290338,20879.2
1617.517422,19813.2
1620.740224,19991.4
1623.958755,19399.2
1627.173027,19202
1630.38305,18730
1633.588838,18851
1636.7904,18688.6
1639.987749,18501.2
1643.180896,18518.4
1646.369853,17968.4
1649.554632,18293.8
1652.735244,17802.4
1655.9117,17270.4
1659.084013,17377.2
1662.252193,17802.8
1665.416254,17051.8
1668.576205,17166.6
1671.732059,17308
1674.883828,17209
1678.031523,16734.6
1681.175157,16665.6
1684.314739,16705.2
1687.450284,16517
1690.581801,16233.6
1693.709304,16238.2
1696.832803,16054.4
1699.952311,16329.8
1703.067839,16255
1706.179399,16148
1709.287003,16311
1712.390663,16077.4
1715.49039,15956.2
1718.586197,16145.6
1721.678095,15989.2
1724.766096,15967.8
1727.850213,15464
1730.930456,15678.2
1734.006838,15379.6
1737.079372,15632.6
1740.148067,15224.8
1743.212938,15956.8
1746.273996,15391
1749.331252,15241.4
1752.384718,15340.6
1755.434408,15215.4
1758.480332,15321.2
1761.522503,15210.6
1764.560933,14923.4
1767.595634,14604.2
1770.626618,14992.4
1773.653896,15002.2
1776.677482,14692.2
1779.697388,14608.6
1782.713625,14974
1785.726205,14854.8
1788.735141,14877
1791.740445,14587.4
1794.742129,14448.8
1797.740206,14906
1800.734687,14908
1803.725585,14747.4
1806.712912,14682.8
1809.69668,14430.6
1812.676902,14359.6
1815.65359,14185.6
1818.626756,14278.2
1821.596413,14345.4
1824.562573,14150.8
1827.525247,14187
1830.48445,14123.4
1833.440192,14333.8
1836.392487,14225.6
1839.341347,14237.6
1842.286784,14290.8
1845.22881,13948.2
1848.167439,14253.2
1851.102682,14200.4
1854.034553,14007.4
1856.963063,13974.4
1859.888226,14518
1862.810053,14118
1865.728557,13923.2
1868.643751,13775.4
1871.555648,13949.2
1874.46426,13428.2
1877.369599,13903.6
1880.271679,13783.8
1883.170512,13685
1886.06611,13904.6
1888.958487,13747.2
1891.847655,13569.6
1894.733626,13706.8
1897.616414,13789.2
1900.496032,13333
1903.372491,13721.2
1906.245805,13804.4
1909.115987,13833.8
1911.983049,13713
1914.847004,13612.8
1917.707866,13799.6
1920.565646,13727.8
1923.420359,13366
1926.272016,13551.6
1929.120631,13375.4
1931.966216,13302.2
1934.808786,13375
1937.648351,13432.2
1940.484927,13421.8
1943.318525,13293.6
1946.149158,13559.2
1948.97684,14181.2
1951.801584,13463.8
1954.623403,13426.8
1957.44231,13420.2
1960.258318,13061
1963.071439,13046
1965.881688,13169.8
1968.689078,13233.8
1971.493621,13014
