Ramanshift[cm-1],Intensity
-93.47115107,10502.8
-87.69374369,9718
-81.9253076,9531.8
-76.16582701,9561.4
-70.41528615,9589.2
-64.67366933,9486.4
-58.94096086,9448.8
-53.21714512,9580
-47.50220652,9722.8
-41.79612954,9612.6
-36.09889866,9941.8
-30.41049843,10144.8
-24.73091343,9890.2
-19.0601283,9861.4
-13.39812769,9746.6
-7.744896327,9473.4
-2.100418946,9345.2
3.535319659,9842.4
9.162334658,9331.2
14.78064118,9660.2
20.39025432,9424.6
25.99118913,9429.4
31.58346061,9762.6
37.16708375,9644.2
42.74207347,9385.4
48.30844468,9394.2
53.86621222,9372.2
59.41539093,9100.4
64.95599558,9141
70.48804091,9338.8
76.01154164,9433.2
81.52651243,8978.8
87.03296792,9383.8
92.5309227,9551
98.02039134,9083
103.5013884,9296.2
108.9739282,9200.2
114.4380255,9184.8
119.8936944,9308.4
125.3409495,9919.4
130.779805,9149
136.2102753,8974.6
141.6323747,9091.4
147.0461174,9464
152.4515176,9194.2
157.8485895,9190
163.2373472,9043.8
168.6178049,9359.4
173.9899766,9519
179.3538764,9186.4
184.7095182,9269.2
190.0569161,9428.2
195.396084,9553.2
200.7270358,9114.2
206.0497854,9097.6
211.3643466,8932.6
216.6707333,9232
221.9689593,8971.4
227.2590382,9136.4
232.5409839,9029.8
237.8148101,9056
243.0805303,9092.2
248.3381582,9051
253.5877075,8986.4
258.8291917,8970.6
264.0626244,9068.6
269.288019,9224.6
274.5053891,9285.6
279.7147481,9026.2
284.9161094,8957
290.1094865,9081
295.2948927,9376.8
300.4723414,10205.2
305.6418459,10558.8
310.8034194,11019.6
315.9570752,11775.4
321.1028267,11900.6
326.2406869,11881.4
331.370669,11999
336.4927863,12108.6
341.6070517,12126
346.7134786,12111
351.8120798,12323
356.9028684,12061.4
361.9858576,12155.8
367.0610602,12339.6
372.1284892,12267
377.1881577,12651.2
382.2400784,13003.2
387.2842644,13570.8
392.3207284,14173.8
397.3494833,13671.8
402.370542,13335.2
407.3839172,12607.8
412.3896217,12141.4
417.3876683,11712.8
422.3780697,11683.6
427.3608386,11821.6
432.3359876,11839.6
437.3035295,12030
442.2634769,12212.2
447.2158423,11677.2
452.1606383,11641.6
457.0978776,11918.4
462.0275727,11370
466.9497361,11741.6
471.8643802,11177.6
476.7715176,11638.6
481.6711608,11567.8
486.5633221,11910.2
491.448014,11577.4
496.3252488,11578.4
501.195039,11726.6
506.0573969,11784.2
510.9123349,11646
515.7598651,11248.4
520.6,11597.4
525.4327518,11500.8
530.2581327,11557.6
535.076155,11214.6
539.8868309,11549.6
544.6901726,11619.4
549.4861922,11394.6
554.2749019,11971.8
559.0563139,11423.4
563.8304402,11256.6
568.597293,11821.8
573.3568844,11695.2
578.1092263,11442
582.8543308,11690
587.5922101,11613
592.322876,11409.2
597.0463405,11496.4
601.7626157,11748.6
606.4717135,11346
611.1736458,11360.4
615.8684246,11342.2
620.5560617,11681.4
625.2365691,11379
629.9099585,11670
634.5762419,11802
639.2354312,11467.8
643.887538,11507.2
648.5325743,11286
653.1705518,11318.2
657.8014823,11471.2
662.4253775,10903.6
667.0422493,11174.6
671.6521092,11268.2
676.2549691,11342.8
680.8508407,11326.8
685.4397355,11264.4
690.0216654,11362.2
694.5966419,11250
699.1646767,11626.6
703.7257814,11396.6
708.2799676,11366.2
712.827247,11427.6
717.367631,11350.2
721.9011314,11152.2
726.4277595,10876.8
730.9475271,11344.6
735.4604456,11255.4
739.9665264,11546.2
744.4657813,11169.2
748.9582215,11133.6
753.4438587,10850.2
757.9227042,10796.6
762.3947696,11219
766.8600662,10962.4
771.3186056,11868.6
775.770399,11112.2
780.215458,11507
784.6537939,10940.6
789.0854181,10880.6
793.510342,10928.6
797.9285769,11323
802.3401342,11035.2
806.7450253,11052.6
811.1432614,11108
815.5348538,11041
819.9198139,10722.8
824.2981531,10994.4
828.6698824,10975
833.0350133,10862.2
837.393557,10638.6
841.7455248,10905.2
846.0909278,10811.6
850.4297774,10661.2
854.7620848,10721.6
859.0878611,11030.2
863.4071176,10563.8
867.7198655,10907.8
872.026116,11121.2
876.3258802,11467.8
880.6191693,11038.4
884.9059946,10957
889.186367,11415
893.4602979,10588.2
897.7277982,10609.4
901.9888793,10886.4
906.2435521,11168.8
910.4918277,10711.6
914.7337174,10792.6
918.9692321,10702.8
923.1983831,11086.4
927.4211813,10899.6
931.6376378,11431.4
935.8477637,11108.4
940.0515701,11124.4
944.249068,11184.2
948.4402684,10615.8
952.6251825,11197.6
956.8038212,11002.8
960.9761955,11411
965.1423166,11104
969.3021953,11014.2
973.4558427,11077
977.6032699,10959.8
981.7444877,11053
985.8795072,10956
990.0083394,11008.4
994.1309953,10810.2
998.2474857,11022.8
1002.357822,10537.8
1006.462014,10859
1010.560075,10710.4
1014.652013,10872.2
1018.737841,11107.4
1022.81757,10641.8
1026.891209,10755.2
1030.958771,10575.6
1035.020266,10866.2
1039.075705,10661
1043.1251,10470.8
1047.16846,10635.8
1051.205797,10615.4
1055.237121,10407
1059.262444,10512.6
1063.281777,10308
1067.295131,10462.4
1071.302515,11480.6
1075.303942,11350.8
1079.299422,12142
1083.288966,11581
1087.272585,11058.4
1091.250289,10772
1095.222091,10862.2
1099.187999,10524
1103.148026,10619.6
1107.102183,10493.8
1111.050479,10573.2
1114.992927,10605.8
1118.929536,10470
1122.860318,10632
1126.785283,10259.8
1130.704443,10222.6
1134.617808,10766.2
1138.52539,10675.8
1142.427198,10613
1146.323244,10659.2
1150.213538,10392.2
1154.098093,10703.2
1157.976917,10244.8
1161.850023,10286.6
1165.717421,10600
1169.579121,10445.8
1173.435135,10700.2
1177.285474,10178.6
1181.130148,10343.6
1184.969169,10601.8
1188.802547,10539.2
1192.630292,10185.8
1196.452416,9967
1200.26893,10144
1204.079844,9908.4
1207.88517,9630.4
1211.684917,10162
1215.479098,9827.8
1219.267722,10872
1223.050801,9903.2
1226.828346,9877.6
1230.600366,10108.2
1234.366874,10215.8
1238.12788,9960.6
1241.883395,10094
1245.633429,10248.2
1249.377994,10241.4
1253.1171,9655.6
1256.850759,10042.6
1260.578981,9946.6
1264.301776,9960.2
1268.019157,9919.6
1271.731133,9691.6
1275.437715,9565.6
1279.138915,10039
1282.834743,10151.4
1286.52521,9915.4
1290.210328,9750.8
1293.890106,9805.8
1297.564555,10195.8
1301.233688,9783.8
1304.897514,10010.4
1308.556044,10115.2
1312.209289,10023.6
1315.857261,9740.6
1319.499969,9752
1323.137425,10283.4
1326.769641,9930.8
1330.396626,10291.8
1334.018391,9926.8
1337.634948,10026.8
1341.246307,9788.8
1344.85248,9748.2
1348.453477,9675.2
1352.049309,9716.4
1355.639987,9747.2
1359.225522,10106.8
1362.805925,9845.8
1366.381207,9902.4
1369.951379,9873.6
1373.516452,9988.6
1377.076436,9974.2
1380.631343,9876.6
1384.181184,9726.8
1387.725969,9819.8
1391.26571,9728.2
1394.800417,9654.8
1398.330102,9702
1401.854776,9825.2
1405.374448,9778
1408.889132,9449.2
1412.398837,9277.6
1415.903574,9499.6
1419.403355,9951.4
1422.89819,9705.4
1426.388091,9570
1429.873069,9925.6
1433.353134,9544.8
1436.828298,9592.2
1440.298571,9764.2
1443.763965,9594.8
1447.224491,9501.8
1450.68016,9506
1454.130983,9858.6
1457.576971,9773
1461.018135,9827.2
1464.454486,9906
1467.886036,9577
1471.312794,9673.2
1474.734774,9415.6
1478.151985,9955
1481.564439,9663
1484.972146,9723.8
1488.375119,9464.8
1491.773368,9712.2
1495.166904,10164.6
1498.555739,9621.2
1501.939883,9606.8
1505.319349,9343.4
1508.694146,9615
1512.064286,9641
1515.429781,9649
1518.790642,9574.2
1522.146879,9618.4
1525.498505,9330.6
1528.845529,9304
1532.187965,9748.2
1535.525822,9449.8
1538.859112,9543
1542.187846,10004.2
1545.512036,9329.4
1548.831693,10231.8
1552.146829,9776.4
1555.457453,9260.4
1558.763579,9094.2
1562.065216,9497.4
1565.362377,9703.6
1568.655073,9770.8
1571.943315,9785
1575.227114,9822.6
1578.506482,9748
1581.781431,10212.8
1585.051971,9996.8
1588.318114,10170.2
1591.579872,9987
1594.837255,9859.8
1598.090275,9675.8
1601.338945,9608.8
1604.583274,9777
1607.823275,9576.8
1611.058959,9254.6
1614.290338,10144
1617.517422,9227.4
1620.740224,9473.2
1623.958755,9175
1627.173027,9222
1630.38305,9038
1633.588838,9334.4
1636.7904,9198
1639.987749,9333.4
1643.180896,9448.6
1646.369853,9070.6
1649.554632,9664.4
1652.735244,9170.8
1655.9117,8926.4
1659.084013,9187.8
1662.252193,9625.4
1665.416254,9063.8
1668.576205,9245
1671.732059,9410.8
1674.883828,9447.8
1678.031523,9101.4
1681.175157,9150.8
1684.314739,9204
1687.450284,9156.6
1690.581801,9108
1693.709304,8959.6
1696.832803,9018.8
1699.952311,9140.6
1703.067839,9251.8
1706.179399,9079.8
1709.287003,9467.6
1712.390663,9158.8
1715.49039,9229.8
1718.586197,9395.4
1721.678095,9318.2
1724.766096,9283.2
1727.850213,8877.6
1730.930456,9173.4
1734.006838,9036.8
1737.079372,9328.2
1740.148067,8969
1743.212938,9782.2
1746.273996,9228.8
1749.331252,9092.6
1752.384718,9172
1755.434408,9186.2
1758.480332,9197.4
1761.522503,9207.4
1764.560933,9105
1767.595634,8865.2
1770.626618,9342.6
1773.653896,9322.4
1776.677482,9122.6
1779.697388,9045.8
1782.713625,9366
1785.726205,9307.6
1788.735141,9348.2
1791.740445,9036.8
1794.742129,8993.6
1797.740206,9301.2
1800.734687,9439.6
1803.725585,9333.2
1806.712912,9220.4
1809.69668,9002.8
1812.676902,9064.2
1815.65359,8893.6
1818.626756,8950.8
1821.596413,9087.4
1824.562573,8871.4
1827.525247,9033
1830.48445,8981.6
1833.440192,9055.2
1836.392487,8978.6
1839.341347,9178.2
1842.286784,9195.6
1845.22881,8777
1848.167439,9193.8
1851.102682,9071.4
1854.034553,9025.2
1856.963063,8976.2
1859.888226,9489
1862.810053,9136.8
1865.728557,8994.2
1868.643751,8902.4
1871.555648,8869.2
1874.46426,8728.2
1877.369599,9102.8
1880.271679,9000
1883.170512,8891
1886.06611,9226.2
1888.958487,8960.4
1891.847655,8951.4
1894.733626,9107.8
1897.616414,9135
1900.496032,8803.2
1903.372491,9025.8
1906.245805,9292.4
1909.115987,9229.6
1911.983049,9204.4
1914.847004,9148
1917.707866,9305.4
1920.565646,9197
1923.420359,9001.4
1926.272016,9099.8
1929.120631,8952
1931.966216,9047.2
1934.808786,8993
1937.648351,9100.6
1940.484927,9189.6
1943.318525,9222
1946.149158,9377.4
1948.97684,10055.8
1951.801584,9351.4
1954.623403,9216.6
1957.44231,9212.6
1960.258318,8944.4
1963.071439,8953
1965.881688,9078.8
1968.689078,9200.2
1971.493621,8990.8
