Ramanshift[cm-1],Intensity
-93.47115107,10500.8
-87.69374369,9705.4
-81.9253076,9588.8
-76.16582701,9739.8
-70.41528615,9622.8
-64.67366933,9511.8
-58.94096086,9490.6
-53.21714512,9682.6
-47.50220652,9702.6
-41.79612954,9733.4
-36.09889866,10047.6
-30.41049843,10213.6
-24.73091343,9867
-19.0601283,9885
-13.39812769,9804.6
-7.744896327,9603.8
-2.100418946,9507.4
3.535319659,9969.6
9.162334658,9525.4
14.78064118,9677.2
20.39025432,9459.6
25.99118913,9538
31.58346061,9939.2
37.16708375,9758.8
42.74207347,9436.6
48.30844468,9524.4
53.86621222,9393
59.41539093,9220.4
64.95599558,9097.8
70.48804091,9411.6
76.01154164,9538
81.52651243,9160.8
87.03296792,9462.4
92.5309227,9681.2
98.02039134,9208.6
103.5013884,9389
108.9739282,9344.2
114.4380255,9293.2
119.8936944,9381.6
125.3409495,10057
130.779805,9229.8
136.2102753,8986
141.6323747,9080.8
147.0461174,9461.6
152.4515176,9346.2
157.8485895,9283.4
163.2373472,9116.4
168.6178049,9390
173.9899766,9591.8
179.3538764,9207.2
184.7095182,9341.6
190.0569161,9577.2
195.396084,9549
200.7270358,9195
206.0497854,9217
211.3643466,8926.6
216.6707333,9289.4
221.9689593,9076.4
227.2590382,9163
232.5409839,9169.4
237.8148101,9117.4
243.0805303,9178
248.3381582,9087.8
253.5877075,9099.8
258.8291917,9077.4
264.0626244,9146.2
269.288019,9278.4
274.5053891,9423.2
279.7147481,9222.2
284.9161094,9064.4
290.1094865,9180.4
295.2948927,9756.8
300.4723414,11071.8
305.6418459,12192.6
310.8034194,13268.2
315.9570752,14168.8
321.1028267,14302.6
326.2406869,14415.2
331.370669,14687
336.4927863,14649
341.6070517,14779.8
346.7134786,14704.4
351.8120798,15006
356.9028684,14811.8
361.9858576,14978.8
367.0610602,15014.4
372.1284892,14905
377.1881577,15357.4
382.2400784,15913
387.2842644,16764.8
392.3207284,17403.2
397.3494833,16770
402.370542,16429.2
407.3839172,15502
412.3896217,14707.8
417.3876683,14269.6
422.3780697,14143
427.3608386,14061.8
432.3359876,14181
437.3035295,14364.8
442.2634769,14223.8
447.2158423,13763
452.1606383,13781.4
457.0978776,13857
462.0275727,13500.6
466.9497361,13812
471.8643802,13331
476.7715176,13800.8
481.6711608,13818
486.5633221,14075.6
491.448014,13858.2
496.3252488,13723.2
501.195039,13663.4
506.0573969,13910.6
510.9123349,13666.2
515.7598651,13255.4
520.6,13522.2
525.4327518,13604.8
530.2581327,13607.8
535.076155,13138.8
539.8868309,13496.2
544.6901726,13415.8
549.4861922,13358.4
554.2749019,13990
559.0563139,13251
563.8304402,13048.6
568.597293,13817
573.3568844,13449.6
578.1092263,13107.4
582.8543308,13392.8
587.5922101,13410
592.322876,13128.4
597.0463405,13226.4
601.7626157,13456.2
606.4717135,13092.4
611.1736458,13105.6
615.8684246,13204
620.5560617,13399.8
625.2365691,13171
629.9099585,13404
634.5762419,13612.8
639.2354312,13103.6
643.887538,13289.8
648.5325743,13031.8
653.1705518,12994.6
657.8014823,13130.6
662.4253775,12705.8
667.0422493,12995.6
671.6521092,12998
676.2549691,13185.4
680.8508407,13046.8
685.4397355,12816.8
690.0216654,12919.4
694.5966419,12768.2
699.1646767,13153
703.7257814,13037.2
708.2799676,13096.4
712.827247,13030.2
717.367631,12964.8
721.9011314,12836.4
726.4277595,12398.2
730.9475271,13033.4
735.4604456,12813
739.9665264,13145
744.4657813,12659.8
748.9582215,12666
753.4438587,12389
757.9227042,12330.6
762.3947696,12630.2
766.8600662,12297.6
771.3186056,13364
775.770399,12619.8
780.215458,12918.8
784.6537939,12389.4
789.0854181,12290
793.510342,12342.4
797.9285769,12770
802.3401342,12362.4
806.7450253,12475.4
811.1432614,12396.2
815.5348538,12279.8
819.9198139,12009.2
824.2981531,12217.6
828.6698824,12254
833.0350133,12139.8
837.393557,11898.8
841.7455248,12118.6
846.0909278,11940.2
850.4297774,11967
854.7620848,11967.8
859.0878611,12209.4
863.4071176,11819
867.7198655,12161.2
872.026116,12391.8
876.3258802,12673.4
880.6191693,12434.6
884.9059946,12343.4
889.186367,12663.4
893.4602979,11887.4
897.7277982,11836.8
901.9888793,12252.2
906.2435521,12366.4
910.4918277,11945.8
914.7337174,12082
918.9692321,12045.4
923.1983831,12461.4
927.4211813,12309.6
931.6376378,12684.4
935.8477637,12354.8
940.0515701,12463
944.249068,12567.4
948.4402684,11962
952.6251825,12514.6
956.8038212,12265
960.9761955,12728.2
965.1423166,12373.4
969.3021953,12508.6
973.4558427,12378.6
977.6032699,12244.6
981.7444877,12367.6
985.8795072,12211.4
990.0083394,12220.2
994.1309953,12082.6
998.2474857,12366
1002.357822,11768.8
1006.462014,12210.8
1010.560075,12020.4
1014.652013,12190.2
1018.737841,12388.8
1022.81757,12008.6
1026.891209,12077
1030.958771,12060.6
1035.020266,12226
1039.075705,12006.6
1043.1251,11723.8
1047.16846,11840.6
1051.205797,11877.8
1055.237121,11789.8
1059.262444,11815
1063.281777,11807.4
1067.295131,12195.2
1071.302515,13435.6
1075.303942,13477.8
1079.299422,14101.2
1083.288966,13277.8
1087.272585,12544
1091.250289,12125.2
1095.222091,12056.8
1099.187999,11719
1103.148026,11836.8
1107.102183,11699.6
1111.050479,11824
1114.992927,11794.8
1118.929536,11653.2
1122.860318,11938
1126.785283,11652.4
1130.704443,11618.6
1134.617808,12253.6
1138.52539,12281
1142.427198,12177.6
1146.323244,12140
1150.213538,11815.4
1154.098093,12026.6
1157.976917,11663.4
1161.850023,11561.4
1165.717421,12066
1169.579121,11859
1173.435135,12152.2
1177.285474,11642.2
1181.130148,11792.6
1184.969169,12046
1188.802547,11809.4
1192.630292,11447.2
1196.452416,11275.8
1200.26893,11325.4
1204.079844,11165.4
1207.88517,10887.8
1211.684917,11388.2
1215.479098,11064.4
1219.267722,12213.4
1223.050801,11113
1226.828346,11208.8
1230.600366,11405.6
1234.366874,11498
1238.12788,11285.4
1241.883395,11378.4
1245.633429,11470.4
1249.377994,11530
1253.1171,11018.8
1256.850759,11256.2
1260.578981,11224.2
1264.301776,11254.6
1268.019157,11255.2
1271.731133,11000.8
1275.437715,10882.2
1279.138915,11306.8
1282.834743,11505.6
1286.52521,11176.8
1290.210328,11094.6
1293.890106,11275.4
1297.564555,11521.4
1301.233688,11164.8
1304.897514,11436.4
1308.556044,11569.6
1312.209289,11424.6
1315.857261,11112.2
1319.499969,11219.8
1323.137425,11725.6
1326.769641,11417.8
1330.396626,11799.4
1334.018391,11489.8
1337.634948,11523.6
1341.246307,11433.6
1344.85248,11326
1348.453477,11274.6
1352.049309,11251
1355.639987,11168.6
1359.225522,11484.8
1362.805925,11303.6
1366.381207,11259.8
1369.951379,11400
1373.516452,11426.2
1377.076436,11475.2
1380.631343,11388.2
1384.181184,11238.2
1387.725969,11417.2
1391.26571,11102.2
1394.800417,11082.6
1398.330102,11139.4
1401.854776,11259.8
1405.374448,11175
1408.889132,10804.2
1412.398837,10595.2
1415.903574,10827.2
1419.403355,11252.6
1422.89819,11035.8
1426.388091,11008.2
1429.873069,11384
1433.353134,10859.8
1436.828298,11012.2
1440.298571,10983
1443.763965,10731.6
1447.224491,10670
1450.68016,10616.2
1454.130983,10999.4
1457.576971,10863.4
1461.018135,10933.2
1464.454486,11002.6
1467.886036,10735.6
1471.312794,10795.2
1474.734774,10535
1478.151985,10993.6
1481.564439,10774
1484.972146,10710.6
1488.375119,10501.2
1491.773368,10745
1495.166904,11161.6
1498.555739,10613.4
1501.939883,10670
1505.319349,10419
1508.694146,10777.4
1512.064286,10646.6
1515.429781,10629
1518.790642,10594.4
1522.146879,10579.2
1525.498505,10284.2
1528.845529,10353.6
1532.187965,10920.6
1535.525822,10518.6
1538.859112,10577.4
1542.187846,11000.4
1545.512036,10304.2
1548.831693,11316.4
1552.146829,10933
1555.457453,10317.6
1558.763579,10176.2
1562.065216,10663.8
1565.362377,10851
1568.655073,11068
1571.943315,10982.8
1575.227114,11057.8
1578.506482,11080.8
1581.781431,11536.8
1585.051971,11232.6
1588.318114,11280.2
1591.579872,11143.6
1594.837255,10903.8
1598.090275,10604
1601.338945,10496.2
1604.583274,10648.6
1607.823275,10416
1611.058959,10138.6
1614.290338,10887.6
1617.517422,10055.2
1620.740224,10266.4
1623.958755,10009.4
1627.173027,10072
1630.38305,9832.4
1633.588838,10104
1636.7904,9873.4
1639.987749,10011
1643.180896,10140.8
1646.369853,9723.2
1649.554632,10290.6
1652.735244,9803.6
1655.9117,9596
1659.084013,9897.4
1662.252193,10206
1665.416254,9619
1668.576205,9828
1671.732059,10019
1674.883828,9999
1678.031523,9639
1681.175157,9715.6
1684.314739,9683.2
1687.450284,9639.4
1690.581801,9508.2
1693.709304,9441.6
1696.832803,9496.6
1699.952311,9634.6
1703.067839,9648.8
1706.179399,9487.8
1709.287003,9723
1712.390663,9603
1715.49039,9502.4
1718.586197,9798.6
1721.678095,9683
1724.766096,9672.2
1727.850213,9261.6
1730.930456,9562.2
1734.006838,9331.4
1737.079372,9603.8
1740.148067,9292.6
1743.212938,10076.4
1746.273996,9527.4
1749.331252,9496.6
1752.384718,9520.6
1755.434408,9646.8
1758.480332,9572.6
1761.522503,9641.4
1764.560933,9464.4
1767.595634,9192.4
1770.626618,9614.6
1773.653896,9681.6
1776.677482,9422.2
1779.697388,9409.2
1782.713625,9760.2
1785.726205,9714.2
1788.735141,9751
1791.740445,9326.2
1794.742129,9331.6
1797.740206,9613.6
1800.734687,9747.8
1803.725585,9654.6
1806.712912,9565.4
1809.69668,9327
1812.676902,9427
1815.65359,9183.4
1818.626756,9255.8
1821.596413,9416.2
1824.562573,9187.2
1827.525247,9368.8
1830.48445,9307.4
1833.440192,9313.8
1836.392487,9330.2
1839.341347,9501.4
1842.286784,9475.4
1845.22881,9076
1848.167439,9432.2
1851.102682,9297.8
1854.034553,9309
1856.963063,9221.6
1859.888226,9853
1862.810053,9486
1865.728557,9370.8
1868.643751,9166.2
1871.555648,9213.6
1874.46426,8999.6
1877.369599,9450.8
1880.271679,9298.8
1883.170512,9161.6
1886.06611,9482
1888.958487,9241.8
1891.847655,9225.8
1894.733626,9331.8
1897.616414,9401
1900.496032,9102.4
1903.372491,9327.2
1906.245805,9438.8
1909.115987,9642.6
1911.983049,9472.4
1914.847004,9437.6
1917.707866,9651
1920.565646,9460
1923.420359,9253.6
1926.272016,9483.4
1929.120631,9252.2
1931.966216,9294.8
1934.808786,9297.2
1937.648351,9522.4
1940.484927,9432.8
1943.318525,9414.2
1946.149158,9624.2
1948.97684,10310.8
1951.801584,9608
1954.623403,9606.2
1957.44231,9511.6
1960.258318,9188.8
1963.071439,9254.4
1965.881688,9363
1968.689078,9424.8
1971.493621,9221.2
