Ramanshift[cm-1],Intensity
-93.47115107,10731.4
-87.69374369,9914.6
-81.9253076,9868.2
-76.16582701,9822.4
-70.41528615,9898.6
-64.67366933,9686
-58.94096086,9714
-53.21714512,9885
-47.50220652,9968.8
-41.79612954,9995.4
-36.09889866,10182.4
-30.41049843,10364.6
-24.73091343,10075
-19.0601283,10167.8
-13.39812769,9956.8
-7.744896327,9759.8
-2.100418946,9661
3.535319659,10087.2
9.162334658,9695.6
14.78064118,9919.6
20.39025432,9694
25.99118913,9660
31.58346061,10140.4
37.16708375,9943.4
42.74207347,9666.6
48.30844468,9634.8
53.86621222,9616.8
59.41539093,9319.2
64.95599558,9373.4
70.48804091,9614.6
76.01154164,9714.4
81.52651243,9281.8
87.03296792,9632.2
92.5309227,9880.6
98.02039134,9406.8
103.5013884,9512
108.9739282,9455
114.4380255,9487.8
119.8936944,9609
125.3409495,10230.2
130.779805,9417
136.2102753,9254.6
141.6323747,9273.8
147.0461174,9807.8
152.4515176,9448
157.8485895,9444
163.2373472,9369.6
168.6178049,9624.4
173.9899766,9785.6
179.3538764,9430
184.7095182,9523.2
190.0569161,9727
195.396084,9778.8
200.7270358,9347.2
206.0497854,9328.2
211.3643466,9170.8
216.6707333,9469.6
221.9689593,9216.4
227.2590382,9446.4
232.5409839,9292.6
237.8148101,9246
243.0805303,9335.8
248.3381582,9315.6
253.5877075,9226.8
258.8291917,9223
264.0626244,9292
269.288019,9497.2
274.5053891,9590.2
279.7147481,9358.4
284.9161094,9172.6
290.1094865,9246.8
295.2948927,9513
300.4723414,10168.6
305.6418459,10446.6
310.8034194,10703.4
315.9570752,11317.6
321.1028267,11480
326.2406869,11510.6
331.370669,11609.8
336.4927863,11594.4
341.6070517,11610.8
346.7134786,11559
351.8120798,11690.6
356.9028684,11470.6
361.9858576,11512
367.0610602,11793
372.1284892,11552.8
377.1881577,11896.8
382.2400784,11852
387.2842644,11991.2
392.3207284,12169.6
397.3494833,12002.6
402.370542,12025.4
407.3839172,11612.8
412.3896217,11336
417.3876683,11102.6
422.3780697,11218.2
427.3608386,11275.2
432.3359876,11507.2
437.3035295,11655.8
442.2634769,11779.2
447.2158423,11263.6
452.1606383,11276
457.0978776,11409.4
462.0275727,10976
466.9497361,11307.6
471.8643802,10839.6
476.7715176,11302.6
481.6711608,11241.2
486.5633221,11467
491.448014,11236.6
496.3252488,11206.8
501.195039,11145.6
506.0573969,11471.8
510.9123349,11187
515.7598651,10896.4
520.6,11218.8
525.4327518,11138.2
530.2581327,11276.6
535.076155,10914
539.8868309,11273.6
544.6901726,11299.2
549.4861922,11125.4
554.2749019,11832.4
559.0563139,11149.8
563.8304402,11003.4
568.597293,11654.8
573.3568844,11360.8
578.1092263,11060.4
582.8543308,11294
587.5922101,11264.8
592.322876,11111.6
597.0463405,11101
601.7626157,11356.8
606.4717135,10981.6
611.1736458,11053
615.8684246,11148
620.5560617,11254.4
625.2365691,11021.2
629.9099585,11348.8
634.5762419,11562
639.2354312,11044
643.887538,11201.8
648.5325743,11008.2
653.1705518,11046
657.8014823,11207.2
662.4253775,10725.2
667.0422493,10910.2
671.6521092,10847.4
676.2549691,11115
680.8508407,11102.8
685.4397355,11101
690.0216654,11076.6
694.5966419,10924.6
699.1646767,11339.2
703.7257814,11081.4
708.2799676,11161.6
712.827247,11179.4
717.367631,11110.6
721.9011314,10924.2
726.4277595,10590
730.9475271,11056.4
735.4604456,10943.6
739.9665264,11402.2
744.4657813,11013.4
748.9582215,10969.4
753.4438587,10633.4
757.9227042,10529.2
762.3947696,10983.2
766.8600662,10699.8
771.3186056,11712.2
775.770399,10879.2
780.215458,11233.2
784.6537939,10629.6
789.0854181,10698.4
793.510342,10786.6
797.9285769,11140.2
802.3401342,10778.8
806.7450253,10930.4
811.1432614,10760.4
815.5348538,10723.2
819.9198139,10505.8
824.2981531,10790
828.6698824,10866.2
833.0350133,10736
837.393557,10542
841.7455248,10783.2
846.0909278,10627.2
850.4297774,10578
854.7620848,10687
859.0878611,10904
863.4071176,10301
867.7198655,10796.6
872.026116,11012.8
876.3258802,11308.4
880.6191693,10934
884.9059946,10964.4
889.186367,11313.2
893.4602979,10426.2
897.7277982,10475
901.9888793,10768
906.2435521,11009.4
910.4918277,10448
914.7337174,10594.4
918.9692321,10482.8
923.1983831,10889.8
927.4211813,10626.2
931.6376378,11158
935.8477637,10814.8
940.0515701,10920.6
944.249068,10889.2
948.4402684,10370.2
952.6251825,11013.4
956.8038212,10634.8
960.9761955,11109.2
965.1423166,10758.8
969.3021953,10802.6
973.4558427,10849.6
977.6032699,10657
981.7444877,10776
985.8795072,10657
990.0083394,10707.6
994.1309953,10481.2
998.2474857,10756
1002.357822,10253
1006.462014,10686.4
1010.560075,10408.4
1014.652013,10680
1018.737841,10931
1022.81757,10577.8
1026.891209,10570
1030.958771,10405.8
1035.020266,10806.4
1039.075705,10605.6
1043.1251,10259.2
1047.16846,10529.8
1051.205797,10501
1055.237121,10303.6
1059.262444,10308.8
1063.281777,10142.8
1067.295131,10179.2
1071.302515,11026
1075.303942,10673.6
1079.299422,11349
1083.288966,10943.2
1087.272585,10721.4
1091.250289,10570.6
1095.222091,10731.8
1099.187999,10481
1103.148026,10581.8
1107.102183,10451.8
1111.050479,10620.8
1114.992927,10520.4
1118.929536,10463
1122.860318,10763.2
1126.785283,10269.2
1130.704443,10207.8
1134.617808,10762.6
1138.52539,10667.8
1142.427198,10630.4
1146.323244,10694
1150.213538,10422.2
1154.098093,10761.8
1157.976917,10291.6
1161.850023,10260.2
1165.717421,10614.2
1169.579121,10387.2
1173.435135,10707
1177.285474,10066.6
1181.130148,10205
1184.969169,10435.8
1188.802547,10480
1192.630292,10126
1196.452416,10008.6
1200.26893,10136
1204.079844,9938.8
1207.88517,9699.4
1211.684917,10191.8
1215.479098,9863.4
1219.267722,10934.6
1223.050801,9887.6
1226.828346,10015.8
1230.600366,10133.6
1234.366874,10291.6
1238.12788,10116.4
1241.883395,10051.2
1245.633429,10344
1249.377994,10312.8
1253.1171,9667.2
1256.850759,9939.4
1260.578981,9967.6
1264.301776,10073.8
1268.019157,9978.4
1271.731133,9794.8
1275.437715,9627.2
1279.138915,10023.6
1282.834743,10123.4
1286.52521,9978.6
1290.210328,9825.6
1293.890106,9919.2
1297.564555,10232.6
1301.233688,9802.8
1304.897514,10008.4
1308.556044,10141.6
1312.209289,10215.2
1315.857261,9818.8
1319.499969,9778.2
1323.137425,10395.4
1326.769641,10038
1330.396626,10442.6
1334.018391,10018.2
1337.634948,10102.2
1341.246307,9847.4
1344.85248,9916.2
1348.453477,9782.6
1352.049309,9805.4
1355.639987,9771.4
1359.225522,10166
1362.805925,9898.2
1366.381207,9893.2
1369.951379,10060.2
1373.516452,10086.4
1377.076436,10239.2
1380.631343,9978.4
1384.181184,9889.6
1387.725969,10122.2
1391.26571,9754.8
1394.800417,9747
1398.330102,9769.4
1401.854776,10020.4
1405.374448,9898.2
1408.889132,9578.4
1412.398837,9336
1415.903574,9602.4
1419.403355,10122.4
1422.89819,9766
1426.388091,9769.4
1429.873069,10094
1433.353134,9714.6
1436.828298,9755.4
1440.298571,9896.8
1443.763965,9691.8
1447.224491,9569.4
1450.68016,9643.4
1454.130983,9932.8
1457.576971,9941.6
1461.018135,9968.6
1464.454486,10133.4
1467.886036,9737.4
1471.312794,9816.8
1474.734774,9605.6
1478.151985,9946.4
1481.564439,9879.6
1484.972146,9920.6
1488.375119,9549.8
1491.773368,9887.4
1495.166904,10355.2
1498.555739,9823.4
1501.939883,9837
1505.319349,9511
1508.694146,9821.2
1512.064286,9907.6
1515.429781,9782
1518.790642,9655
1522.146879,9753.6
1525.498505,9456.4
1528.845529,9511.8
1532.187965,10082.6
1535.525822,9711.6
1538.859112,9761.4
1542.187846,10100.4
1545.512036,9478
1548.831693,10375.4
1552.146829,9973.8
1555.457453,9437.2
1558.763579,9311.2
1562.065216,9617.4
1565.362377,9776.6
1568.655073,10039.2
1571.943315,9895.2
1575.227114,9814.2
1578.506482,9711.4
1581.781431,10139.2
1585.051971,9854
1588.318114,9944.6
1591.579872,9917.4
1594.837255,9758
1598.090275,9651.8
1601.338945,9694.2
1604.583274,9947
1607.823275,9684.6
1611.058959,9388.2
1614.290338,10236.8
1617.517422,9380.6
1620.740224,9600.2
1623.958755,9312.8
1627.173027,9416.8
1630.38305,9216.6
1633.588838,9562
1636.7904,9447.8
1639.987749,9519
1643.180896,9706.2
1646.369853,9262.6
1649.554632,9839
1652.735244,9444.4
1655.9117,9149.2
1659.084013,9401.6
1662.252193,9803.4
1665.416254,9206.6
1668.576205,9421
1671.732059,9646.4
1674.883828,9677
1678.031523,9285.2
1681.175157,9431.2
1684.314739,9428.6
1687.450284,9412
1690.581801,9311
1693.709304,9231.6
1696.832803,9215.4
1699.952311,9387.2
1703.067839,9446.8
1706.179399,9417.2
1709.287003,9651.8
1712.390663,9391
1715.49039,9368.8
1718.586197,9632.6
1721.678095,9522
1724.766096,9511.4
1727.850213,9154
1730.930456,9452
1734.006838,9309.8
1737.079372,9492.8
1740.148067,9174.2
1743.212938,10049.2
1746.273996,9437.2
1749.331252,9400
1752.384718,9434.2
1755.434408,9387.2
1758.480332,9406
1761.522503,9561.4
1764.560933,9324
1767.595634,9064.8
1770.626618,9650.4
1773.653896,9511
1776.677482,9339.6
1779.697388,9344.2
1782.713625,9677.6
1785.726205,9635
1788.735141,9664.6
1791.740445,9279.8
1794.742129,9271.8
1797.740206,9687.8
1800.734687,9623.4
1803.725585,9545.4
1806.712912,9463.4
1809.69668,9263.8
1812.676902,9428.2
1815.65359,9117
1818.626756,9276.4
1821.596413,9339
1824.562573,9100.6
1827.525247,9303.2
1830.48445,9106.2
1833.440192,9262
1836.392487,9267.8
1839.341347,9402.2
1842.286784,9359.6
1845.22881,9082
1848.167439,9428
1851.102682,9279.4
1854.034553,9275.8
1856.963063,9160.8
1859.888226,9755
1862.810053,9467.4
1865.728557,9275
1868.643751,9066
1871.555648,9058.6
1874.46426,8939.8
1877.369599,9279.4
1880.271679,9252.6
1883.170512,9135.8
1886.06611,9432.6
1888.958487,9209.8
1891.847655,9170
1894.733626,9290.4
1897.616414,9429
1900.496032,9026
1903.372491,9272.4
1906.245805,9498.8
1909.115987,9525
1911.983049,9510.4
1914.847004,9403.6
1917.707866,9566.6
1920.565646,9493.6
1923.420359,9189
1926.272016,9478.8
1929.120631,9256.8
1931.966216,9295
1934.808786,9289
1937.648351,9430.2
1940.484927,9444.2
1943.318525,9476.2
1946.149158,9564
1948.97684,10375.8
1951.801584,9580.6
1954.623403,9459.2
1957.44231,9544.8
1960.258318,9183.2
1963.071439,9163.4
1965.881688,9352
1968.689078,9392.8
1971.493621,9226.8
