Ramanshift[cm-1],Intensity
-93.47115107,10580
-87.69374369,9710.6
-81.9253076,9627.2
-76.16582701,9656
-70.41528615,9656.6
-64.67366933,9540.8
-58.94096086,9521.2
-53.21714512,9718.8
-47.50220652,9767.6
-41.79612954,9732.4
-36.09889866,10011.4
-30.41049843,10130
-24.73091343,9936.6
-19.0601283,9920.4
-13.39812769,9804
-7.744896327,9477
-2.100418946,9458
3.535319659,9970.2
9.162334658,9421.8
14.78064118,9743
20.39025432,9510
25.99118913,9481.4
31.58346061,9836.8
37.16708375,9715.4
42.74207347,9444.2
48.30844468,9493
53.86621222,9498.2
59.41539093,9178
64.95599558,9272
70.48804091,9342.6
76.01154164,9526.8
81.52651243,9199.8
87.03296792,9447.4
92.5309227,9697.8
98.02039134,9199
103.5013884,9445
108.9739282,9287.8
114.4380255,9253
119.8936944,9441.2
125.3409495,10017
130.779805,9223.4
136.2102753,9100.4
141.6323747,9084
147.0461174,9490.2
152.4515176,9329.4
157.8485895,9211.8
163.2373472,9202.4
168.6178049,9451
173.9899766,9485.8
179.3538764,9241.2
184.7095182,9256.4
190.0569161,9476.4
195.396084,9544.4
200.7270358,9149.8
206.0497854,9243.4
211.3643466,8937.8
216.6707333,9368.8
221.9689593,9080.4
227.2590382,9151.6
232.5409839,9180.8
237.8148101,9031
243.0805303,9171.2
248.3381582,9171.6
253.5877075,8961.4
258.8291917,9118.6
264.0626244,9180.8
269.288019,9235.6
274.5053891,9403.4
279.7147481,9172.2
284.9161094,9044.6
290.1094865,9099.6
295.2948927,9384.8
300.4723414,10127.8
305.6418459,10390.4
310.8034194,10821.6
315.9570752,11418.8
321.1028267,11539.6
326.2406869,11668.8
331.370669,11649.8
336.4927863,11712.2
341.6070517,11849.8
346.7134786,11685.4
351.8120798,11950.6
356.9028684,11748.6
361.9858576,11770.6
367.0610602,11881.4
372.1284892,11807.4
377.1881577,12122
382.2400784,12256.2
387.2842644,12555.8
392.3207284,12949.6
397.3494833,12587.8
402.370542,12512.6
407.3839172,11985.2
412.3896217,11726.8
417.3876683,11315.8
422.3780697,11508.4
427.3608386,11524.6
432.3359876,11720.2
437.3035295,11825.2
442.2634769,11892.8
447.2158423,11440.6
452.1606383,11443.6
457.0978776,11542.6
462.0275727,11117.8
466.9497361,11440.4
471.8643802,11029
476.7715176,11391.6
481.6711608,11492.8
486.5633221,11605.2
491.448014,11409.8
496.3252488,11293.4
501.195039,11308.6
506.0573969,11524
510.9123349,11403.8
515.7598651,10939.6
520.6,11367.6
525.4327518,11357.4
530.2581327,11411
535.076155,11008.2
539.8868309,11289.4
544.6901726,11396.2
549.4861922,11217.8
554.2749019,11891.2
559.0563139,11201.6
563.8304402,10962.4
568.597293,11730
573.3568844,11531
578.1092263,11260.2
582.8543308,11510.6
587.5922101,11434.8
592.322876,11201
597.0463405,11339
601.7626157,11512.2
606.4717135,11192.8
611.1736458,11227
615.8684246,11179.6
620.5560617,11450.6
625.2365691,11165
629.9099585,11471
634.5762419,11627
639.2354312,11196.6
643.887538,11404.2
648.5325743,11148.2
653.1705518,11096.8
657.8014823,11234.2
662.4253775,10749.4
667.0422493,11063.8
671.6521092,11027.6
676.2549691,11225.4
680.8508407,11123.6
685.4397355,11022.8
690.0216654,11118.4
694.5966419,11090.2
699.1646767,11415.8
703.7257814,11147.2
708.2799676,11231.8
712.827247,11189.8
717.367631,11213.8
721.9011314,11169.8
726.4277595,10599.8
730.9475271,11146.2
735.4604456,11125.6
739.9665264,11375
744.4657813,11055.4
748.9582215,11016.2
753.4438587,10707.4
757.9227042,10663.6
762.3947696,11035
766.8600662,10709.8
771.3186056,11745.6
775.770399,10989.4
780.215458,11309
784.6537939,10763
789.0854181,10685
793.510342,10818.2
797.9285769,11127.8
802.3401342,10873.2
806.7450253,10930
811.1432614,10851.4
815.5348538,10735.8
819.9198139,10666.2
824.2981531,10767.6
828.6698824,10930.2
833.0350133,10726.6
837.393557,10538.2
841.7455248,10814.8
846.0909278,10645
850.4297774,10654.8
854.7620848,10663.8
859.0878611,10844.6
863.4071176,10372.6
867.7198655,10757.2
872.026116,10970.2
876.3258802,11320.4
880.6191693,10905.6
884.9059946,10984.8
889.186367,11197.4
893.4602979,10530.6
897.7277982,10491.4
901.9888793,10806.8
906.2435521,10949
910.4918277,10569.2
914.7337174,10574.6
918.9692321,10464.8
923.1983831,10888.2
927.4211813,10704.2
931.6376378,11165.6
935.8477637,10744.4
940.0515701,10851.8
944.249068,10899.4
948.4402684,10389.8
952.6251825,10959.6
956.8038212,10670.2
960.9761955,11129
965.1423166,10735.6
969.3021953,10891.6
973.4558427,10794.6
977.6032699,10622.2
981.7444877,10702.8
985.8795072,10697.4
990.0083394,10744.8
994.1309953,10491.4
998.2474857,10789.6
1002.357822,10294.4
1006.462014,10616.4
1010.560075,10480.6
1014.652013,10761
1018.737841,10999.6
1022.81757,10542.8
1026.891209,10557
1030.958771,10373.8
1035.020266,10702.2
1039.075705,10484.8
1043.1251,10311.4
1047.16846,10510
1051.205797,10418
1055.237121,10247.2
1059.262444,10195.8
1063.281777,10124.2
1067.295131,10119.4
1071.302515,10979.8
1075.303942,10741.4
1079.299422,11502
1083.288966,10958
1087.272585,10743.8
1091.250289,10574
1095.222091,10637.4
1099.187999,10387.8
1103.148026,10544.6
1107.102183,10349
1111.050479,10550.8
1114.992927,10392.6
1118.929536,10324.2
1122.860318,10600.8
1126.785283,10130.4
1130.704443,10003.4
1134.617808,10654
1138.52539,10541.8
1142.427198,10457
1146.323244,10536.4
1150.213538,10332.6
1154.098093,10508.4
1157.976917,10193.8
1161.850023,10169
1165.717421,10548.6
1169.579121,10252.2
1173.435135,10489.2
1177.285474,9969.2
1181.130148,10126.4
1184.969169,10381.4
1188.802547,10308
1192.630292,9974
1196.452416,9907
1200.26893,10062.2
1204.079844,9832
1207.88517,9573.2
1211.684917,10033.8
1215.479098,9712.2
1219.267722,10736
1223.050801,9807.8
1226.828346,9855.8
1230.600366,9954.6
1234.366874,10067.2
1238.12788,9917
1241.883395,9917
1245.633429,10149.6
1249.377994,10183.4
1253.1171,9532
1256.850759,9815.2
1260.578981,9840.6
1264.301776,9890.2
1268.019157,9793.8
1271.731133,9574.6
1275.437715,9458.4
1279.138915,9895.6
1282.834743,10068.6
1286.52521,9729.4
1290.210328,9674.6
1293.890106,9726
1297.564555,10089.4
1301.233688,9567.2
1304.897514,9940.8
1308.556044,9939.4
1312.209289,9972.4
1315.857261,9648.2
1319.499969,9691.6
1323.137425,10220.2
1326.769641,9881.2
1330.396626,10232.4
1334.018391,9856.2
1337.634948,9942
1341.246307,9779.2
1344.85248,9651.6
1348.453477,9604.6
1352.049309,9572
1355.639987,9630.6
1359.225522,9974.4
1362.805925,9778.8
1366.381207,9764.6
1369.951379,9785.2
1373.516452,9883.6
1377.076436,10013.8
1380.631343,9790.8
1384.181184,9634.8
1387.725969,9750.8
1391.26571,9573
1394.800417,9469.2
1398.330102,9605.2
1401.854776,9759.2
1405.374448,9725.8
1408.889132,9434.8
1412.398837,9126.2
1415.903574,9424.2
1419.403355,9866
1422.89819,9578.6
1426.388091,9509.2
1429.873069,9875.2
1433.353134,9474.4
1436.828298,9540.4
1440.298571,9659.2
1443.763965,9391.6
1447.224491,9441
1450.68016,9468
1454.130983,9715
1457.576971,9687.6
1461.018135,9807.2
1464.454486,9848
1467.886036,9537.2
1471.312794,9601.6
1474.734774,9374.6
1478.151985,9886.4
1481.564439,9732.8
1484.972146,9692.6
1488.375119,9449
1491.773368,9672.8
1495.166904,10043.4
1498.555739,9648.2
1501.939883,9696.6
1505.319349,9302.4
1508.694146,9659.6
1512.064286,9625.4
1515.429781,9562.4
1518.790642,9446.2
1522.146879,9591.8
1525.498505,9309.8
1528.845529,9268.2
1532.187965,9810.4
1535.525822,9428.8
1538.859112,9588.8
1542.187846,9962.4
1545.512036,9208.2
1548.831693,10322.2
1552.146829,9817.8
1555.457453,9321.6
1558.763579,9043.6
1562.065216,9463.8
1565.362377,9573.4
1568.655073,9725.8
1571.943315,9642.2
1575.227114,9646.2
1578.506482,9648
1581.781431,9984.4
1585.051971,9694.2
1588.318114,9842
1591.579872,9824
1594.837255,9658.8
1598.090275,9528.2
1601.338945,9478.2
1604.583274,9759.8
1607.823275,9486.6
1611.058959,9253.2
1614.290338,10037.4
1617.517422,9192.6
1620.740224,9492
1623.958755,9225.8
1627.173027,9244.8
1630.38305,8979.8
1633.588838,9374
1636.7904,9211.6
1639.987749,9325
1643.180896,9428.6
1646.369853,9081.8
1649.554632,9553.6
1652.735244,9159.8
1655.9117,8955.6
1659.084013,9167
1662.252193,9705
1665.416254,9051.2
1668.576205,9309.6
1671.732059,9403.6
1674.883828,9456.4
1678.031523,9110
1681.175157,9229.6
1684.314739,9242.4
1687.450284,9226.2
1690.581801,9067
1693.709304,9001.4
1696.832803,9052.6
1699.952311,9175.8
1703.067839,9234.6
1706.179399,9144.4
1709.287003,9471.4
1712.390663,9216
1715.49039,9196.6
1718.586197,9530.8
1721.678095,9400
1724.766096,9322.8
1727.850213,8906.8
1730.930456,9143
1734.006838,8982.8
1737.079372,9317.4
1740.148067,9056.6
1743.212938,9728.4
1746.273996,9207.6
1749.331252,9186.8
1752.384718,9278.6
1755.434408,9162
1758.480332,9200
1761.522503,9306
1764.560933,9145
1767.595634,8912
1770.626618,9339.4
1773.653896,9389.6
1776.677482,9133.6
1779.697388,9138.2
1782.713625,9543.8
1785.726205,9344.8
1788.735141,9464.4
1791.740445,9037
1794.742129,9066
1797.740206,9421.6
1800.734687,9405
1803.725585,9296
1806.712912,9308.2
1809.69668,9131.4
1812.676902,9166
1815.65359,8941
1818.626756,9064
1821.596413,9152
1824.562573,8928.6
1827.525247,9132.2
1830.48445,8919.8
1833.440192,9091.6
1836.392487,9055.4
1839.341347,9192.6
1842.286784,9173.2
1845.22881,8823.6
1848.167439,9321.2
1851.102682,9145.8
1854.034553,9068.2
1856.963063,8965.6
1859.888226,9606
1862.810053,9261
1865.728557,9081.2
1868.643751,8888.2
1871.555648,8874.6
1874.46426,8771.6
1877.369599,9187.4
1880.271679,9123.8
1883.170512,8967.6
1886.06611,9307.4
1888.958487,9031.8
1891.847655,9045
1894.733626,9192.6
1897.616414,9200.8
1900.496032,8890.4
1903.372491,9103.8
1906.245805,9225
1909.115987,9283.6
1911.983049,9247.2
1914.847004,9167.8
1917.707866,9339
1920.565646,9306.4
1923.420359,9009.8
1926.272016,9212.4
1929.120631,9079
1931.966216,9064.4
1934.808786,9058.8
1937.648351,9241
1940.484927,9238
1943.318525,9209.2
1946.149158,9429.4
1948.97684,10091.6
1951.801584,9338.8
1954.623403,9222.4
1957.44231,9359.2
1960.258318,9018.6
1963.071439,8994
1965.881688,9145.6
1968.689078,9226.4
1971.493621,9074
