Ramanshift[cm-1],Intensity
-93.47115107,10715.2
-87.69374369,9931
-81.9253076,9790.2
-76.16582701,9770.2
-70.41528615,9893.4
-64.67366933,9730.2
-58.94096086,9623
-53.21714512,9812.2
-47.50220652,10003.8
-41.79612954,9904.4
-36.09889866,10204.2
-30.41049843,10402.6
-24.73091343,10013
-19.0601283,10101.4
-13.39812769,9969.8
-7.744896327,9806
-2.100418946,9614.2
3.535319659,10133
9.162334658,9719.8
14.78064118,9862.6
20.39025432,9715.4
25.99118913,9664.8
31.58346061,10031.2
37.16708375,9834
42.74207347,9635.8
48.30844468,9691.2
53.86621222,9560
59.41539093,9368.8
64.95599558,9375.8
70.48804091,9612.2
76.01154164,9635.8
81.52651243,9318
87.03296792,9575.4
92.5309227,9805.2
98.02039134,9319.6
103.5013884,9550.8
108.9739282,9402.8
114.4380255,9460.2
119.8936944,9595
125.3409495,10247.2
130.779805,9388.2
136.2102753,9286.8
141.6323747,9306
147.0461174,9646.2
152.4515176,9448.6
157.8485895,9433.4
163.2373472,9364.6
168.6178049,9581.8
173.9899766,9746
179.3538764,9486.8
184.7095182,9543.8
190.0569161,9639.2
195.396084,9802
200.7270358,9330.2
206.0497854,9384.6
211.3643466,9138.2
216.6707333,9481.8
221.9689593,9180.6
227.2590382,9373.2
232.5409839,9411.2
237.8148101,9201.6
243.0805303,9340.8
248.3381582,9269
253.5877075,9126.6
258.8291917,9236.6
264.0626244,9359.6
269.288019,9470
274.5053891,9572.4
279.7147481,9363.4
284.9161094,9259.4
290.1094865,9524
295.2948927,10475.2
300.4723414,12813
305.6418459,15378.8
310.8034194,18028
315.9570752,19643
321.1028267,20112.2
326.2406869,20167.8
331.370669,20510.8
336.4927863,20821.2
341.6070517,20968.6
346.7134786,21011.2
351.8120798,21285.8
356.9028684,21422
361.9858576,21302.8
367.0610602,21283.4
372.1284892,21196.4
377.1881577,21420.2
382.2400784,21494.2
387.2842644,22018
392.3207284,22459.8
397.3494833,22018.2
402.370542,21896.8
407.3839172,21406.6
412.3896217,21030.8
417.3876683,20590.6
422.3780697,20586.4
427.3608386,20501.2
432.3359876,20607.8
437.3035295,20707.2
442.2634769,20741.6
447.2158423,20261.2
452.1606383,20263.6
457.0978776,20409.6
462.0275727,19864.6
466.9497361,20209.8
471.8643802,19883.2
476.7715176,20257.2
481.6711608,20291.8
486.5633221,20459
491.448014,20159.6
496.3252488,20161
501.195039,20096.8
506.0573969,20166.6
510.9123349,19937.6
515.7598651,19387.4
520.6,19656.8
525.4327518,19618.6
530.2581327,19588.8
535.076155,19118.2
539.8868309,19486.6
544.6901726,19446.6
549.4861922,19078.2
554.2749019,19832.2
559.0563139,19220.2
563.8304402,18924.8
568.597293,19645
573.3568844,19475.4
578.1092263,19296.6
582.8543308,19751.6
587.5922101,19712.4
592.322876,19409.6
597.0463405,19293
601.7626157,19563.6
606.4717135,19132.4
611.1736458,19074.4
615.8684246,19061.8
620.5560617,19408.2
625.2365691,19007.6
629.9099585,19252
634.5762419,19419.4
639.2354312,18938.2
643.887538,19068.6
648.5325743,18830
653.1705518,18967.8
657.8014823,18844.2
662.4253775,18383.2
667.0422493,18604.6
671.6521092,18644.2
676.2549691,18751
680.8508407,18753.4
685.4397355,18488.8
690.0216654,18589.4
694.5966419,18414.4
699.1646767,18954.6
703.7257814,18612.8
708.2799676,18648.8
712.827247,18738.4
717.367631,18494.2
721.9011314,18359.8
726.4277595,18021.8
730.9475271,18632.2
735.4604456,18253.2
739.9665264,18577.8
744.4657813,18275.4
748.9582215,18056.6
753.4438587,17770.8
757.9227042,17711.8
762.3947696,17899.2
766.8600662,17526.2
771.3186056,18595.2
775.770399,17648
780.215458,17846.4
784.6537939,17315
789.0854181,17233.8
793.510342,17146.8
797.9285769,17532
802.3401342,17070.2
806.7450253,17270.6
811.1432614,17041.2
815.5348538,16965.2
819.9198139,16672.6
824.2981531,16894.8
828.6698824,16944.4
833.0350133,16630.4
837.393557,16474.8
841.7455248,16671
846.0909278,16543.6
850.4297774,16514
854.7620848,16490.4
859.0878611,16637.6
863.4071176,16239.6
867.7198655,16643.6
872.026116,16726.2
876.3258802,17126.2
880.6191693,16886.8
884.9059946,16751.8
889.186367,17085.4
893.4602979,16100.8
897.7277982,16048.8
901.9888793,16525.8
906.2435521,16757
910.4918277,16319.4
914.7337174,16280
918.9692321,16223.4
923.1983831,16574.6
927.4211813,16226.4
931.6376378,16925.8
935.8477637,16526.2
940.0515701,16756.6
944.249068,16740
948.4402684,16082.6
952.6251825,16674.2
956.8038212,16436.4
960.9761955,16819.2
965.1423166,16570.8
969.3021953,16630.8
973.4558427,16530.8
977.6032699,16423.2
981.7444877,16340.2
985.8795072,16387.6
990.0083394,16340.6
994.1309953,16231.4
998.2474857,16574.4
1002.357822,15795
1006.462014,16279.4
1010.560075,16066.2
1014.652013,16221.2
1018.737841,16610.6
1022.81757,16115.4
1026.891209,16009.2
1030.958771,15976.2
1035.020266,16062
1039.075705,15979.8
1043.1251,15758
1047.16846,16006
1051.205797,15911.8
1055.237121,15760
1059.262444,15812.6
1063.281777,15571.4
1067.295131,15690
1071.302515,16760.2
1075.303942,16627
1079.299422,17170.6
1083.288966,16688.6
1087.272585,16220.2
1091.250289,16199.8
1095.222091,16202.6
1099.187999,15725.8
1103.148026,15948.8
1107.102183,15815.8
1111.050479,16015
1114.992927,15949.6
1118.929536,15902.2
1122.860318,16227
1126.785283,15599
1130.704443,15634.6
1134.617808,16224.8
1138.52539,16157.6
1142.427198,16188.4
1146.323244,16158
1150.213538,15902
1154.098093,16378.6
1157.976917,15753.8
1161.850023,15815.4
1165.717421,16170.2
1169.579121,16046.4
1173.435135,16182.4
1177.285474,15627
1181.130148,15737.4
1184.969169,16006.2
1188.802547,15774.6
1192.630292,15451.2
1196.452416,15266.8
1200.26893,15480.2
1204.079844,15179.4
1207.88517,15067.8
1211.684917,15501.6
1215.479098,15036.8
1219.267722,16398.8
1223.050801,15207.2
1226.828346,15300.8
1230.600366,15389
1234.366874,15475.2
1238.12788,15285.2
1241.883395,15309.6
1245.633429,15549.6
1249.377994,15575.6
1253.1171,15021.8
1256.850759,15230
1260.578981,15301.2
1264.301776,15347.8
1268.019157,15265.8
1271.731133,15073.6
1275.437715,14904.8
1279.138915,15322
1282.834743,15628
1286.52521,15275.2
1290.210328,15108.6
1293.890106,15149.6
1297.564555,15488
1301.233688,14975.8
1304.897514,15342.6
1308.556044,15254.4
1312.209289,15397.6
1315.857261,15000.2
1319.499969,15171.2
1323.137425,15645.2
1326.769641,15087.8
1330.396626,15528.2
1334.018391,15172.8
1337.634948,15261.2
1341.246307,14976.4
1344.85248,14963
1348.453477,14742.6
1352.049309,14750.4
1355.639987,14776.8
1359.225522,15041
1362.805925,14877.2
1366.381207,14806.2
1369.951379,14960.2
1373.516452,14982.8
1377.076436,15048.4
1380.631343,14783.8
1384.181184,14677.6
1387.725969,14842.2
1391.26571,14570.4
1394.800417,14482
1398.330102,14531.2
1401.854776,14777
1405.374448,14477
1408.889132,14324
1412.398837,13970
1415.903574,14218
1419.403355,14660.2
1422.89819,14361
1426.388091,14226
1429.873069,14626.2
1433.353134,14222.6
1436.828298,14252.2
1440.298571,14390.2
1443.763965,14071
1447.224491,13977.4
1450.68016,13893.8
1454.130983,14336.6
1457.576971,14241.8
1461.018135,14304.6
1464.454486,14363.6
1467.886036,13988
1471.312794,14018.4
1474.734774,13837.6
1478.151985,14314.4
1481.564439,14069.8
1484.972146,13947.2
1488.375119,13723.6
1491.773368,13930.2
1495.166904,14344.8
1498.555739,13867.4
1501.939883,13790.6
1505.319349,13446.6
1508.694146,13726
1512.064286,13808.2
1515.429781,13780.4
1518.790642,13628.8
1522.146879,13677.2
1525.498505,13355.8
1528.845529,13307.2
1532.187965,13870.8
1535.525822,13452.6
1538.859112,13421.2
1542.187846,13801.6
1545.512036,13313.4
1548.831693,14142.6
1552.146829,13778.8
1555.457453,13116
1558.763579,12987
1562.065216,13152.4
1565.362377,13377.8
1568.655073,13517.6
1571.943315,13431.8
1575.227114,13345
1578.506482,13357
1581.781431,13674.4
1585.051971,13419
1588.318114,13247.6
1591.579872,13247
1594.837255,12907
1598.090275,12852.8
1601.338945,12666.4
1604.583274,13020.2
1607.823275,12616
1611.058959,12292.2
1614.290338,13031.6
1617.517422,12144.4
1620.740224,12344.4
1623.958755,12110
1627.173027,12041.8
1630.38305,11757.8
1633.588838,11984.8
1636.7904,11881
1639.987749,11907.2
1643.180896,11995.6
1646.369853,11537.2
1649.554632,12153.6
1652.735244,11623.8
1655.9117,11400.2
1659.084013,11579.8
1662.252193,12023.4
1665.416254,11284.2
1668.576205,11590.8
1671.732059,11603.2
1674.883828,11728.2
1678.031523,11287.2
1681.175157,11374.4
1684.314739,11369
1687.450284,11367.2
1690.581801,11226.8
1693.709304,11074
1696.832803,11154.6
1699.952311,11203
1703.067839,11268
1706.179399,11133.4
1709.287003,11466.8
1712.390663,11174.2
1715.49039,11133.8
1718.586197,11329
1721.678095,11406.6
1724.766096,11289
1727.850213,10846
1730.930456,11033.8
1734.006838,10999
1737.079372,11159.6
1740.148067,10847.4
1743.212938,11672
1746.273996,11030.2
1749.331252,10957.6
1752.384718,11010.4
1755.434408,11005.6
1758.480332,11050.6
1761.522503,11096.4
1764.560933,10851.6
1767.595634,10562.6
1770.626618,11065.6
1773.653896,11021.2
1776.677482,10818.8
1779.697388,10708.2
1782.713625,11118.8
1785.726205,11083
1788.735141,11096.2
1791.740445,10729.2
1794.742129,10646
1797.740206,10972.6
1800.734687,11093
1803.725585,10923.6
1806.712912,10946.6
1809.69668,10646.4
1812.676902,10760.4
1815.65359,10493.8
1818.626756,10621.8
1821.596413,10706.6
1824.562573,10417
1827.525247,10686.2
1830.48445,10565.6
1833.440192,10708.4
1836.392487,10592
1839.341347,10712.6
1842.286784,10659.6
1845.22881,10339.6
1848.167439,10704.6
1851.102682,10527
1854.034553,10483.4
1856.963063,10496
1859.888226,11126.8
1862.810053,10726
1865.728557,10594
1868.643751,10326.4
1871.555648,10386.8
1874.46426,10179.4
1877.369599,10632.2
1880.271679,10443.6
1883.170512,10328.4
1886.06611,10659.6
1888.958487,10384.8
1891.847655,10405
1894.733626,10563.4
1897.616414,10629.2
1900.496032,10306.8
1903.372491,10457
1906.245805,10620.8
1909.115987,10723.6
1911.983049,10547.4
1914.847004,10575.2
1917.707866,10722.8
1920.565646,10581.2
1923.420359,10391
1926.272016,10505.8
1929.120631,10390.2
1931.966216,10362.2
1934.808786,10449.8
1937.648351,10603.4
1940.484927,10434.8
1943.318525,10529
1946.149158,10639.6
1948.97684,11416
1951.801584,10632.8
1954.623403,10531.2
1957.44231,10561.6
1960.258318,10283
1963.071439,10304.4
1965.881688,10367
1968.689078,10499.6
1971.493621,10232.4
