Ramanshift[cm-1],Intensity
-93.47115107,10357.6
-87.69374369,9555.6
-81.9253076,9444.8
-76.16582701,9511.4
-70.41528615,9543.6
-64.67366933,9394.2
-58.94096086,9363.4
-53.21714512,9468.6
-47.50220652,9630.2
-41.79612954,9599.4
-36.09889866,9882.8
-30.41049843,10037.6
-24.73091343,9722.8
-19.0601283,9794.2
-13.39812769,9582.4
-7.744896327,9472
-2.100418946,9355
3.535319659,9695.4
9.162334658,9296.2
14.78064118,9522.8
20.39025432,9307
25.99118913,9368.6
31.58346061,9717.2
37.16708375,9470.8
42.74207347,9347.6
48.30844468,9371.6
53.86621222,9265.6
59.41539093,8999
64.95599558,9045.2
70.48804091,9194.2
76.01154164,9319.6
81.52651243,8943.8
87.03296792,9362
92.5309227,9454.8
98.02039134,9036
103.5013884,9225
108.9739282,9159.8
114.4380255,9120.2
119.8936944,9257.4
125.3409495,9842.6
130.779805,9086.2
136.2102753,8908.8
141.6323747,8946.2
147.0461174,9416.4
152.4515176,9082.6
157.8485895,9120.8
163.2373472,8975
168.6178049,9300.6
173.9899766,9411.2
179.3538764,8963.6
184.7095182,9169.8
190.0569161,9385
195.396084,9390.6
200.7270358,8969
206.0497854,9004
211.3643466,8852.2
216.6707333,9118.2
221.9689593,8926
227.2590382,8999.8
232.5409839,8996.2
237.8148101,8963.2
243.0805303,9077.2
248.3381582,8928.4
253.5877075,8843.6
258.8291917,8918
264.0626244,9003.8
269.288019,9089
274.5053891,9308.8
279.7147481,9022.8
284.9161094,8896.2
290.1094865,8947.8
295.2948927,9224.8
300.4723414,10048.6
305.6418459,10354.8
310.8034194,10808.6
315.9570752,11633
321.1028267,11699.6
326.2406869,11758.8
331.370669,11953.6
336.4927863,12081.8
341.6070517,12155.2
346.7134786,12125.8
351.8120798,12350.4
356.9028684,12182.6
361.9858576,12203.6
367.0610602,12631.6
372.1284892,12847.4
377.1881577,14151.2
382.2400784,16202.8
387.2842644,18457.2
392.3207284,18857.6
397.3494833,17094.2
402.370542,15274.8
407.3839172,13725.2
412.3896217,12681.2
417.3876683,12031.4
422.3780697,11882.6
427.3608386,11703.2
432.3359876,11878.4
437.3035295,11965.6
442.2634769,11931.8
447.2158423,11331.4
452.1606383,11342
457.0978776,11611.8
462.0275727,11068
466.9497361,11398.8
471.8643802,11048
476.7715176,11461.6
481.6711608,11545.4
486.5633221,11712.4
491.448014,11617.6
496.3252488,11506.4
501.195039,11485
506.0573969,11697.2
510.9123349,11471.4
515.7598651,11116.6
520.6,11460.8
525.4327518,11354.2
530.2581327,11475.6
535.076155,11044
539.8868309,11401.4
544.6901726,11398.2
549.4861922,11189.2
554.2749019,11757.4
559.0563139,11125.6
563.8304402,10943.2
568.597293,11660.2
573.3568844,11335
578.1092263,11163.8
582.8543308,11524
587.5922101,11293.6
592.322876,11065.2
597.0463405,11161.8
601.7626157,11360.4
606.4717135,11060
611.1736458,11023.2
615.8684246,11192.8
620.5560617,11411.4
625.2365691,11152.2
629.9099585,11757.2
634.5762419,12166
639.2354312,11737
643.887538,11806
648.5325743,11374.6
653.1705518,11307.4
657.8014823,11365.8
662.4253775,10909.2
667.0422493,11059.8
671.6521092,11156.6
676.2549691,11325
680.8508407,11379.6
685.4397355,11213.2
690.0216654,11333.8
694.5966419,11249.2
699.1646767,11687
703.7257814,11494
708.2799676,11541
712.827247,11511
717.367631,11357
721.9011314,11283.2
726.4277595,10755
730.9475271,11233.4
735.4604456,11092.6
739.9665264,11453.6
744.4657813,11069.6
748.9582215,11020.2
753.4438587,10811.6
757.9227042,10741.8
762.3947696,11054
766.8600662,10798
771.3186056,11705.2
775.770399,11033.6
780.215458,11320.2
784.6537939,10885.4
789.0854181,10838
793.510342,10932
797.9285769,11540.8
802.3401342,11168.4
806.7450253,11330.8
811.1432614,11252.8
815.5348538,11201.2
819.9198139,10954.2
824.2981531,11034.8
828.6698824,11046.4
833.0350133,10923
837.393557,10630.2
841.7455248,10847.2
846.0909278,10711.6
850.4297774,10558.2
854.7620848,10669.6
859.0878611,10856.4
863.4071176,10425
867.7198655,10755.4
872.026116,11012.6
876.3258802,11308.4
880.6191693,10886.8
884.9059946,10836.8
889.186367,11271.4
893.4602979,10490.2
897.7277982,10461.8
901.9888793,10835.2
906.2435521,11082.8
910.4918277,10711.8
914.7337174,10714.6
918.9692321,10760.8
923.1983831,11138.8
927.4211813,10874
931.6376378,11482.8
935.8477637,11095.6
940.0515701,11268.8
944.249068,11355.6
948.4402684,10826.6
952.6251825,11409.6
956.8038212,11099
960.9761955,11631.4
965.1423166,11206.4
969.3021953,11342.4
973.4558427,11302
977.6032699,11287
981.7444877,11311.2
985.8795072,11294
990.0083394,11375
994.1309953,11200.4
998.2474857,11786.4
1002.357822,11564.4
1006.462014,12025.6
1010.560075,11365.4
1014.652013,11171.6
1018.737841,11260.6
1022.81757,10743.8
1026.891209,10758.2
1030.958771,10583.2
1035.020266,10887.4
1039.075705,10713.2
1043.1251,10519.2
1047.16846,10710
1051.205797,10844.6
1055.237121,10741.2
1059.262444,11035.2
1063.281777,11425.6
1067.295131,12535.2
1071.302515,15374.8
1075.303942,17125.2
1079.299422,18525.6
1083.288966,16441.6
1087.272585,13708.4
1091.250289,11935.4
1095.222091,11237.2
1099.187999,10641.2
1103.148026,10543.6
1107.102183,10419.6
1111.050479,10610.4
1114.992927,10559.8
1118.929536,10557.8
1122.860318,10846.8
1126.785283,10626.4
1130.704443,10969
1134.617808,11941.4
1138.52539,12343.8
1142.427198,12384.6
1146.323244,11935.6
1150.213538,11294.2
1154.098093,11201.4
1157.976917,10647.8
1161.850023,10638.4
1165.717421,11083.4
1169.579121,10942.6
1173.435135,11242.8
1177.285474,10813.6
1181.130148,10986.8
1184.969169,11171.8
1188.802547,10939.4
1192.630292,10478.2
1196.452416,10171.8
1200.26893,10171.4
1204.079844,9960.6
1207.88517,9584.2
1211.684917,10135.6
1215.479098,9816
1219.267722,10893.4
1223.050801,9939.8
1226.828346,9890.6
1230.600366,10099.4
1234.366874,10221.6
1238.12788,10044.2
1241.883395,10156.4
1245.633429,10219.2
1249.377994,10248.6
1253.1171,9644
1256.850759,9931.4
1260.578981,9835
1264.301776,9890.8
1268.019157,9854.4
1271.731133,9737.8
1275.437715,9633.8
1279.138915,9927.8
1282.834743,10103.4
1286.52521,9795.2
1290.210328,9774.8
1293.890106,9904.2
1297.564555,10181.8
1301.233688,9738.4
1304.897514,10112.4
1308.556044,10132
1312.209289,10104.6
1315.857261,9752.4
1319.499969,9785.8
1323.137425,10202
1326.769641,9882.6
1330.396626,10263.8
1334.018391,9854.6
1337.634948,10016.4
1341.246307,9767.2
1344.85248,9802.4
1348.453477,9735.8
1352.049309,9856.8
1355.639987,9735
1359.225522,10247
1362.805925,10019.8
1366.381207,10109.4
1369.951379,10073
1373.516452,10156.6
1377.076436,10439.4
1380.631343,10388.6
1384.181184,10561.8
1387.725969,10865.6
1391.26571,10570.4
1394.800417,10241.2
1398.330102,10064.2
1401.854776,10037.6
1405.374448,9911.4
1408.889132,9497
1412.398837,9456.8
1415.903574,9798.6
1419.403355,10321.4
1422.89819,10416.2
1426.388091,10577
1429.873069,11083.8
1433.353134,10610.2
1436.828298,10478.4
1440.298571,10365.4
1443.763965,9885
1447.224491,9699
1450.68016,9712.8
1454.130983,9971.6
1457.576971,9814.4
1461.018135,9941.4
1464.454486,10022
1467.886036,9689
1471.312794,9790.8
1474.734774,9537.6
1478.151985,10029.8
1481.564439,9942
1484.972146,10108.2
1488.375119,10024
1491.773368,10206.4
1495.166904,10423.8
1498.555739,9732.6
1501.939883,9702
1505.319349,9359.4
1508.694146,9668
1512.064286,9711.2
1515.429781,9650.6
1518.790642,9518
1522.146879,9664.8
1525.498505,9329.8
1528.845529,9366
1532.187965,9995.2
1535.525822,9673.4
1538.859112,9730.8
1542.187846,10262.6
1545.512036,9645.6
1548.831693,10544
1552.146829,10235.2
1555.457453,9750.2
1558.763579,9681.8
1562.065216,10063.8
1565.362377,10335.4
1568.655073,10637.8
1571.943315,10648
1575.227114,10889.2
1578.506482,11026.6
1581.781431,11700.8
1585.051971,11656.6
1588.318114,11996
1591.579872,12065.4
1594.837255,11713.6
1598.090275,11280.2
1601.338945,10682
1604.583274,10440
1607.823275,9958.2
1611.058959,9574
1614.290338,10363
1617.517422,9360.4
1620.740224,9597.6
1623.958755,9364
1627.173027,9341.4
1630.38305,9050.2
1633.588838,9342
1636.7904,9232.8
1639.987749,9353.2
1643.180896,9447.8
1646.369853,9066.6
1649.554632,9558
1652.735244,9127.6
1655.9117,8929
1659.084013,9123.6
1662.252193,9579.4
1665.416254,8987.8
1668.576205,9149
1671.732059,9325
1674.883828,9357.2
1678.031523,8965.6
1681.175157,9077.6
1684.314739,9171
1687.450284,9099.6
1690.581801,9005.8
1693.709304,8887.6
1696.832803,8977.2
1699.952311,9118.2
1703.067839,9216.8
1706.179399,9076.6
1709.287003,9413.2
1712.390663,9095.8
1715.49039,9157.8
1718.586197,9366.8
1721.678095,9290.4
1724.766096,9254.4
1727.850213,8877.6
1730.930456,9092.2
1734.006838,8979
1737.079372,9253.8
1740.148067,8918
1743.212938,9568.2
1746.273996,9165.2
1749.331252,9038.6
1752.384718,9229
1755.434408,9121.8
1758.480332,9146
1761.522503,9226
1764.560933,9068.2
1767.595634,8854.2
1770.626618,9237.2
1773.653896,9248.4
1776.677482,8985.2
1779.697388,9061
1782.713625,9285
1785.726205,9207
1788.735141,9271.8
1791.740445,9003.8
1794.742129,8923.2
1797.740206,9341.6
1800.734687,9278.4
1803.725585,9238.8
1806.712912,9226.4
1809.69668,8931
1812.676902,9015.2
1815.65359,8833.4
1818.626756,8947.4
1821.596413,9052.2
1824.562573,8890.2
1827.525247,8978.6
1830.48445,8909.8
1833.440192,9035.4
1836.392487,8933.4
1839.341347,9136.2
1842.286784,9109.2
1845.22881,8742.8
1848.167439,9147.8
1851.102682,9011.2
1854.034553,8927.2
1856.963063,8852.6
1859.888226,9498.6
1862.810053,9184
1865.728557,8995.6
1868.643751,8776
1871.555648,8751.6
1874.46426,8599.4
1877.369599,9051.8
1880.271679,8948
1883.170512,8863.2
1886.06611,9211.6
1888.958487,8928.8
1891.847655,8921.4
1894.733626,9077.6
1897.616414,9086.2
1900.496032,8716.8
1903.372491,8989.4
1906.245805,9226.4
1909.115987,9230.8
1911.983049,9152.8
1914.847004,9181
1917.707866,9180.4
1920.565646,9179
1923.420359,8909.6
1926.272016,9120.4
1929.120631,8899.6
1931.966216,8937.2
1934.808786,8927.4
1937.648351,9119.6
1940.484927,9075.8
1943.318525,9200.8
1946.149158,9296.8
1948.97684,9968
1951.801584,9281.4
1954.623403,9162.6
1957.44231,9207
1960.258318,8887.2
1963.071439,8901.2
1965.881688,9051.6
1968.689078,9139.6
1971.493621,8934.6
