Wavelength,AA_HS_V2S1_H_I1,AA_HS_V2S1_H_I2,AA_HS_V2S1_H_I3,AA_HS_V2S1_H_I4,AA_HS_V2S1_H_I5
341.607051748368,-149.20478961754816,-31.80038810440965,-18.72178925634853,-40.018767356250464,-43.99358145657061
346.713478559644,56.52536574051828,184.51850762949107,162.55260019824254,147.51256454306713,112.45588043382031
351.812079774847,67.70773897626168,316.6875107452224,288.09642427082235,277.3758973849099,261.6601425398112
356.902868441679,206.57991728000434,517.404117208016,315.47778430032304,325.7186185421524,266.1889164303111
361.985857582022,235.33529639181234,342.1965790972663,256.195564192074,81.97982834829236,107.40102330913487
367.061060192113,59.915206020007645,324.8270155373475,167.7869463116822,32.46513978924031,34.05024549901282
372.128489242748,27.73267713831683,221.29510076008864,94.42276559062611,101.02071568265819,80.0684110011689
377.188157679439,41.50469359570343,219.96864375197583,44.66563095596757,-43.26621904434069,101.29154950598695
382.240078422628,-28.85912868142168,190.57269854735205,14.662389732274278,15.537508778725169,86.26544102836942
387.284264367858,-70.32933027872969,29.388182194598812,5.266558174640522,46.13277744645711,26.6961762607516
392.320728385961,59.54543363359062,46.441614768499676,16.52455624497634,30.703074460163407,-4.600873369157853
397.349483323236,171.77779481261678,134.0547685476222,44.43335102658784,43.35082831933869,27.01504399147325
402.370542001641,178.15274186842453,36.88692155715944,91.49949034446672,-85.83134192126181,110.7741453064009
407.383917218962,304.50065018596706,415.7883384826855,151.74577092765958,53.97262541003147,274.7258568764055
412.389621749006,299.620783194292,279.10341529578636,193.54770499231108,211.60528127409634,307.2796615191219
417.387668341767,206.57159151691212,363.05172690819927,204.73083521674744,51.20914116338918,164.76470954610613
422.378069723634,219.87381031421683,333.76118719281203,207.19967963647923,-40.83219891767567,128.55925876522633
427.360838597528,188.35573695171206,146.84351278930262,186.62472162224185,55.83710040182177,208.85780960430657
432.335987643117,176.92082056321033,205.68524682847783,103.92173980977168,80.05602403273679,166.32198160461394
437.30352951697,-14.150463685587056,-49.648766479614096,2.4995625539231696,-103.09218157125088,-19.5038882820254
442.263476852753,-211.40115488994343,-93.49368270321793,-15.244725134850341,-140.28730264414025,-19.946048349844204
447.215842261379,-1.0777880431005542,168.1823293698062,66.19396403852079,26.148653778406697,201.38020686518848
452.16063833121,153.60209282075357,199.70267600475654,158.56203280325917,22.382882536474426,280.5827792488508
457.097877628217,53.76401876946784,-11.650333654510177,196.41521355982422,4.448636869847178,218.64690124067602
462.027572696161,48.27571678642926,149.43679674775285,194.31504802844393,26.59658041138755,192.52955928623123
466.949736056747,36.7065151144252,147.12051395002345,189.50633840522005,-1.7039138884456406,216.64780223549496
471.864380209832,-52.42700259865069,203.60566312509764,205.3145958917312,14.03789566431169,270.7674445495195
476.771517633564,23.749149583890357,32.65536583279936,266.46895388680787,20.31979422752738,283.86689970060525
481.671160784563,150.02775397097776,232.2673462010598,379.8399059399062,209.70072007661565,333.5026877345417
486.563322098102,238.6914035356067,443.67467056161786,489.564326747025,425.805628054567,448.5715091995444
491.44801398826,320.7778335116727,539.4244112296938,509.42545351432636,403.15228198719797,474.8216968013585
496.325248848105,199.65866323382306,260.87183835359974,425.07379559060337,269.6434239716491,427.6110861857751
501.195039049857,21.444783786371772,124.22590612648492,324.98328292066253,121.5936382439977,321.66308331126766
506.057396945054,3.483772327985207,74.95089626929621,298.2918626330202,81.58303056096247,207.7752240931277
510.912334864723,58.70792149666704,20.40450870206405,328.7413022453902,36.26860156429666,288.8795330850244
515.75986511954,67.71805572402809,306.8924181964021,327.75308986578693,40.09793100922707,405.68634313846906
520.6,51.57042765398364,-84.11984996860701,261.65641532680183,92.55474559716185,290.65757614020094
525.432751776587,-0.39408840956275526,68.04237342886972,201.42924106388,7.524916533697251,171.693091854032
530.25813269993,-73.59134869270838,70.34190854273038,221.0370037772027,100.7921572886853,274.63399615809703
535.07615500097,47.631814982381,204.74851174951982,279.35317506762476,310.1344931583535,372.9638844558667
539.88683089113,67.46334188404762,226.24715852022928,266.1891063832818,195.82729018123246,296.5663155959228
544.690172562463,-74.59628849556975,-43.84886990561154,163.45693264466627,17.752250165707665,204.44133702685576
549.486192187827,-61.269955143270636,69.21633078961804,80.70065031707327,-40.526796408759765,132.00923343028626
554.274901921041,-65.46025058932173,-90.81385606457934,98.72194589518858,-56.99551608921047,8.92663137458021
559.056313897046,54.51146708917895,215.69832946395127,149.65773846788397,163.91229297202335,-4.955582912288264
563.83044023207,115.97194686325474,131.37558880120014,116.79358989988123,203.65131422090417,95.26785480319904
568.597293023775,-140.84950611513068,-46.941471220703534,10.380384035638599,-49.60396030734046,38.488516671654
573.356884351433,-158.81162958133882,-64.83389078994423,-47.35009083107252,17.92677715084301,-80.77203859099427
578.109226276072,37.89849778266216,197.69887485817162,0.466026659297313,224.58263282181906,11.450747952573693
582.854330840635,68.03024978816302,262.5210862437816,90.97697317330221,224.63525591383222,101.99877242959337
587.592210070145,5.873855136809652,160.36173317217163,158.22388218805372,155.52101475147265,76.31022250295155
592.322875971848,11.135297352543603,154.4328927330198,191.5132210898646,238.00205109038916,132.49619854564935
597.046340535386,77.47637966875482,245.60137675565693,192.15358099883815,290.43602064400284,104.3727493882061
601.762615732934,72.74284005571644,-48.48218900084339,167.88026869443092,170.87706813934392,17.11805629418177
606.471713519377,72.0527636263887,55.96178230909209,136.70015881970994,245.20374539487966,147.1839747001468
611.173645832439,105.4382385656836,288.2050629562309,95.32367749832702,321.48727706735826,202.87048809712905
615.86842459286,66.08386413399512,52.30852232049983,41.02033700834727,150.47012935551174,17.315052509971792
620.556061704525,21.50581952894754,52.96023651502401,7.939097139967089,53.9661529192922,-44.70268070093607
625.236569054643,-25.416912653946383,34.48722144666408,14.655722319577762,125.59443161995159,37.685212371314265
629.909958513874,-123.78301992460638,56.16741887534954,21.9544740868605,34.25553176659787,-4.013723876856602
634.576241936502,-103.41341719730826,-265.34189208477255,-1.6454877626247253,-85.97779985399393,-43.865762487404936
639.235431160572,-11.483294900351211,54.57694490589074,-20.525941252676603,38.06104757932735,30.91794086802929
643.887538008044,-38.16887394176683,77.4239245936451,15.725878728952011,-17.24156714981791,27.03804909735254
648.532574284945,57.39238746369756,7.5008916209089875,87.29295087167338,18.220422821342254,78.77221607483261
653.170551781512,176.7593556294014,196.1765637810713,119.7933624055504,141.5529458920514,195.12506764636964
657.801482272343,43.68578597661053,-32.66551049305235,85.18273300937835,-51.60594626104057,62.89330703371752
662.42537751656,41.93785594958172,149.73572165586756,32.35385944389509,-32.1836553451094,-12.958805679000761
667.042249257929,172.25898615557617,70.34552154654557,6.959855046037774,47.3547582498536,119.21352658077194
671.652109225031,47.2480750386585,-55.9697715884713,0.9223093104956206,49.844802543074366,39.09499398822618
676.254969131387,-65.0953905285769,47.659677125672715,-4.637991177087315,109.93027382335595,-61.60535059616086
680.85084067563,6.204473909046101,-2.5750320376337186,-4.119663986210071,21.765921255372177,49.5975502488368
685.439735541635,-0.4939713604580902,114.71505092364532,6.908461887784142,-16.852126935553315,59.70949520167596
690.021665398654,-12.538603918439549,-71.56032563763347,10.900266849640957,43.71088300506926,0.9505654542526827
694.59664190148,-10.437650174693772,23.795973471468642,-6.225870156767542,0.7263380474164478,15.05204197809826
699.164676690583,-2.8270561246936268,-87.37318911229795,-21.186742617606342,-92.39764569820318,10.51196574042524
703.725781392252,20.18058638691309,63.57160431200009,14.525282720575433,33.338121909163874,21.971260338304546
708.279967618733,-84.10450666331508,21.66835472756611,113.37053976376728,155.22169851262834,21.093605059546917
712.827246968391,72.1647485721769,60.05244887907429,213.01805563442213,187.46316559536535,24.364992816875656
717.367631025829,294.2306813757741,261.87748723201094,228.29027649282625,246.30644905689223,142.80730121253873
721.901131362036,72.45636245649712,126.09930947710927,144.67244986323067,102.82893571453815,195.7806813607299
726.427759534534,-38.142212306505826,98.66761412822962,33.66709172228275,19.14032561472777,48.43232459763749
730.947527087521,15.995521224660479,42.38129545184802,-27.16909726929589,-3.5605508255171117,-85.20015457711634
735.460445551995,-54.146129235411536,-91.81594808202726,-22.955461971933346,-52.52269078777681,-63.932326514447595
739.966526445907,-15.470002630040653,-17.714609759357245,6.558849862608895,21.97634306461441,8.446635107479324
744.465781274295,46.66985995891628,76.99927606404071,19.305378770129664,-0.32878944855110603,35.144927870503125
748.958221529427,39.755063943377536,-32.9632950670366,9.925164475303973,5.756732012868724,4.799107932347852
753.443858690935,5.029429639345835,-48.83151274279953,0.975092323415538,75.02599931401937,-13.570611116033433
757.922704225946,-15.283612198478295,14.82302042508718,6.581704560347589,53.944367178302855,33.22675400876096
762.394769589238,23.222734473632954,45.449668201622444,17.14001728231551,45.73786410567618,26.900764264829377
766.860066223351,-46.34611138522541,-88.85053858067795,13.223777119847,-36.31052629165379,-22.56835356611964
771.318605558747,-90.02935660617186,75.21938406621166,-10.083396322401313,-85.6925787937339,35.7010873173117
775.770399013933,-15.602049980810989,-39.47597762368878,-25.145064793619895,-4.810830231572709,64.1936807049351
780.21545799559,27.172886978929455,23.791838406937586,7.287664717603548,-0.3859462917066594,18.212052165873047
784.653793898731,128.63939265488807,4.020074297205156,81.17778554451615,72.8816134763074,133.59934069714336
789.085418106808,141.7963141960763,124.56289950612609,135.13533555055665,157.8749240420043,263.8413809386366
793.510341991867,60.60850686202866,-62.390969764452166,125.70267621102721,23.40466088153289,131.04152853482265
797.928576914661,31.773080832154847,-52.24987802597843,81.14307997568494,-44.21751471970856,-48.04085121483104
802.340134224803,-23.4127931090743,41.66918234919058,57.42093117565946,29.43100333969096,12.881287921928106
806.745025260889,46.074414945819626,62.423321072499675,74.008540316172,30.01343235061813,176.02216764899003
811.143261350629,129.66605973444257,16.118155099978594,115.66039281966277,-32.4757064092546,198.63961251212595
815.534853810983,150.62424387802548,-6.987869774268347,162.11546303259001,-2.551685264541902,155.34302683337137
819.919813948281,131.94160894603738,185.4287029771699,190.08859255289235,53.91297542365737,183.76849740878697
824.298153058375,-37.86931049052146,27.909109313255158,170.2092270606031,31.740735782919728,228.6036571861896
828.669882426744,-7.754849265859775,51.17449602522811,96.21647136836509,25.53444819748529,209.9872759106829
833.035013328641,69.64969345917598,22.497076868136446,14.961060449636989,-35.3493179611246,122.32679654767844
837.39355702922,-27.61048136576892,-17.16221643507606,-11.314193569690815,-7.149101286261612,78.62966987619211
841.745524783661,21.24641546588191,-6.880595443843504,19.00730141669601,62.027199279015804,115.5390167295991
846.090927837295,4.5845536548481505,36.14921858670141,47.45123486902048,-77.25122594772574,83.6644685712854
850.429777425745,-98.09601265857236,-105.12258447755676,31.258439408672984,-38.624026622171186,-9.543732906653076
854.76208477504,-83.61805398184197,-24.955247503668943,-11.927800564436893,54.911444641324124,-37.271750095985226
859.087861101756,-45.111194452938435,-58.51790595889224,-30.100548847949995,-82.79521177384822,14.105941705197438
863.407117613122,46.84748281621478,113.26528800362712,5.144714209483482,-0.2040232638469206,117.70852374576543
867.719865507168,67.74757710357062,163.59667061483879,70.92243960260248,133.7980595766603,139.62527356063265
872.026115972843,4.776043534690871,5.1441817503177845,131.1403252205032,2.777309821331073,21.243424550008513
876.325880190136,-17.49305084062962,62.242744092452995,176.45264503990256,-0.2854356931752591,-22.61886066851821
880.61916933021,-4.6194934910759,196.18271109046373,205.4269524293959,112.59507018820568,58.36316444389604
884.905994555518,97.08691920462707,168.74149136290043,209.22752493408007,118.85974896666175,123.80884422343615
889.186367019936,67.99657574288267,116.18294782745807,193.86806159775597,46.15550622817091,126.09281865270077
893.460297868878,-45.481276396933026,204.4880728235371,175.03573714221238,35.814859952593,92.52195114501228
897.727798239428,65.84850637082445,197.97290550832713,155.87482729138492,224.70821894285018,96.93956337838245
901.988879260458,28.04102447920104,203.2954198083462,152.10516526276388,136.2409873241304,32.449250443726214
906.243552052754,-85.31200689855814,-25.21345491223974,198.40863725796225,-66.6193559311987,-16.19741771875988
910.49182772914,201.49917771086257,289.3690225368541,278.15436509879555,219.60491166762085,226.73732313879964
914.733717394587,296.72106498056974,307.7814679248736,309.8885935227536,344.59339373871444,338.7886880397082
918.969232146357,52.152964354570486,190.16627191677253,250.50282962103392,95.9025850464891,115.69261646232326
923.198383074105,48.701685212899974,163.2143065091086,143.60183599093125,31.35414003402957,31.69202887586289
927.42118126001,12.991989357289185,52.99911646909959,49.51498366365513,-6.307014509096007,6.263297134893037
931.637637778889,-94.16316338013121,-41.339776474273094,-6.4188457299242145,-62.24231566545677,-36.039561049637996
935.847763698332,-38.83106622241394,10.716708437367288,-19.696388196618955,24.258064533458764,77.37320091917945
940.051570078795,-51.258375012385386,11.958515126166276,11.034648337918497,28.97902658332032,82.92096764358621
944.249067973753,33.25972177894437,8.33177237422251,72.48099369753254,46.37656103557674,26.726015169989296
948.440268429789,137.8221813727173,172.70538782443327,117.9413333893117,97.35205713824416,126.19434920631556
952.625182486727,34.11198329992567,-29.433039787309554,100.92978451771341,17.44440234184958,148.4795197464582
956.803821177758,-6.611405137201473,114.75023416369595,38.873377802079176,-77.37015155596373,19.697653887205888
960.976195529536,-14.507604251875819,-33.42698103383964,-0.7957941155787012,-84.65364241313,-60.66975505984692
965.142316562322,-19.45060230065519,141.6291394182058,14.522272127290762,22.573723420797705,-28.514062525875943
969.302195290074,49.65440051232963,117.6415230734392,52.17404843957547,40.41031211365225,60.57911002709807
973.45584272059,91.83412451981576,-21.197865942480803,68.85040254627393,60.463784302569366,145.43731416623132
977.603269855603,76.76998912130239,188.15610688387642,58.56738467998048,126.92133378298831,135.58265501601
981.744487690916,3.3243016660794638,111.45139931227186,40.06963808063483,5.333018944133983,49.70693404459598
985.879507216503,-34.2320523176536,80.78890829129796,20.926655541892615,-39.207359290889144,20.44772628662531
990.008339416632,-62.14621907875335,14.14134688834929,-1.0743426549624928,-0.010335984683479182,21.714943063078408
994.130995269981,-44.124913269699846,-44.132738076730675,3.1627211179957158,-32.595597107775575,-3.3783585685973776
998.247485749745,74.07113463624364,62.88163233005025,80.40128896403485,52.3787197942288,25.019851336894135
1002.35782182376,109.24740851287288,239.10634859098172,199.8009642177226,173.6722641811907,148.62041827096618
1006.46201445462,163.365564912855,317.60092875066175,245.55545956902915,208.20850166353557,223.39386798060696
1010.56007459976,185.6716163270512,179.67097277729,168.81403913275153,189.12061937111412,108.22723976715679
1014.65201321163,18.35430838004413,39.94193450968078,69.14303361716202,35.5758177803109,15.094789378033965
1018.73784123775,-17.44953152805965,-79.86779674961781,53.206637534903166,-24.549161320164785,137.81090755864943
1022.81756962084,49.43946590927453,8.664509309904588,89.41032879612112,136.30348268732996,223.06193589839313
1026.89120929895,21.784700773242548,120.45858026501992,80.1850571421437,102.22738037345835,120.19739261530731
1030.95877120555,-10.335817150044477,-28.576709591190138,14.892213612474734,-26.648024326403174,10.330014078799195
1035.02026626968,-96.34028724478912,29.771283410671458,-30.115370499080655,26.05206297793393,-35.16084226269959
1039.07570541599,-85.94787726476716,183.28339700770357,-14.676985390419759,8.337135150362428,-11.430216084953372
1043.12509956492,49.89261422911841,168.80261667135755,13.691215929713053,6.070515550526579,77.57888398831301
1047.16845963279,41.37154246272621,10.268330274212985,4.836270369519752,46.65254122824217,61.98819173241873
1051.20579653189,-26.42343653865146,-26.532084695240428,2.2667185738037006,-93.98600620443585,6.26021531253582
1055.23712117062,77.88881400943137,163.55566153379004,120.48743960099137,25.55801490549402,168.17896845598625
1059.26244445358,414.8060553013738,470.51401785252165,426.14697070558714,435.0173313350001,405.5076271757439
1063.28177728169,780.3098511974213,834.8948195488465,846.3558526595539,694.2030475973697,665.0292773411002
1067.2951305523,1103.3878130613602,1295.9481144402907,1197.0808427707957,1091.5794044704548,1132.4672984928097
1071.30251515929,1347.8715808252941,1413.6503893789368,1318.6795566026153,1411.483851557495,1408.7899572100314
1075.30394199317,1224.4618611091914,1256.6914049644033,1192.269390237157,1224.1995912942775,1179.750310105755
1079.29942194123,911.3515882470128,897.0051468277729,919.5201571060988,932.6077766803792,888.7269596115893
1083.2889658876,619.7761265834783,709.2466811717109,610.2963545385423,580.769502743133,673.3302267763279
1087.2725847134,312.7673024317255,362.36012671566687,325.1729143733087,313.5139938933669,314.06417767134235
1091.25028929679,116.45176797530576,183.29898417688628,107.49735952084666,212.05250416142712,14.502462804650804
1095.22209051314,11.739705967767804,-18.066836146775586,-2.0046602022612205,-14.564819870600559,-54.71469440061992
1099.18799923512,-32.044990632015924,-33.28190940916829,-5.728020758381263,-0.5643697004431942,-20.54455187674239
1103.14802633277,-27.750286515095013,-52.01899188838888,46.238915009962284,21.113466240023854,25.79212986159382
1107.10218267366,23.201832801536057,10.482848590446793,103.80562753715344,-89.62427939482359,26.170544251567208
1111.05047912294,120.16379513168704,164.8367585593428,137.34456877483672,20.33494984115555,-0.038349690491941146
1114.9929265435,155.31594145702593,73.23818644262064,144.69044910688854,11.501064111132564,20.514141127749326
1118.92953579604,224.2432268597163,62.300132344628764,185.17101313491048,58.03254236037719,128.83949017114514
1122.8603177392,446.56768149651316,292.948805782652,365.94102870296706,331.9377935716377,365.8134342227502
1126.78528322964,838.9577899951255,767.448156226104,745.8848768779794,719.0307617462884,757.0595645981564
1130.70444312214,1389.9487985106202,1286.6519089051908,1259.5833504675784,1247.9263523251482,1288.1028374129367
1134.61780826976,1985.6558638898723,1822.609005359277,1732.6853535462865,1734.101071350251,1787.5379878703575
1138.52538952387,2289.301178548043,2036.7715279732124,1962.0886837824303,2073.3244409317526,2023.4739315278125
1142.42719773431,2049.542475065395,2026.9120551152664,1827.2594356526822,1972.2207960289215,1919.2287247179252
1146.32324374946,1612.8347314465268,1392.5542358959142,1385.8381419947482,1467.8428952536324,1465.8359992894273
1150.21353841637,1040.4593783506093,904.8620168833249,861.1869134704082,838.0913284772087,803.5313619889632
1154.09809258083,454.0234498440227,424.67285270004686,484.33238393230886,411.8334652985013,342.83535958522816
1157.97691708749,387.7297067689392,312.33652868857735,313.61941649617665,352.05806028482834,234.55385588462923
1161.85002278,346.39675603549495,171.62717632298222,231.8795990867618,191.24976396072452,171.34064633116395
1165.71742050103,68.23346507053702,-6.012725309295547,128.05622177725172,48.85276499226961,35.67167113474238
1169.57912109246,-37.796796473260656,-51.85886895148428,20.033342565146995,-31.733937376519407,-51.719549090366854
1173.4351353954,-96.81241637359517,-51.080593569936354,-16.825568414594045,-82.92183517544163,-23.977140114189297
1177.28547425037,-24.46377515801032,107.5064352097811,36.54102609908546,87.38163631527323,104.72579752337833
1181.13014849732,171.75995540225676,176.90436391158846,139.46619647951434,116.72009603833317,145.11245254904338
1184.96916897582,212.11139342266097,212.572380646169,248.45810068536366,176.6036798781961,113.7816397654326
1188.80254652509,239.58416500405338,285.20158593213546,335.10896899703584,217.1401205579832,219.88120852893167
1192.63029198412,384.9070580061398,207.1996166165161,372.3765376788215,185.05290574561218,337.28919097306994
1196.45241619178,326.95036016491576,320.90179340216446,343.92739451837815,294.44196938975324,287.21512753709635
1200.26892998693,57.175275906573916,256.4541297948715,265.32653112209096,122.00935929132424,134.0409427748666
1204.07984420847,75.7562951631403,48.69254274744526,175.0260941951376,50.37739515504563,7.214084381002976
1207.88516969552,126.33882706902023,210.8024146700368,106.56787046735508,156.7266110504454,1.0063502969205729
1211.68491728744,-2.3566863353389635,70.05534602648368,81.43580216127543,21.136766951535037,59.84994582933882
1215.47909782397,36.84119248046909,13.870482425418459,112.46718538839218,14.174684533268191,32.681532526042474
1219.26772214533,76.82944555899576,31.95276484010924,180.72213234263836,107.32614851402786,4.867004074957322
1223.05080109228,113.9657918873313,222.36289057026943,217.944252866826,166.53016572358433,112.71718030539978
1226.82834550629,115.7148673229417,227.80342123757714,165.4073902063085,144.58456367633312,159.43616853248136
1230.60036622956,-75.42218201230162,-65.96877258071709,57.53342477931619,17.321599541600335,60.80596879664404
1234.36687410518,-99.66750712884777,-87.12740144488862,-11.097489509384332,-26.867556018050664,3.288346300955709
1238.12787997718,23.021987420275764,-73.7314882578421,-7.03076593453261,13.232921829843463,33.79897852260524
1241.88339469065,4.123636770631947,77.22573665430241,18.960074691256523,100.27205936602832,56.58082973384353
1245.63342909185,-68.34680168288196,70.48113120589119,28.870053353031608,-0.4575554214936801,-23.013202490582216
1249.37799402827,-54.53901961618203,-37.70432418317364,36.11911766974481,-15.572657388803691,-29.33874632812376
1253.11710034876,28.46845781823049,153.42945839362665,39.70031035484408,242.46385918931946,140.54120118260585
1256.85075890362,52.1455430953215,-20.937428738807057,17.316847020576233,136.9217477538905,132.2733352576995
1260.57898054467,18.749251103889492,73.51519379599063,-0.2610420072744546,-9.882394071677254,2.6638468328064846
1264.3017761254,39.8561011527313,68.12630600496959,45.335849475886334,153.66660749702123,68.4630457164119
1268.01915650098,61.77091173257213,205.45210517801434,130.38830668097194,139.4472205041177,140.6548226794839
1271.73113252846,103.0672458802178,190.22047219326123,159.66840873431806,170.19675689898236,171.4781598830757
1275.43771506678,140.73799582045012,157.06313385347084,93.95517081074536,267.00780155196003,194.46666985429624
1279.13891497689,-32.352576311594476,-19.429649339561138,0.8863975901278991,49.12139666466578,29.64949341972033
1282.83474312189,-150.29009851602336,-167.1660586082303,-34.48992169165422,-80.6085898145709,-54.55418006273726
1286.52521036705,19.705814420076877,180.80087900810508,-9.751078069614323,91.36798010183634,104.67115751418191
1290.21032757995,99.23225580367716,214.5068460931766,18.913540114093166,218.91761143285248,112.43548119873776
1293.89010563056,-10.957215689374152,29.352959997137987,36.928619311114744,175.33268125794712,14.81030365565016
1297.56455539135,48.09075053472998,54.13620082854777,78.0076050427956,199.96262138979068,132.89026070659384
1301.23368773737,218.56142939135952,347.0958284208923,135.73598126677712,265.57265791957343,264.3691671414033
1304.89751354632,178.28094634282115,129.3297626613712,160.73185738858888,238.4649900501979,202.94745356500516
1308.5560436987,52.6723364890604,277.9802964486123,148.13410603939747,230.06452910078679,131.4945616468542
1312.20928907784,13.914533536636554,144.17919835129987,138.16872438627843,218.84737644978918,186.0676318737428
1315.85726057005,68.46562548060001,288.2708638422432,138.37506994079035,315.40453468250917,229.21381703555085
1319.49996906467,47.29057892311175,296.311544918658,118.02288545754891,217.86594243272953,123.91816178010095
1323.13742545419,-92.0678620690569,-78.77801105277308,66.29305229324336,-24.72822059169448,11.416798447208976
1326.7696406343,-56.37373139279407,69.5605488495305,12.332696921489514,50.227403580452346,-11.166364850525497
1330.39662550404,8.297639815239108,-36.529760861403474,-9.653007608192183,25.129401027521,-38.63930955922069
1334.01839096585,-33.15258104518034,41.02790726355488,-3.9991700972113904,-55.22193820398411,-27.53869314755866
1337.63494792569,-29.178429637312547,-14.256213289721472,-3.0504921742433453,-3.370046925650513,34.95912930567033
1341.2463072931,6.8697876125047515,-13.355759223078621,-8.325878750764105,-5.113552122286592,32.01847333883711
1344.85247998129,29.607347609660337,51.75125617120625,13.350709164647014,-9.957661144398344,-22.4009850677312
1348.45347690728,24.513359284368107,-7.10708432394199,64.85717998130099,-33.767429543145454,-23.80485966375295
1352.04930899195,37.17121436321304,95.90263050062003,101.28117382845608,4.531473469736966,27.511842202167145
1355.63998716011,12.848959183200805,128.1552722893307,90.1711081079086,46.13636808536421,49.881435498637984
1359.22552234066,-51.78326239176795,-10.668094354722825,56.92514430345409,35.88721799860559,27.301726570113715
1362.8059254666,-88.2403073009541,-66.27835562926634,54.560632500448264,-10.798235205913215,3.2561981051424027
1366.38120747517,31.985292445312552,22.61805055269633,92.2147143069185,-16.461442327197574,61.44782449791683
1369.95137930795,159.95721027708305,199.33006597843246,128.9823015498032,91.52693552771962,86.16324918034388
1373.51645191088,59.22910587916431,53.37414690206083,168.0346438441877,56.758834669954695,-10.806924100676497
1377.07643623443,207.0604582140304,232.68951210894443,292.9475700858161,122.04734731745725,130.78338863063027
1380.63134323365,539.077763310629,506.4988063985529,547.2443589110824,448.767999412009,462.3114472274067
1384.18118386825,734.3846981624374,623.5371841560673,830.2713472569178,719.1228057000269,629.5332761363063
1387.7259691027,957.79499270308,881.6036571677632,963.4502596756299,942.317256149219,816.2560441967057
1391.26570990633,883.5037345260348,789.5451716698412,848.1960616287749,887.9084211395568,938.2122032450477
1394.80041725341,520.1980722822896,494.2270510725036,554.7745532721242,510.20120734132615,648.9590865603627
1398.33010212322,194.8154804844994,217.79379794498527,252.75300081366663,193.9033272830577,215.25347854522647
1401.85477550016,-12.050030535435326,46.49755184835067,62.11445669085538,-25.019277595969697,13.124723234579506
1405.37444837384,-0.673651256282028,-55.22574042765132,-4.522500546604533,-66.67984218838046,-12.778701395427333
1408.88913173913,28.3631743607757,-11.249236054095036,15.811828392202187,53.95976591723593,12.93829923172325
1412.39883659631,-8.292048885313761,128.95574267933216,102.64389385183358,145.71925372084866,125.34950774524032
1415.90357395109,104.45358973565044,279.52358081106036,271.84564630717864,288.8137316360944,299.90621828952817
1419.40335481475,432.7994723710651,360.60090968246936,548.8018671632667,493.870252194758,530.0757684029024
1422.89819020419,864.3200841627388,845.1621160724176,905.1411121735648,869.5386460878076,949.1454483738971
1426.38809114205,1205.1945658601323,1196.640213864208,1223.7072884718684,1374.4177682608922,1404.63118827789
1429.87306865674,1331.0863820128334,1323.7378940774913,1356.2005043840456,1562.9600620571464,1504.143342744446
1433.3531337826,1224.8142662879968,1164.618995188326,1236.8401766206073,1362.7730954313195,1247.1334544587444
1436.82829755993,876.4086152691673,890.3085026970662,948.4935163236112,945.3144222820652,933.6220768748299
1440.2985710351,483.66648444106863,543.2950682922417,662.8114814291548,579.5985424576784,687.864102796965
1443.76396526063,395.721542964789,516.3208283571432,485.9295004504038,424.40081560419617,530.1380839060334
1447.22449129526,403.3784921327165,362.434946416864,381.083443403807,367.77812933271866,431.82291481675065
1450.68016020408,156.23566344265373,235.0153715311767,267.87920810800347,296.494163636483,255.73302153471604
1454.13098305855,4.463621011607984,37.60873499780337,140.05294966064957,145.65824899933432,83.16070352230474
1457.57697093664,29.328099355567474,-14.567556584911244,43.32851319949168,102.46998410220272,61.746805229443
1461.01813492288,-69.97167667105896,54.912628699178185,3.932864383969786,30.97165464606576,26.883694993966742
1464.45448610847,-22.90696287791161,-77.67774147572777,20.188174522284385,-85.55818294459607,-40.037008739537555
1467.88603559134,104.94303812661428,103.6511712067545,70.15470925311615,27.724100406055186,11.389681156022903
1471.31279447625,28.439021162887684,28.09020402607996,109.78288103041643,96.34312415887155,92.84224437070009
1474.73477387488,53.156663454480395,71.33054271373283,108.85471521889508,45.83534993033447,131.7343032922139
1478.15198490588,70.7681687787499,-82.92148513409438,86.79066732482306,-8.28228015656191,96.02221767875244
1481.56443869499,-42.52687941872114,25.329959465372667,77.83805047270027,-21.249210068855064,-10.607367863906461
1484.97214637511,47.27993862286712,3.993528658430705,75.84544158947972,49.60851829628302,9.074657172181105
1488.37511908636,143.3077669042127,99.27322811081376,50.76287177602171,90.17511962047729,99.05472161185082
1491.77336797621,3.4857329174681126,-42.04306299037512,4.762110377859585,26.147325343924194,27.75290625962066
1495.16690419954,-81.518888336504,38.509963912942794,-29.11025975495977,-62.98422726398013,-42.260797032274354
1498.55573891869,-6.473540114254547,-31.086238153979707,-34.360251758265804,28.86194666759036,2.3551145478899116
1501.93988330358,-20.205214076727884,46.26971276406573,-17.194188408369087,28.08661440723921,-4.23869594478424
1505.31934853182,-51.596951927092846,25.79637930604838,22.507339315799527,-27.36038084445886,5.523329929393981
1508.6941457887,50.20606111033294,120.7553278559144,79.86765652922543,157.41402482606452,73.04543245560313
1512.06428626736,139.1165339903464,204.8440820357083,111.01988733407137,188.83639592378847,129.6314803908097
1515.42978116884,279.59457294766355,206.0770348399144,71.00090900209631,254.95758376770533,204.0029103450608
1518.79064170213,195.95017697878768,284.23572087461207,-0.3135305858876336,204.94229289448646,118.07795872760107
1522.14687908432,-54.51564528676272,-215.91571081587642,-1.3989676044373027,-94.76658961645168,-14.226284815745771
1525.49850454062,161.82611168059077,214.4136763308942,82.3355297615501,176.96787803307257,126.77446143096222
1528.84552930445,202.33913627801633,196.1455744463684,139.43036366330784,332.9641669693614,260.44660795299404
1532.18796461755,-17.892366484818012,79.39123729501637,95.9516216430327,113.64609274620608,201.09793142299458
1535.52582173005,69.20642569589711,46.25073320032402,21.410310053579053,135.8640982882223,115.56119001814676
1538.85911190054,-26.379834941018203,-65.44320221493462,12.108020303660908,-13.226793628923076,97.126119901928
1542.18784639612,-10.758268192843161,57.96810773767049,54.37608353721356,43.502011383302175,189.24184040717466
1545.51203649256,151.1514696934113,70.42442556972173,75.80218608814067,221.9934356710286,162.44633493861306
1548.83169347431,-30.16520100078833,-96.60099905907288,82.13552234891341,46.244352287985265,24.68032191537469
1552.14682863461,-18.917720866117634,-83.88967506283097,148.33556619800362,110.52115419398825,138.8791957153913
1555.45745327554,188.15327170497108,13.699008525618638,277.102170555066,350.2246134281247,358.0636732559841
1558.76357870815,212.38358854351304,235.82630337044918,369.1728211719617,431.5709395703697,394.99882906806056
1562.06521625249,147.08646724285325,33.066234645780696,364.6083183444272,423.2567535439215,376.97086905789115
1565.36237723773,73.33668064795336,17.12189659969613,331.37506323955347,387.3429997014824,402.5955141957005
1568.65507300219,52.52369190439799,6.67708875980486,369.9709341520153,443.11886158876166,402.14754876273344
1571.94331489346,192.49101422034346,72.02834979245881,474.992044027763,563.1530108690846,492.42332402527416
1575.22711426847,395.598785326325,247.32856446659343,543.3642504486689,608.9061468175679,690.2629166866815
1578.50648249355,339.492040727279,153.99790417527242,517.9507045170616,570.509383049471,663.8772535591315
1581.78143094453,226.66418522564027,133.6489753110734,457.909769211844,500.20699315514105,501.06184006357023
1585.05197100679,246.98686904036003,69.73424430012426,431.98100365823564,440.79468158809414,483.1588027417189
1588.31811407537,187.80377962606292,184.9762633167063,418.77811976785677,453.5384001306466,447.7957552199344
1591.57987155505,166.73510236952995,64.17802198243248,373.48605657923645,424.6780549924262,357.4567491090088
1594.83725486037,73.02098196842792,80.5497267209202,320.38100363637494,284.377446831671,279.4715054769662
1598.09027541577,-2.24389879380999,-14.948140032351546,300.7787649179611,308.0545341593822,275.6096204366949
1601.33894465564,206.6847751153631,257.2902573869955,282.48003087697276,399.3208419305225,346.8292791047859
1604.58327402441,169.4054192804458,-54.83047735146374,206.1084765399246,190.63686104301894,177.26111810116223
1607.8232749766,-4.951414516583611,-97.40077177504608,86.84247460678392,52.51536113012622,-9.688573688889107
1611.05895897692,41.39225418632225,28.93721401406475,-1.4791866036483334,117.26433167902388,84.18922404320426
1614.29033750035,-95.19558110526026,-162.23556640497273,-11.966787269981985,-46.72546242178278,24.310720063532333
1617.51742203219,-121.26605434585244,-9.62208696661014,47.68097799045786,-104.82291269638345,-41.82378209512896
1620.74022406815,127.17672610231068,131.0966048459593,137.31499610485236,131.5687535299591,173.76553590812125
1623.95875511445,187.7550644862494,267.33201193972076,208.59341408339031,150.84321745110026,219.0236183775422
1627.17302668785,251.51392836437236,181.5294620542297,224.5990114677722,175.52599270038857,172.68300079063033
1630.38305031576,204.45207193832022,326.10509153866815,178.7444573310127,240.29835101803926,217.52719365858212
1633.58883753628,51.176975163015356,-36.48542230139073,109.0918075042683,45.79017669914201,117.24325032483804
1636.79039989833,203.8013859607994,74.71258243659338,74.92397920370821,57.28915119014741,65.12465082083203
1639.98774896168,120.84060768229318,101.37074772293033,97.3237177830992,33.70894733315642,88.480137133917
1643.18089629703,-19.949926715792287,36.049673364798096,134.03087057620195,-62.13864737443141,73.27661242666869
1646.36985348609,128.8794585615409,204.8261167807984,125.0486781754328,116.81976260799551,97.18080110993856
1649.55463212168,4.809742998836612,-17.623523235632895,60.866502622147166,54.66736959822473,15.30890325151281
1652.73524380774,-10.539921878382358,-9.871826789198124,-6.577487242976559,13.872461783791685,0.09139741345556018
1655.91170015949,119.95197364726323,59.53809240471539,-18.67697234142365,118.17584135285112,90.28682925583455
1659.08401280341,-13.324808516741768,10.12122109876892,40.06122024344629,-58.24040675261152,-12.699955437526654
1662.2521933774,67.32323640066954,-20.99258563856124,126.04219891891151,-20.58929220238923,29.194070787258724
1665.4162535308,272.81290929585725,298.15910595608244,161.92097154874514,261.31309249700365,246.55189560849544
1668.57620492447,126.99382093266507,102.27181215957472,116.09414973985461,149.99450845528014,134.28938462867146
1671.73205923089,-72.7187157975986,-61.37769823120156,40.57367187644819,-54.11736155978569,-16.36499574655174
1674.88382813419,-0.3522922401158439,115.35353919153273,-2.8049017121541056,27.548357489877276,93.71111382358615
1678.03152333026,48.3482455707931,73.37140602401536,-6.77984587844891,18.118077209721747,122.39520947342474
1681.1751565268,-3.4403524725473176,-12.184966778719897,6.994949550178518,-34.50455918687351,87.5335996491899
1684.31473944343,59.275396863260085,127.34591662079863,19.589652466846857,55.92047630997179,125.6476689243681
1687.45028381169,25.159665668796038,41.1772840353787,19.732787364169013,34.9401554098618,73.9314250002761
1690.58180137518,-56.95332822880016,-39.64595239723012,14.24862547095934,-43.7545480639713,25.96821483652664
1693.70930388961,23.407221726968885,132.09572425908738,18.62805566972939,33.751782890322716,79.29725023806924
1696.83280312286,37.26883349832991,-31.669629794205818,29.95534494439019,48.54691911991395,83.15687792067763
1699.95231085506,-16.85160084907028,-20.32716116051924,30.697600895017047,-11.744078867797725,114.65333532919158
1703.06783887866,11.293111040542954,73.32079158739336,14.589197025911943,95.31637396285672,197.860710111518
1706.17939899851,-1.2353183714160423,7.514337275927517,-3.288934092500881,43.091518823961565,101.38289873484379
1709.28700303192,-40.324742015171694,-22.455912764600868,-3.4637285969816958,-26.512090904771412,-1.078493624066141
1712.39066280874,43.101135770365886,130.37197556076842,8.12093070024764,173.3448164689788,89.01675619040338
1715.4903901714,32.161193174910636,82.03883777553679,3.6940582118567704,100.31484166946882,64.54953462323095
1718.58619697503,-108.00357319616258,-42.45658422102878,-22.394864327591904,-79.62594697318389,-54.08244585169825
1721.67809508751,-32.53833991228797,95.61112580836826,-41.55537407898862,-17.412531716269257,-2.142442663622944
1724.76609638951,40.32740820803561,-67.61649924675919,-28.879567538526373,-22.321046875749516,35.505147297157464
1727.85021277461,-54.76032182660995,-88.88260866516003,13.67099295687683,-32.47828362374685,-9.714717226958214
1730.93045614932,-14.520143712918511,45.57530540735377,65.5904848860755,61.74044426905209,24.84493939842423
1734.00683843319,64.36172584259512,44.002717139702895,97.47928585413695,85.4188807242823,95.22255520058832
1737.07937155887,63.2989475375631,58.27798683293844,85.71616460494067,45.53282602503549,143.55104848409292
1740.14806747215,8.376279121679033,12.13196242179339,38.95973363883269,-5.378527923142315,85.81110669809743
1743.21293813208,-110.95317057675337,-76.60951280138988,3.5056926974292537,-83.11054103880747,-39.34443779444405
1746.27399551098,-29.5447946297854,-61.759715271010066,19.989040188396984,-13.804286592087578,30.4005285592134
1749.33125159456,156.94149274370355,140.01755657468573,75.97909244670018,175.43953512928596,178.4687090176442
1752.38471838196,107.4033663579742,67.89665572198538,121.02799033561922,144.65666729609052,195.75205924265356
1755.43440788583,42.17621965354422,126.15683201959905,128.78599902046778,49.796725966183885,196.46682847093626
1758.48033213238,58.93074811759092,11.33823985889029,125.55064300303638,61.08917018462171,138.5278251785238
1761.52250316148,17.026687009855863,24.850756504478795,143.50899207682727,20.145630761914845,94.43997444998763
1764.5609330267,118.74087983648954,191.14534656580395,160.51486058306608,155.154941428379,237.82588807929585
1767.59563379538,213.9110387625601,133.86583955383833,133.63172704249416,220.4455923427347,248.98617522084578
1770.62661754871,34.83770248722868,4.558120534248587,81.43653354700757,-29.14946833241777,86.67371661829429
1773.65389638179,29.098500489089304,16.538718327408503,53.909511641967356,21.51171251939138,126.71336323575747
1776.67748240369,136.21983562856673,117.17244449036184,41.91880883437648,166.51322505632163,189.96339402374963
1779.69738773755,-57.18669904947711,-37.534268652510036,12.20842416806488,13.980167626715456,60.47779251481984
1782.71362452059,-105.88114536998688,-39.5913941528147,-6.637352096149812,-46.79516759740477,-27.203899740792508
1785.72620490422,26.2923111981097,45.05259038414454,34.25820244541694,1.5018879762825463,18.27082374525196
1788.73514105409,46.28093894337428,156.96466624730158,115.47096940101687,101.71307998351415,117.25800714852255
1791.74044515017,191.1351650102417,125.14063942703297,164.68800724783716,206.7811043546758,180.0568415791073
1794.74212938678,206.95284821040792,43.120696116842396,137.86762357846897,107.60656956550679,115.50584684944022
1797.74020597272,-48.521548908211,-64.74727438212938,60.29671725537071,-28.956640287615073,-6.057686528291356
1800.73468713125,-64.297897261132,-56.55176170403422,-4.621622171198737,-76.4498167694569,-33.369456966681696
1803.72558510023,49.85651892033752,-5.586460535281049,-20.461325069240615,-38.243307605945574,48.242378280789126
1806.71291213215,-4.6110294638949085,-26.38240052122751,2.306208346203448,31.289850038475038,93.3909343864284
1809.6966804942,-18.258884499691533,12.256254788239403,46.639108627943074,3.4680802854568356,35.201801826030874
1812.67690246834,27.32859314509085,119.03734558015532,106.64445539720725,24.7287052190984,4.732591401189097
1815.65359035134,21.11255723428212,35.046001563110735,160.15670803377589,60.711756523539634,77.64586888460462
1818.62675645489,35.86833870878149,73.45839107345893,168.18812434679137,40.02515665042756,156.31703883957164
1821.59641310563,38.33108474801105,11.688885808057648,122.02906665679927,100.42620460760554,115.51226184470454
1824.56257264521,-11.956969023765055,37.469443076193215,70.23490903405491,46.48888191102742,3.4465094293914262
1827.52524743037,-6.631703289320797,-31.902156223891552,68.53822448913081,-22.51396600464716,-0.07421966930826329
1830.484449833,-2.258532030648041,-2.4611354226484536,102.83895018040414,110.48125294822535,79.20920917190438
1833.44019224022,-5.838838596642233,19.92714121323411,105.47884110509779,79.18133839812026,94.08213464258642
1836.39248705439,14.349729730633385,-26.953063697423318,58.482415490300355,-71.39232238507395,26.791587923470388
1839.34134669324,-55.3769000709284,-30.723824269132933,21.892827137483323,-63.068780659803565,-32.97668249599428
1842.28678358987,-9.560942488916055,-86.56903346647107,38.433851031323684,11.711917813510581,31.362897512051518
1845.22881019288,55.377883803463305,52.794897118928816,76.11139816370041,58.97291772028893,68.11067765898997
1848.16743896635,-53.98872317809537,-11.985914515696095,94.15212291812065,-8.18704362546589,-34.70010391968992
1851.10268238999,18.445698764365602,66.79009402444512,94.00391542654415,41.663009776213016,8.64522854044833
1854.03455295912,98.08239992319136,126.21224638856063,78.92763042060642,152.14090354922246,135.54026310154916
1856.96306318481,-2.825007639455464,-29.93293251705336,37.95489610822585,33.6922440536365,61.274714677888596
1859.88822559386,-26.477290938900182,-10.136781901993004,-7.932458269914946,-30.27128047910321,-13.053955605590886
1862.81005272894,-20.617237942587735,28.114534123426097,-10.164932263848641,-38.159664047349224,57.87357976692863
1865.72855714859,38.359816809189795,11.260134367878663,40.39177888154052,-19.920631744037564,88.94651406543744
1868.6437514273,90.72095176179232,147.9638779401265,99.78444251239546,83.72917273491316,71.15586429513348
1871.5556481556,58.24320535252531,-10.969135010568266,125.71322521492448,100.23018321855807,117.3906709349219
1874.46425994008,42.29418135800256,128.23002601505777,107.9966057961932,39.319519191342465,105.66550145647238
1877.36959940345,-24.783348653724033,6.243959615312065,60.90010813499441,-9.373985138351259,14.223813151441163
1880.27167918465,-37.13258884110189,63.13431704347204,15.421294765598986,39.26906649311559,17.409657509295698
1883.17051193884,-2.4614181520861393,-34.00104187220143,-0.29804539976407796,-9.561972053032378,7.475549732859463
1886.06611033752,-17.067493223607244,-88.6803014033386,9.037689599812325,-72.08319306606916,-32.38771480928472
1888.95848706856,27.22489167704134,110.95528987296359,8.509800659832194,7.164942588198528,51.36187898687342
1891.84765483624,1.2447034962309544,-8.428858709801602,-16.532357753103838,9.913072951964182,78.63047979252451
1894.73362636135,-63.42065905451784,6.737038622131081,-25.614356300147165,-4.801181786655889,11.408887130877815
1897.61641438123,36.92285399703644,103.12938710393723,19.743228461993567,39.18462931277793,67.13435595135275
1900.49603164982,153.87479069197883,119.17273544417048,83.65843321464138,112.90385556019191,173.99105976792555
1903.37249093774,137.5784803847514,38.43340472318482,103.00523763471597,101.96747479569137,155.04627733192387
1906.24580503232,12.826317742801962,-9.189431383162514,81.87927382601686,32.108891366688795,30.59848885044471
1909.11598673768,-81.24102363461054,-25.991342574934947,68.14043770356704,-25.317973245489497,-22.81399483164728
1911.98304887477,45.20893181648728,-21.492542423214672,63.032602632040835,5.418838142834488,107.92593825290942
1914.84700428144,122.86650259658484,80.28452602389154,33.96039297309699,98.86976730854462,160.0372454671941
1917.70786581251,-20.889376028312086,60.252269990241075,0.7567182397245915,-30.968700831943465,-5.215737045782703
1920.56564633978,14.420541284765022,-81.70455462959535,20.79243733371254,-25.424052588177915,-14.708525336414937
1923.42035875215,99.87201066187322,47.88541268746599,95.6066518076342,148.53781469504327,126.17622223857552
1926.27201595561,48.468995117478926,10.072187623241462,166.6491539613039,137.5851601581296,127.80492610828583
1929.12063087336,132.4758951722863,134.05803289878156,185.23506062084402,165.71208436185339,134.34802045332344
1931.96621644581,123.48129861056168,139.05005100758456,147.26757733804936,126.11423247447124,155.26036382371308
1934.80878563068,-9.355728400652993,-37.15563393555567,93.90520705330664,59.86972111637988,69.78736981170925
1937.64835140302,21.550251760503443,-13.249850080598094,75.30597983034988,94.96607331860287,28.02386088410367
1940.48492675529,49.05076438166782,111.86702523703673,83.14031727195231,40.74908523225645,66.25115848961104
1943.3185246974,45.77398971233163,72.00451622364926,60.609947588810655,56.541382729082216,73.7903044627119
1946.14915825679,-26.020393841925284,20.3847243103927,-0.6140194335787328,-17.28520415441335,-0.6231393282648696
1948.97684047844,-153.25115809842384,-142.99047775713257,-39.00482759556576,-128.3375352445007,-57.586809039773016
1951.80158442495,-39.074028753099356,-80.88457358724668,-19.4845757934595,95.99500668608425,1.980692148521257
1954.62340317662,61.698822206116574,120.10714151710295,18.82254428847591,127.11492446134912,27.732696507157243
1957.44230983145,-16.71177112103487,62.19727702575551,36.34336954016226,-46.61325591425248,-13.954431182718508
1960.25831750523,33.39566068295824,34.49869200485102,47.6292622484973,44.342692117395245,20.582793440074283
1963.07143933158,141.10790188807698,64.34322980127865,73.1995029915438,128.36097485394953,82.20802085533523
1965.88168846203,161.89123892204975,124.0836069162666,92.68820910970521,152.83756555370064,101.68772639498752
1968.689078066,124.87014369502378,150.8765096466069,74.0859742216353,172.53775560915824,83.23741349138504
1971.49362133095,13.122804122027674,-34.34688839343244,18.978230799753874,24.060320190269067,0.6993440769690551
