Wavelength,AA_HS_V2S1_H_I1,AA_HS_V2S1_H_I2,AA_HS_V2S1_H_I3,AA_HS_V2S1_H_I4,AA_HS_V2S1_H_I5
341.6070517,-67.22238168,-13.61860664,-19.51073725,-39.86908815,-7.493063136
346.7134786,23.4855014,85.91923019,16.29552209,41.24440513,65.20758579
351.8120798,14.69903406,219.1191863,173.1608404,184.3042581,159.4169123
356.9028684,85.1040741,351.1151756,226.1908641,173.0129075,136.1433892
361.9858576,140.5912163,207.4217605,-9.252534332,-29.15227685,16.0605303
367.0610602,4.659707212,255.0863267,136.9979672,3.094599977,-10.60647304
372.1284892,2.889540276,177.0579427,43.0997217,87.9833387,66.56609663
377.1881577,44.4031478,211.5361811,-24.51300489,21.9836964,140.4655925
382.2400784,10.92786746,259.4421215,132.4244266,117.5896658,167.4067844
387.2842644,-4.874183081,56.08663098,-9.758580616,181.5852515,112.407423
392.3207284,16.84863777,77.3704236,-18.16241412,98.8201043,4.664894941
397.3494833,99.40500328,-6.817579255,43.85022397,39.29601928,-29.0560237
402.370542,105.4920552,34.66518221,-62.54331662,-36.03394544,60.9554006
407.3839172,195.4055771,246.1546971,-6.898661771,30.20693546,165.0004134
412.3896217,181.4221757,169.307649,189.637738,185.5624332,162.6243998
417.3876683,147.191012,274.5704458,38.33849025,95.74561481,84.98126004
422.3780697,188.0625472,242.9446023,50.40567023,-17.22089198,23.89864668
427.3608386,77.01061777,7.965785162,84.52415585,33.2084734,6.158921333
432.3359876,131.5065514,75.74384103,53.9633929,69.60278186,32.27124582
437.3035295,192.4352572,96.01505452,-0.086775684,149.0917211,42.33887051
442.2634769,-2.333710202,26.63206985,63.34003553,85.54718315,-6.037459459
447.2158423,-86.13170773,3.8494661,-141.5341223,-58.61824187,-10.71588168
452.1606383,163.7231809,98.97996092,13.8981182,24.53334172,25.08513306
457.0978776,86.70353152,-42.14960895,-15.14537431,-12.9598763,-12.6053627
462.0275727,20.32149983,-10.44863793,-127.7192389,-32.14829396,-21.17587294
466.9497361,283.3308572,355.3731655,178.0969467,150.8380472,90.14967486
471.8643802,134.6114545,256.5519427,62.32639857,124.960755,193.0167966
476.7715176,298.5104111,292.6625067,164.0070721,188.6308447,271.7609534
481.6711608,583.0124632,548.5367465,366.4566295,501.4384126,390.2698904
486.5633221,533.8679138,731.0561514,406.0581864,604.6723275,467.6689916
491.448014,649.2504461,801.9658387,378.6151704,553.8135546,462.243983
496.3252488,492.4270178,522.9995519,314.4070457,411.7988803,407.3093764
501.195039,301.8270432,419.02064,51.16673803,226.096867,302.2790991
506.0573969,319.957337,328.0410982,183.6103494,213.9423113,235.0113423
510.9123349,306.4545076,356.7609586,116.8364937,123.1043721,289.4852262
515.7598651,260.9232047,430.9005365,124.4665059,44.3806651,337.6752807
520.6,204.0349157,189.7754369,46.11187572,102.9710368,265.6522853
525.4327518,193.9489874,243.1805014,-10.18389941,41.97829693,190.5679923
530.2581327,34.23010407,269.3934651,-10.7365852,82.09905897,239.0240682
535.076155,71.88420686,300.8248166,45.32284096,229.6340251,334.2782447
539.8868309,201.783318,376.8051969,258.3446988,213.3358997,326.0859091
544.6901726,-0.134384099,168.4589521,7.681435883,33.02001772,251.1869783
549.4861922,27.75336834,127.8030965,28.67816137,-39.78190839,240.4360752
554.2749019,168.4599965,258.0477511,142.9590356,118.6470586,182.0196099
559.0563139,37.26633844,168.7376407,159.7078164,92.78377013,-8.447915811
563.8304402,-76.51832725,-28.08787446,-160.5495567,-71.09823867,-62.87595148
568.597293,-46.34308001,11.82798557,89.13837708,-8.365803225,68.05506273
573.3568844,45.50010137,106.8713031,-62.66814143,120.5967798,92.44006106
578.1092263,82.43477406,158.8495223,59.73910814,169.0892325,30.8112184
582.8543308,134.3641804,255.2320104,149.808344,167.1363276,52.49584401
587.5922101,126.3978589,145.6984944,26.68948524,117.2671679,86.25089168
592.322876,78.51784493,115.9595253,180.6083647,152.1188782,89.83072708
597.0463405,232.6015535,248.3419521,271.4856469,251.1844786,92.50504403
601.7626157,276.5805748,20.09211106,170.5242824,190.8586774,62.6483737
606.4717135,121.5063961,-17.7790662,-24.52601661,97.39612182,34.62566178
611.1736458,135.5475978,167.7550246,100.6146705,156.3948326,73.61752576
615.8684246,304.4999912,218.0233546,93.77372019,206.5424282,105.2382585
620.5560617,257.0034482,145.6525282,44.96399533,107.2079658,31.1465227
625.2365691,-3.754558935,25.46335219,-36.85557984,-13.42519352,-44.67792267
629.9099585,-6.587794156,56.09548504,25.11967977,-10.89620954,7.736127276
634.5762419,153.7877357,-24.89988716,149.2663504,30.19416425,84.39864219
639.2354312,109.9654523,101.1413665,2.983699431,13.65681964,87.72243853
643.887538,138.9067044,215.3538344,19.88196381,29.43496041,123.2360049
648.5325743,299.9633866,227.6321973,279.0150151,138.0199283,221.3425156
653.1705518,269.9479411,220.0444739,128.7434874,114.6238288,228.8898815
657.8014823,184.5425313,111.4915818,134.9376006,-8.244823747,120.4967926
662.4253775,186.5485977,233.3265108,24.36627538,22.17520139,70.8467633
667.0422493,224.3346,118.6783856,18.24029917,30.63529259,104.6342214
671.6521092,141.697386,15.44732278,47.31647684,89.15845746,72.85267517
676.2549691,21.18647365,111.8649923,1.761691887,167.3449485,-13.06289194
680.8508407,-16.71386207,3.546505955,-72.16679141,-31.2107138,-29.02451054
685.4397355,-19.32532708,47.6599304,-39.83765258,-39.03609373,26.04531308
690.0216654,91.14449415,116.3341329,82.20799821,145.7546391,61.87498089
694.5966419,18.23598362,-4.053845929,27.2795435,21.74599491,28.92546786
699.1646767,-19.41863754,2.341935512,-60.53922106,-87.02958283,-7.254642499
703.7257814,44.41443304,73.56568211,23.98023737,46.15297349,24.89463075
708.2799676,-45.93304305,133.9660213,108.1016156,205.0328186,70.50948912
712.827247,160.5507583,207.864933,328.3072476,284.2357782,99.74216229
717.367631,296.5864237,295.2096431,236.0213232,234.5197713,170.4262036
721.9011314,76.99410091,226.8751338,147.5876328,124.4340701,200.8491039
726.4277595,-8.449600355,163.0016362,20.47150401,40.97498853,76.33525382
730.9475271,4.535332141,114.8958049,7.245867005,-15.41676567,-44.24951562
735.4604456,19.52514407,34.17420334,23.25039223,31.03431466,8.553124143
739.9665264,48.47479903,120.1011671,108.5901204,75.58527474,100.1613717
744.4657813,45.75212176,116.2242367,39.3696755,0.390303427,73.62816999
748.9582215,28.86706862,34.58245769,-7.602261121,-11.3684075,-2.139803988
753.4438587,-29.1946704,-71.76816566,-18.41224012,18.88139209,-5.183371145
757.9227042,-41.24070366,61.97733807,-23.0807652,15.26999225,18.33155872
762.3947696,-3.492221514,14.93720347,18.62968976,-11.41137367,-14.79712179
766.8600662,-29.79007151,-29.47198538,-52.7832197,-66.09099001,31.86240369
771.3186056,71.20256837,227.1435736,235.8091514,47.27981221,188.6714184
775.770399,167.0108467,150.2329748,21.42954851,99.92124341,172.1933266
780.215458,10.99780161,-29.41646431,-20.93654574,-70.62425533,27.01049317
784.6537939,156.1179318,23.02720515,-21.45249359,31.88271815,104.8771244
789.0854181,263.5729336,164.485691,227.3232928,171.9786728,270.8524923
793.510342,117.4560013,-19.40773856,85.53138464,33.51846675,179.4159089
797.9285769,187.9894288,6.188060449,52.28761255,-11.33573223,-30.53826615
802.3401342,-5.922668643,23.96045106,6.932758383,-15.28592269,-40.61969836
806.7450253,78.85272767,33.57076454,-33.26654932,-12.12333512,124.4205225
811.1432614,290.4487822,107.516435,173.6725439,27.51496089,205.9035919
815.5348538,180.7289759,12.16790475,66.18374475,9.791079704,135.9028904
819.9198139,184.8465191,160.3489328,157.2018424,7.217824313,93.75737433
824.2981531,-38.94997571,32.45907566,52.02818639,18.28425478,143.3219482
828.6698824,34.5917247,45.84184443,153.6395534,26.03769348,149.7343711
833.0350133,116.6440455,62.82877101,-58.94188659,-35.40423961,63.94910463
837.393557,-47.31175926,-64.08475213,-101.2060888,-12.85368434,-3.04210707
841.7455248,22.75576198,-7.568040039,54.6722852,8.443246509,8.480641036
846.0909278,-13.62048675,-30.95174384,-38.91600624,-83.74625644,24.35600365
850.4297774,1.286537425,6.312026148,124.2163257,34.9730623,-0.881492986
854.7620848,-8.061405235,-27.48378663,41.61987402,100.9694907,1.015913187
859.0878611,38.78968654,19.13832039,-0.122534331,-8.915514695,52.70762825
863.4071176,94.33707867,80.31263499,-27.75747018,-12.32097182,76.65490741
867.7198655,-8.7510687,32.02091096,0.02485946,22.57941754,67.90508052
872.026116,138.0498315,72.77722395,172.711924,74.7555832,75.94716535
876.3258802,145.0718995,130.6318631,209.7426316,91.77235627,92.76363697
880.6191693,72.1175263,210.1185778,224.1550926,126.7235729,132.6408667
884.9059946,261.2579805,224.287277,286.1019688,200.3195009,212.7304325
889.186367,190.409779,169.7807948,171.2451583,89.12530387,244.7093955
893.4602979,25.55182764,160.3227113,93.57347409,28.81663903,141.2236972
897.7277982,8.352846717,84.65701167,67.85543236,85.81660507,-7.597662917
901.9888793,-43.05760116,8.944260287,-63.7723293,-16.86255118,-8.511797347
906.2435521,81.72790937,105.5359774,192.8109724,39.39735956,132.6711726
910.4918277,197.7603541,183.1589793,176.3396828,148.8097753,189.4439428
914.7337174,27.66616328,3.747176545,63.83597194,25.03880566,122.5019062
918.9692321,50.10498255,120.5578138,44.37515209,68.2164275,106.759295
923.1983831,134.4281116,227.2588019,183.7968196,82.18750549,98.55974624
927.4211813,-41.73716087,-49.20209579,-7.149503376,-58.65007999,-0.814449889
931.6376378,-53.79164565,-4.916900621,-98.0464369,-19.73182029,0.757995308
935.8477637,-9.020629413,31.83664176,83.25118891,69.52896598,133.0576711
940.0515701,-13.69375233,25.38668689,-29.26669724,97.11847891,115.4846618
944.249068,-30.14584634,5.732746245,-15.25453965,11.89871418,-11.6544674
948.4402684,-1.100303409,-22.58950609,-1.358589991,-2.432320515,24.36982217
952.6251825,47.01440492,89.77103255,139.1454315,66.21885466,121.7924311
956.8038212,-3.987858181,75.22105087,7.585612589,-33.60147789,68.45964305
960.9761955,38.71175848,110.1372839,27.73635686,1.860030381,-14.5450956
965.1423166,30.78543849,206.8763492,66.81157077,110.5337468,11.59302549
969.3021953,40.42861527,152.2365245,59.53382428,58.34902544,60.30513204
973.4558427,40.90201116,-7.309578374,-36.80675107,36.78760044,61.63516492
977.6032699,-21.95712964,105.3551201,-28.19288506,46.97250038,48.01687026
981.7444877,14.90985825,199.9374044,-7.602643119,34.11170823,21.69496617
985.8795072,-51.11082348,87.97180746,-57.33569595,-39.75139169,-20.28691943
990.0083394,-113.0731722,23.23807874,-24.05465124,-37.83076539,-23.83645541
994.1309953,40.26419329,81.66981929,20.31978978,72.03748993,18.51796883
998.2474857,132.9557512,169.3889042,-1.833051804,125.3030703,75.08087623
1002.357822,128.2679749,298.6740329,167.1687997,216.0880567,152.7130712
1006.462014,193.2710658,397.1961957,285.765109,257.9094137,186.3899737
1010.560075,211.5881706,240.3412819,117.8935131,241.6199888,132.696904
1014.652013,178.3495058,240.966856,68.86482974,217.9550365,130.3282366
1018.737841,103.3379974,87.28783005,101.6141906,128.072853,220.0335548
1022.81757,82.27628231,62.86666005,113.352499,193.1633565,224.215381
1026.891209,44.49778388,197.6589178,40.4088474,152.6102248,89.58341877
1030.958771,-20.76281863,-17.42619418,-56.4515113,-6.434014445,-23.64422511
1035.020266,-11.35429632,146.4243125,-40.39144927,124.8423061,-19.95135567
1039.075705,0.545270166,306.8791591,41.99599968,121.0132587,34.06844968
1043.1251,79.86742267,192.2788107,-0.557073014,34.43185053,46.76984135
1047.16846,71.79363533,75.54589534,34.14433211,82.31422315,10.53991188
1051.205797,31.1519893,6.803736019,-38.20227776,-50.54677764,21.93998459
1055.237121,103.6169164,198.449758,134.0170517,33.56961289,110.982618
1059.262444,300.2149689,338.7437434,227.7782919,302.0536024,207.7766647
1063.281777,589.6753227,626.3384623,606.6874341,464.6845728,439.025171
1067.295131,933.0063554,1116.164559,1031.65737,909.039991,901.4101918
1071.302515,1276.434422,1327.087518,1206.509716,1295.294735,1257.461047
1075.303942,1286.918997,1293.858007,1215.187369,1268.821389,1234.797962
1079.299422,1025.471382,1031.746058,963.2362391,1026.904229,970.1433296
1083.288966,589.1591813,633.7652287,544.122331,517.5209889,592.8066616
1087.272585,169.0954772,270.669939,191.6179637,180.4024361,199.4093896
1091.250289,95.87760967,129.9485961,25.41745281,169.2520166,-15.76611624
1095.222091,34.00705227,60.75260472,-67.39509578,24.94812465,-34.08344888
1099.187999,-49.94109655,-38.46457387,-21.28904394,2.830844533,14.95656459
1103.148026,-18.09930459,5.306806501,24.31809961,45.70483742,54.46150211
1107.102183,-23.75133282,30.35864059,-59.82902466,-72.52105164,24.31080366
1111.050479,24.12259627,119.6402095,3.422635179,-41.15879912,-32.15978347
1114.992927,84.93401012,105.1650969,63.74635503,18.77825499,12.85203145
1118.929536,184.2318319,91.1545021,24.41542316,89.95606251,152.8410527
1122.860318,346.9657025,304.9927326,212.3550452,300.73823,336.5556247
1126.785283,627.3615436,637.0083819,440.332183,606.7855288,638.8536548
1130.704443,1156.7128,1166.699381,998.8892179,1073.237524,1113.582495
1134.617808,1758.375339,1666.145912,1378.948322,1605.344359,1646.461155
1138.52539,2173.721871,2046.04743,1836.622384,2019.359853,2000.606531
1142.427198,1993.754694,2005.76016,1704.935143,1982.361828,1912.928099
1146.323244,1420.437641,1340.344028,1146.427048,1347.908003,1357.495168
1150.213538,854.198914,724.6263582,630.5647589,676.1926887,702.188813
1154.098093,361.6694661,447.4852013,227.1752058,378.839899,291.9643071
1157.976917,191.4931717,146.7656688,119.7094146,161.9656024,109.0206406
1161.850023,141.01023,8.702847975,6.339109684,-3.30878462,24.49384167
1165.717421,16.45940732,16.64532916,15.84074365,-4.40046605,11.51212865
1169.579121,10.45018997,-7.837934593,-55.28730402,-22.17474123,60.37193441
1173.435135,31.20267092,146.5012585,61.91423332,15.72939868,114.8816067
1177.285474,-23.2812737,118.0246062,-51.48510019,16.56568899,127.7016959
1181.130148,157.3348371,183.4456353,48.36929019,32.38149191,148.0533689
1184.969169,370.442057,412.4769714,276.5893363,240.3643319,253.3078582
1188.802547,403.7970038,431.1286175,362.9362368,274.7897313,377.687699
1192.630292,496.0396223,369.350161,387.0192972,190.2649227,398.6241999
1196.452416,393.5251135,373.5409625,246.7168353,232.5092513,336.6229331
1200.26893,229.4590612,450.0544563,310.1141681,179.2531017,240.8081619
1204.079844,212.0687563,224.8371182,152.2074045,67.78063496,86.67135287
1207.88517,122.9401047,186.1491695,-26.41595253,34.4891149,-43.81161298
1211.684917,15.50133717,176.4251053,3.103593588,-57.45440984,-4.541083045
1215.479098,164.3674027,127.881075,105.0699378,48.44400999,140.8025717
1219.267722,351.451945,386.3240401,345.9822556,302.5686401,185.3065471
1223.050801,166.4353253,324.6041827,221.239768,166.4070406,128.6572543
1226.828346,93.01110461,255.6308217,174.7072767,75.76709682,132.2179189
1230.600366,97.18146874,212.4686786,140.7375101,164.5211425,131.9858131
1234.366874,-88.83536586,-18.6742641,3.502777041,-23.51843743,13.7382107
1238.12788,-36.13510367,-16.04064523,-28.59203116,-53.80954663,-43.11664929
1241.883395,37.08618745,208.898846,143.5484578,141.7398307,27.48821289
1245.633429,5.328273675,241.3474903,193.8786273,79.57895792,27.07993853
1249.377994,0.58467505,150.8474867,44.39070878,40.03490319,4.874425999
1253.1171,7.688415049,193.4328782,199.9462238,231.4659671,87.26588012
1256.850759,80.34393493,146.7919722,210.2070843,148.4188062,95.33780051
1260.578981,16.55636327,95.69344006,-36.2550829,-16.55275427,-1.826014432
1264.301776,25.31893037,169.2276302,181.8464423,118.3234878,12.99879379
1268.019157,89.85133818,227.6922624,227.441809,127.1199697,112.7277851
1271.731133,64.72162314,211.3281495,271.8163181,111.7881629,137.7709357
1275.437715,115.8814627,115.2058242,130.1221547,171.7952401,104.082571
1279.138915,34.87341712,22.07354775,115.2382718,66.57452386,93.31177223
1282.834743,31.18547631,1.658099791,213.5227158,19.83498657,91.74531127
1286.52521,4.080574709,51.94003785,-59.16395389,-33.05504579,14.9465583
1290.210328,-80.27993483,19.71887233,18.57751751,-58.06465862,-68.23266594
1293.890106,80.08573433,-54.41482986,-28.72377373,107.5927857,15.14216407
1297.564555,128.0831716,102.7156583,146.7427784,151.5398336,159.8755519
1301.233688,175.9222235,107.8884177,49.09701807,48.54760684,145.0746367
1304.897514,143.3726825,20.54305105,140.8714198,40.29861662,86.5047366
1308.556044,126.340734,189.7328974,68.59231204,152.8668403,168.001072
1312.209289,178.7317481,176.6133361,223.1611071,205.8127582,224.4816284
1315.857261,-33.69684627,95.30062107,60.87954471,101.9765097,101.1426472
1319.499969,-25.46376175,59.16518425,-88.47879573,-2.314149829,2.560153514
1323.137425,12.17079106,-8.040407795,189.3604355,-1.721281011,58.4995795
1326.769641,43.32997163,34.04311286,87.29065232,72.10755267,80.85484328
1330.396626,90.73113256,19.05138504,-2.360525074,40.39329237,14.46874238
1334.018391,-11.94025227,-5.621966541,45.19873831,-46.76112169,22.7201149
1337.634948,42.48399513,8.789410967,103.414674,23.18734857,83.83276035
1341.246307,14.90153702,-19.13677877,-46.96687996,22.86817547,62.09299976
1344.85248,22.40310785,-16.49741299,-16.29854298,-26.43162249,7.610338633
1348.453477,43.36205676,5.543974796,95.69666546,14.56779082,-11.07599331
1352.049309,-43.06434088,-26.63514269,9.436606545,-48.33930213,-26.53317783
1355.639987,-71.79850441,3.250094905,-36.33477059,-10.05378345,-0.282214293
1359.225522,-7.282689337,33.92647317,115.8089453,140.6756091,75.87887298
1362.805925,-0.770315876,-56.21819762,45.59998063,93.90039896,96.84626757
1366.381207,11.56312404,27.83720948,-3.88115111,39.8769182,79.61261681
1369.951379,217.5401454,181.4834257,261.6467563,164.1834369,116.9352775
1373.516452,256.7993884,250.1799101,265.9324175,308.4542259,203.6034562
1377.076436,425.7316469,429.4614504,375.581357,382.400547,339.7659041
1380.631343,630.9251601,547.3108119,662.4249546,546.98014,531.2915184
1384.181184,836.5821256,750.7146706,807.0057587,880.5161154,741.5340213
1387.725969,1120.301629,987.2017974,1113.017849,1089.587175,931.3974923
1391.26571,908.3920589,836.9648898,852.1247134,945.374913,974.9183766
1394.800417,637.5091452,595.8787293,569.7293976,623.9421505,725.4794389
1398.330102,301.302405,330.7338361,264.5462849,288.7358637,297.1693907
1401.854776,-14.39565889,67.65066954,57.57449678,-25.56960314,13.38132271
1405.374448,26.63857727,-7.73165732,-56.51809898,-76.12257683,-25.3593089
1408.889132,30.64970237,31.46254693,-44.75487142,43.00944957,-6.420525987
1412.398837,-82.73450014,119.4356512,-7.826210866,23.9112178,32.12869606
1415.903574,32.28943129,263.6366638,123.4976897,187.8628468,233.578238
1419.403355,535.9782913,582.3932508,575.1624951,545.7074291,579.4543341
1422.89819,876.0481504,942.2558865,807.7403487,837.8660027,976.0724635
1426.388091,1128.630089,1286.157049,1113.121896,1253.32679,1340.956761
1429.873069,1317.272251,1433.868746,1222.330067,1491.224971,1441.113846
1433.353134,1139.168461,1284.686249,1095.425535,1241.176426,1201.283494
1436.828298,837.0718634,1014.088911,838.4219906,845.7822642,902.4776299
1440.298571,472.6621191,765.7793116,457.2488244,532.6212639,670.6490942
1443.763965,250.3450068,569.9881156,252.7693082,230.9075448,399.0164464
1447.224491,122.284508,327.1973042,56.56922016,47.55070406,180.0689645
1450.68016,30.39110779,330.3417248,39.12309661,136.4519096,137.400779
1454.130983,73.19438524,346.4215254,52.45920317,178.5913206,148.5503511
1457.576971,42.6684945,234.0310862,-6.285180196,93.32136095,108.6955104
1461.018135,-24.25959725,294.3925583,-13.461294,40.67220295,58.80578427
1464.454486,40.13288108,236.2751394,-36.53307772,-33.53037645,26.63483185
1467.886036,110.6203857,233.0796606,-21.28570863,0.008063339,11.35702538
1471.312794,-12.85287394,224.1204152,39.98925432,37.4126431,30.16346442
1474.734774,6.304828198,101.9816521,-29.74500737,-12.34044094,83.8560509
1478.151985,112.6414891,146.9646286,60.14613593,0.804453365,104.3353219
1481.564439,-7.240996619,112.25364,21.99502768,19.0852116,25.94643959
1484.972146,-10.55452239,86.42173502,13.25768412,-32.56456177,-73.86452629
1488.375119,-21.7661033,-40.03609486,-142.4149251,-83.22895666,-68.74572176
1491.773368,-27.76259056,26.81186414,-63.74602308,-9.666201705,2.13847391
1495.166904,33.7227054,160.0122891,53.70868545,17.02358872,18.83240181
1498.555739,-48.31073904,-18.94920051,-66.4635626,-18.55547674,-0.891498675
1501.939883,31.09179227,92.95671397,59.30853921,26.58049952,4.186346857
1505.319349,-1.107926027,65.48776368,29.18840728,-17.75449348,2.492644691
1508.694146,-64.01966609,12.27344535,-14.55256235,-8.91340113,-12.50119664
1512.064286,118.6784705,87.9963135,52.8605269,74.45549141,-5.557415256
1515.429781,117.5944845,76.19422861,9.512628159,43.13531194,14.12410201
1518.790642,145.2220303,82.01241502,-68.85150053,35.82113849,18.02831806
1522.146879,100.741417,-45.84826554,30.21791921,-21.81590896,-12.25356999
1525.498505,42.53504233,-20.57254719,-3.766326876,-32.6304129,-33.76592043
1528.845529,96.17938166,31.69572219,61.36476437,86.04369821,1.88415545
1532.187965,-22.54729813,30.1265154,-3.136084704,41.40402026,23.31299765
1535.525822,85.03769024,-25.64632136,-91.5698348,-1.401568959,1.598916884
1538.859112,105.6461569,21.81754744,-16.80658557,11.17701709,8.759098372
1542.187846,40.86769538,79.24972928,-37.40239453,-21.69829039,12.08450181
1545.512036,199.3209636,31.30549177,-53.81782595,102.343794,-10.21893119
1548.831693,250.2463423,209.3924445,55.21269857,211.5230938,29.8701788
1552.146829,249.0316669,102.5640953,4.214487054,185.5071648,98.29248154
1555.457453,225.7995678,82.92014222,-44.79141179,221.9137266,105.9816977
1558.763579,279.0644947,278.711017,61.58127477,299.4063287,113.5212238
1562.065216,303.409317,210.1056277,-28.51839242,357.5870986,185.2099127
1565.362377,307.3138132,291.3433629,58.44272802,412.3339915,280.0535977
1568.655073,394.924136,372.1846715,106.6604925,533.3547741,366.6031264
1571.943315,512.1237332,476.9223442,180.8262787,660.3169071,460.6017384
1575.227114,620.4214881,518.8848932,306.6678383,586.1932031,534.4814425
1578.506482,542.7032912,460.8105832,65.23624266,537.466165,528.3026353
1581.781431,516.3977882,493.5706469,171.8563888,572.3234061,456.7043579
1585.051971,468.7572333,412.1887285,53.23539191,429.6500494,368.5506974
1588.318114,304.9523852,359.3783126,127.5124613,378.7056479,295.0969237
1591.579872,336.282035,383.4108369,51.23299453,403.6802502,246.4961672
1594.837255,221.0729441,250.7170133,36.99425163,254.883375,176.4441511
1598.090275,23.94177293,163.3903311,-94.20592143,202.270827,112.6544963
1601.338945,174.6213872,247.6708857,42.57020955,229.0040142,123.2566604
1604.583274,244.1823868,124.327199,48.7070393,168.5983534,106.1432054
1607.823275,125.8138878,97.25075659,-50.052128,108.8593304,1.5588771
1611.058959,-23.44097559,24.02241733,-131.5995391,-13.48926856,-68.0279407
1614.290338,-100.6850998,-66.20432197,-134.3213177,-83.46545141,-46.75741241
1617.517422,3.307238848,163.8574666,113.2472838,0.035218473,23.0133677
1620.740224,33.57823343,176.5050836,38.55957993,32.56518838,65.40918475
1623.958755,46.13476843,154.0752857,46.09939802,17.63616495,27.28180036
1627.173027,83.76417124,196.379237,32.38681576,36.83006007,6.111714192
1630.38305,30.39807918,163.4585688,99.46330843,79.92014689,34.560096
1633.588838,-8.9364938,78.26208058,-24.36334491,33.45812726,1.51154076
1636.7904,74.25593635,3.94920174,22.43750988,-39.04830907,-21.85827731
1639.987749,97.20534291,167.6803926,48.67756118,37.99497031,34.2479994
1643.180896,-15.52430075,175.5565702,178.6586499,-1.372942292,34.56962581
1646.369853,-29.31958433,61.67593251,19.77428748,-29.81831699,-5.554494953
1649.554632,28.82698876,145.2829291,99.06045102,121.7219404,2.47320311
1652.735244,2.105721494,18.05006873,-12.31923781,48.18281478,-12.65773449
1655.9117,-54.4000727,-36.14804499,-88.53093933,-45.85242074,-32.65745298
1659.084013,36.9085079,91.62647165,55.41777422,17.13297098,7.92459615
1662.252193,71.14997043,15.3033528,131.0403109,-18.15720801,16.00983872
1665.416254,-30.1540098,13.10481497,-13.97938436,-27.92835248,-24.59238347
1668.576205,18.66812814,10.04377251,-1.788677531,44.93848529,13.16686592
1671.732059,71.84625983,77.26474623,149.3268268,93.57487478,108.1426157
1674.883828,26.7444287,155.3967197,98.87329627,62.70742594,128.2904231
1678.031523,34.24162573,30.56108902,13.02178141,-1.423400639,94.29114822
1681.175157,27.55417384,21.52701667,-14.85177093,-2.825401881,88.29368074
1684.314739,24.65071953,65.8332779,30.49425035,14.78251448,73.57569525
1687.450284,-0.241634711,-12.58972289,2.113341009,-11.83832148,14.26274916
1690.581801,-75.12311228,-60.14632152,-53.88080052,-72.37619843,-28.37954138
1693.709304,-4.884551005,52.00336135,-17.04364179,-30.00006681,5.776347817
1696.832803,69.0635742,14.43231213,58.33309654,46.3092441,90.15761366
1699.952311,66.92806257,21.08509456,63.87385291,38.51599859,135.9739165
1703.067839,-12.10074296,68.04876453,-17.74992173,13.758613,127.5203868
1706.179399,24.61658738,24.41097263,20.09302319,36.4950899,128.0721582
1709.287003,179.4918608,206.6666257,132.1631183,133.2524332,112.9030153
1712.390663,6.574528839,127.0013861,-9.016437126,93.26975857,47.35328926
1715.49039,16.52203604,63.37981492,-10.63164802,45.78336385,21.74570364
1718.586197,100.8496062,221.3213212,130.2108056,71.84152466,53.02553258
1721.678095,-18.56375208,115.4223863,-34.83821418,-17.68429599,31.23581873
1724.766096,61.31610592,-6.958749425,-37.00200793,-52.2315639,-42.1105403
1727.850213,-53.47757834,-58.87522279,7.921676635,-50.30146302,-45.69600685
1730.930456,21.81339571,104.4762487,40.61871552,83.19260654,27.89644403
1734.006838,166.5677636,184.8458814,201.7212132,143.6309122,63.05105635
1737.079372,-9.38435346,2.282668878,-45.23793439,-19.64747706,72.04464232
1740.148067,157.5585397,200.6503305,205.891487,106.0454197,117.2160442
1743.212938,134.5052864,178.7265395,158.7055731,149.7137691,108.1752469
1746.273996,2.959843777,13.72905358,28.09240027,13.91022466,19.68437157
1749.331252,93.08708524,78.46568614,-25.58496236,75.97377339,-34.99468841
1752.384718,-28.58601983,-26.80098662,-63.30841038,11.88784786,-6.826915474
1755.434408,18.10542726,107.2083702,62.33965244,-0.087318321,49.99517313
1758.480332,90.1566237,77.62803732,115.6179726,80.68993681,45.28035739
1761.522503,4.079508313,23.02535455,-12.56890156,-5.200161385,-6.456174405
1764.560933,6.568718281,114.4042015,55.35795013,26.6756632,-11.4656315
1767.595634,72.54312614,18.73798239,11.40940724,69.5998217,17.39376919
1770.626618,76.35979532,72.73784774,-26.19243108,-6.159866643,23.47085272
1773.653896,14.76161175,60.05560901,-22.55161121,6.727650491,7.737478248
1776.677482,20.41817558,18.69378032,-11.50407186,29.12019258,5.034145266
1779.697388,-8.89106637,80.93726974,4.446916278,58.4480455,31.86882546
1782.713625,27.19906294,123.3849645,36.7259283,73.73553959,23.02035278
1785.726205,33.96371116,107.6384161,28.88094535,-16.84130114,-26.02080432
1788.735141,-34.17095328,109.8131908,-15.1617721,6.11660491,-15.36277762
1791.740445,103.4148933,83.94977948,42.35083802,83.85587727,14.55339647
1794.742129,131.609842,-16.16508484,-23.71168239,-3.876108207,-14.49640561
1797.740206,-13.660303,8.992280383,88.62488335,-30.49675708,-12.54490669
1800.734687,94.36700051,108.7996242,-26.45217387,36.69188289,42.80230292
1803.725585,135.2522553,99.13316238,44.874048,-0.361394307,60.0262892
1806.712912,-9.299974092,-25.13552288,-99.72661948,-14.03625898,53.83289729
1809.69668,83.08046684,122.5735695,18.48297241,56.10152425,30.71117762
1812.676902,63.44417108,155.936728,14.60910647,20.67597763,-40.20534507
1815.65359,-67.40185959,-42.64230746,-31.85564017,-69.1980618,-49.65349542
1818.626756,14.45653345,46.51875269,-3.437045535,-20.05061184,20.20706384
1821.596413,14.46161967,8.263368978,19.05394222,40.31269008,11.02021292
1824.562573,-3.07434864,33.88137492,-73.79104551,18.17622122,-27.65383273
1827.525247,112.3434228,122.0617478,22.96556093,70.8091181,25.53051586
1830.48445,42.09563227,31.72722847,67.66168302,117.2272162,48.51751936
1833.440192,-67.28769716,-1.559365106,-36.82600867,0.645858852,1.631918938
1836.392487,70.24383266,48.37558093,33.66841704,-38.73720675,15.10815187
1839.341347,88.27840032,138.0260303,-0.221504794,59.74748974,54.26971157
1842.286784,18.28675365,8.307627604,24.89764462,42.41943165,32.35792233
1845.22881,42.6320247,53.0191609,48.88861485,27.02096023,4.069412579
1848.167439,21.17312222,148.7077206,93.78862732,71.87530475,7.441395124
1851.102682,45.92181847,122.9547188,22.75119055,70.8784646,-2.02682513
1854.034553,-11.58384926,76.7982062,-10.54092663,22.46987763,-29.75041197
1856.963063,-54.87390064,-41.25067861,-49.979849,-7.071132797,-6.384063446
1859.888226,109.1695932,165.3121268,104.6648139,78.51378073,55.17586041
1862.810053,24.41532186,87.00792804,-56.41564332,-9.37558652,41.65531329
1865.728557,-50.74611189,-32.62538632,-24.2870149,-117.9708039,-18.86089095
1868.643751,97.52455884,120.0090757,94.02975446,41.6423869,-12.18568874
1871.555648,10.5499615,-8.365530345,-14.33485624,46.63707288,25.71624148
1874.46426,3.883609175,33.23072412,96.81312885,-44.34841459,18.01400521
1877.369599,16.30014506,76.89136503,65.0039691,2.541311494,-12.88958738
1880.271679,-40.28967431,24.67531322,-43.97225789,16.35633471,-27.29645236
1883.170512,39.95794838,1.534248468,68.37822005,-20.17273116,-12.11573068
1886.06611,81.91201034,9.411387625,18.98308881,17.37299992,29.99778624
1888.958487,113.4098496,172.3104807,120.6843955,44.78364988,56.28744013
1891.847655,-4.147822653,10.01753488,10.58021491,-19.57374663,42.63827732
1894.733626,-0.263482255,53.10628491,-72.47238528,36.65902011,18.43743244
1897.616414,72.47103144,177.8608473,49.69469113,34.14784354,6.793010666
1900.496032,8.039843801,-25.54800437,-57.51348083,-42.89305625,30.7845174
1903.372491,139.2476001,83.27926333,112.1728896,66.41098996,48.12516385
1906.245805,43.33406452,45.86583857,28.48150125,38.04686128,-5.578893883
1909.115987,-73.73761695,14.67501511,24.49972049,-47.69482458,-26.59805652
1911.983049,89.97535771,67.42121854,57.21315386,9.806916825,23.52301701
1914.847004,7.607410309,-7.099129871,-23.91728461,-55.97398721,-2.169724818
1917.707866,-23.14530522,95.21065907,-177.5738223,-84.03485593,-59.52258174
1920.565646,113.6386259,59.21866052,49.30486332,23.75097334,-20.64076669
1923.420359,43.69362466,-0.047179326,50.00993605,26.81552439,9.468890606
1926.272016,-24.93384631,-14.99919131,-53.16248495,9.143891197,-19.41926299
1929.120631,68.47940963,69.07292436,38.56280628,40.44189785,-1.072915807
1931.966216,77.71559902,123.3082355,64.79555396,18.12138566,32.68853203
1934.808786,8.488899956,-13.32302768,19.46281955,37.62145745,27.77715835
1937.648351,79.06266427,65.13002063,-21.5732984,99.46508492,48.64618002
1940.484927,108.8664631,172.8523882,145.1447945,69.77872673,61.6676525
1943.318525,10.06883159,71.2157683,-18.64676796,-3.097248769,12.66457746
1946.149158,-19.39833923,25.55991987,-39.26094209,-37.86936629,11.31215861
1948.97684,14.48828875,64.31459642,42.66733021,35.56580629,81.57613776
1951.801584,27.43569774,9.207379573,32.83230379,150.6310888,79.57536902
1954.623403,11.6953146,92.5578902,12.36127914,73.48481784,5.878766322
1957.44231,-33.03281228,104.7934428,-9.05789825,-58.96908582,-20.26881661
1960.258318,-31.91817432,-15.8136682,-62.77039613,-20.46857599,-17.25687681
1963.071439,3.710126374,-2.406358472,-5.226175926,-3.176926156,-26.34396119
1965.881688,22.45832229,10.7339257,-63.19532108,23.42476173,7.080581404
1968.689078,70.42279129,156.4794238,60.08514747,126.6326702,51.02356966
1971.493621,-1.594496548,-5.655793855,21.67871436,19.33076692,22.27167983
