Wavelength,AAB_AS_I1,AAB_AS_I2,AAB_AS_I3,AAB_AS_I4,AAB_AS_I5,AAB_AS_750_5_5_H_S1_I1,AAB_AS_750_5_5_H_S1_I2,AAB_AS_750_5_5_H_S1_I3,AAB_AS_750_5_5_H_S1_I4,AAB_AS_750_5_5_H_S1_I5
341.6273391,-43.05383,-220.09703,-26.60329,-7.69296,-26.1113,-4.705421792,-132.1277666,11.23484142,2.110199602,-52.30785654
346.7337659,8.48802,56.3739,34.86489,168.60234,36.99976,-43.18125678,39.46024308,-12.03237886,134.1987068,-25.79379299
351.8323672,106.07774,72.75715,105.28277,359.18131,319.95939,-16.81915227,59.09438774,1.181457572,241.8218019,7.035931828
356.9231558,133.95895,77.10513,225.85219,430.93827,341.14354,4.455522169,10.41300343,44.08857214,259.5088378,27.25796905
362.006145,142.62454,46.71327,187.24059,251.71315,251.80558,21.35093833,-11.00138627,113.1180686,214.9169468,27.89020733
367.0813476,106.05572,-51.58192,261.53486,230.16847,353.68534,22.50717641,5.009458739,194.7243587,225.9600328,28.4050913
372.1487766,46.57055,42.73868,368.45066,370.0092,362.95677,35.78116556,55.41595396,261.3403507,337.9390062,64.8988544
377.2084451,198.00309,20.5974,316.07331,413.46524,362.89452,205.9641557,167.6073643,382.5881035,535.1678398,192.4407727
382.2603658,430.90344,320.96211,552.8224,624.93851,573.4199,486.8424519,428.7509846,648.2736887,804.2595215,422.8924443
387.3045517,612.36737,589.31934,920.67295,889.50546,871.67305,719.2265258,791.7617932,925.4466552,1038.233343,643.6363539
392.3410158,798.71901,783.85522,973.74553,957.29373,1013.92162,802.7515284,860.0564346,975.2883022,1062.260691,697.5751542
397.3697707,679.38611,524.23869,786.68916,776.22315,818.44223,636.3424132,540.4749241,790.3950568,860.5981322,560.479542
402.3908294,342.89099,211.11293,609.22721,486.36967,601.04457,350.1311225,313.0267658,554.910968,611.7613403,354.5148482
407.4042046,245.28568,301.9612,476.80998,408.71759,546.54065,181.3606767,237.9356367,387.5092524,456.7899587,190.4960398
412.4099091,182.04097,74.02711,331.58935,309.97656,420.38192,105.3169144,116.1872509,296.3114809,366.7750344,83.66995545
417.4079557,30.85017,34.68978,259.59325,120.52036,250.82005,52.15916483,40.61807126,236.1244004,256.7648421,16.4140035
422.3983571,9.03259,-54.22748,201.18463,38.18186,191.31843,-3.35378968,-14.28904277,161.1825999,137.3731026,-7.114266521
427.381126,29.38403,-28.31956,142.47732,21.32761,295.22645,-63.68335798,-43.70258267,109.4134953,108.0023475,11.25178303
432.356275,30.67655,114.65224,125.31566,84.4154,253.07692,33.75192059,63.94580773,137.1976833,196.0796412,38.99927557
437.3238169,-5.96203,-95.25432,18.10857,3.71439,-23.91581,168.4765161,186.3962887,172.9934199,273.2446495,43.87938356
442.2837642,-107.54131,-72.00447,-87.37944,-86.90971,-26.47663,24.11735025,97.75008547,125.1392588,223.0142471,26.24170428
447.2361296,-36.61946,48.52618,35.38349,55.71737,157.64909,-100.2922294,-36.88583577,41.71657621,93.453865,2.331367559
452.1809257,176.24268,35.85783,128.64888,31.55119,148.48697,35.24177016,7.246713395,-3.098611914,-7.277088286,-24.02687078
457.118165,148.72192,38.75347,-6.04241,-74.97987,68.53938,35.20538461,-50.47443507,2.155993885,-27.92505616,-45.43255012
462.0478601,-6.56617,-36.19769,30.88106,20.20905,2.12686,-81.9251454,-111.7467385,62.53314844,27.78241495,-32.21621892
466.9700234,-4.76548,-26.50941,115.49099,27.5062,-9.40199,-29.46547625,24.75343829,134.3959246,98.83881211,30.29057819
471.8846676,-0.28151,-4.11602,-12.4712,-32.99804,39.00471,35.5504714,30.49675988,164.0635063,132.5645027,117.146868
476.791805,9.30917,-10.75361,-10.35311,-11.10186,-5.26876,106.524657,88.21086968,214.8441455,167.3688073,201.4827861
481.6914482,128.25899,132.17121,76.24253,-21.84349,-15.43801,263.0046533,291.5252742,336.7730883,241.9616031,271.2661933
486.5836095,196.26019,187.11981,162.03867,89.95582,97.05098,313.4916881,291.2636598,420.1331129,306.1285148,305.1246947
491.4683014,193.80398,187.59393,195.67424,184.98809,117.4272,251.6160262,235.3289493,361.6017315,308.8898034,287.001087
496.3455362,157.17853,153.91101,18.47327,79.35079,40.75235,189.7350343,170.3476802,239.6641991,280.8341147,242.1675619
501.2153264,80.04848,-9.14031,-32.42899,115.09081,-8.40853,135.4792548,50.05561498,194.8144729,262.6562501,209.8091402
506.0776843,47.24931,55.56522,33.68282,106.62184,20.97032,104.707439,48.46162491,215.1557194,230.6328694,183.8814234
510.9326222,35.45099,-46.80093,5.43381,-15.24926,46.80314,56.98842976,20.81868887,190.2332788,168.2416604,137.132052
515.7801525,38.99035,64.39896,-21.7896,54.18,-48.60434,17.829629,-39.17420463,130.3970661,121.0287426,96.18529745
520.6202874,64.71692,10.50891,-26.38912,52.2737,-4.16363,44.04888859,18.50358888,130.5282466,113.5956765,111.253798
525.4530392,-0.52693,72.09457,34.42708,-18.56276,149.97861,8.488316162,31.85275673,170.073281,109.2443358,157.7948158
530.2784201,-32.23172,8.70444,48.19188,23.48938,103.44884,-50.06639104,-2.078894745,162.794865,75.01892615,158.4432163
535.0964424,85.50797,126.59395,15.24798,18.72256,83.76659,44.87332828,15.90133678,127.5659513,25.42018342,93.05074942
539.9071183,74.43923,-6.12943,22.06766,-53.5229,36.70867,82.96858785,-0.113255672,134.7626298,19.55368945,22.66214017
544.7104599,-69.11789,-49.13484,34.41953,-16.2706,-73.88864,-19.44994291,-1.908812697,175.4805977,105.1957137,17.86915663
549.5064796,-11.11367,159.39292,3.3344,95.22519,-1.81907,101.9217481,120.6895079,179.1810399,206.3919036,77.00143266
554.2951893,89.40135,-120.70771,-103.30813,17.82775,43.63205,248.2874309,140.1610329,101.9893411,163.7263285,113.8617936
559.0766013,-6.61936,47.49125,-45.10146,-46.09763,140.4673,-4.75108048,-81.08791116,3.644962161,-4.388903983,64.68309904
563.8507276,-25.6671,99.3736,111.08862,48.43859,182.80922,-175.1139179,-63.0488882,-2.077476211,-81.9206037,-18.43028048
568.6175804,24.55653,199.88341,62.44952,-8.6197,-26.72224,42.91971051,196.4829716,78.27934159,-7.652231071,-45.6890338
573.3771717,-3.04687,-59.94202,-36.94464,-97.21333,-22.06536,176.3826988,115.0846129,147.7932846,52.89067859,-7.353354992
578.1295137,143.4943,38.10242,120.19443,-19.07259,125.94588,155.6416614,-9.462568072,192.8044683,25.41230636,49.40146914
582.8746182,220.4274,150.35187,307.76626,43.13706,195.28245,138.5247037,118.099863,223.6037527,-2.792765412,93.34245612
587.6124974,41.35584,122.79455,204.86497,50.45265,265.33799,40.70465664,97.90542821,201.4149208,19.92028577,112.3113406
592.3431633,71.87936,113.31609,176.78677,102.70851,243.21187,-9.478358128,56.80308037,162.3730671,73.61581261,99.72497809
597.0666279,110.6852,165.36757,213.41941,120.60399,172.26915,32.20922338,124.3022685,186.7529871,116.2724041,64.00241659
601.7829031,8.44213,-3.55016,203.04156,102.56888,125.01742,12.8857609,27.62708997,232.9958819,89.68769931,26.50620767
606.4920009,179.39639,61.05863,380.51131,136.25336,222.1846,-9.967692282,-58.92042678,223.0175107,7.723327872,9.135368709
611.1939332,233.34998,208.10077,325.5257,88.37828,250.88798,5.80430754,6.119050837,209.1203867,-20.5041899,18.10094966
615.888712,-10.87341,-46.85034,144.6045,-5.84006,51.6692,2.855718291,57.23940911,248.2650782,24.95000992,28.35647992
620.5763491,21.89056,21.0479,263.34387,32.60363,76.91011,-6.822952481,30.3812525,245.1425751,34.52973532,8.990159976
625.2568564,192.36482,66.54947,246.86975,84.08733,152.96202,-7.402664479,-57.79555774,141.5418463,-7.024402176,-25.14755134
629.9302459,111.23323,6.20687,26.23907,35.28855,8.34949,14.8057237,-42.69994088,70.21372439,6.907938644,-29.68276472
634.5965293,29.04764,-15.17799,32.91624,32.00734,19.30784,43.92410491,57.9614776,106.8289927,78.46712231,-2.168115549
639.2557185,101.60911,65.18583,166.42914,101.3295,90.48808,48.58837436,61.47695231,134.1292996,96.47890642,21.43904222
643.9078254,44.0919,39.27657,15.49567,4.92933,-17.50112,17.16455456,18.12424051,102.9061622,35.70407192,31.59330042
648.5528617,-66.75226,-132.07791,-39.62987,-110.07991,-19.4718,-26.82572499,-13.99341306,113.2246502,-22.7580086,38.85679078
653.1908392,41.5647,89.2834,219.38942,-8.90742,103.48371,-0.167355275,11.68319635,165.2330972,-29.55858681,28.31749558
657.8217697,67.42153,27.87049,128.56626,7.82281,17.94533,20.54417447,29.23840891,140.5293148,-11.08189707,-12.21053175
662.4456649,-79.8054,-95.91261,-66.84079,-48.4623,-108.86984,-78.69226651,-70.92034736,41.76607706,1.022794709,-47.67017492
667.0625366,-44.37217,9.06806,19.5381,36.03108,-8.78658,-97.92189008,-76.52218789,-14.98836154,5.980206362,-39.51034716
671.6723966,88.52652,7.19292,-23.03084,4.99827,41.81093,54.34331736,32.40800897,-4.113403053,-3.193218395,-10.03401356
676.2752565,113.22322,31.47501,-60.1385,-71.49492,-21.07451,102.1215313,-10.07281211,15.48499065,-31.62575217,-5.521965042
680.8711281,89.39656,-43.32414,73.61493,34.04642,36.76513,-6.734371451,-84.24429603,32.3205802,-36.06817271,-19.84783704
685.4600229,34.51997,128.57371,60.64366,34.23113,39.16404,-41.79682122,-4.156782902,70.85938584,20.72761734,-12.96046244
690.0419528,-23.06226,-65.30183,-4.23235,4.70747,-36.48778,-2.991181848,50.49906892,115.5854313,80.67451578,16.05924394
694.6169293,-4.30647,64.13522,29.53115,47.70827,27.33189,0.433632575,17.31074023,124.4328955,60.32545694,29.4056003
699.1849641,58.14105,3.79975,40.33538,-35.78627,61.97595,-2.974955339,3.920912356,92.62354337,0.770722137,18.52534198
703.7460688,45.78022,17.87732,16.70487,-6.8704,-10.38929,7.909083536,23.57445917,84.54766484,29.37800196,27.65021265
708.300255,19.09201,49.89192,-22.31815,76.71551,-9.41461,63.22426066,88.8720063,171.0058521,165.6943894,87.49504402
712.8475343,125.18495,25.77841,144.38708,158.80632,110.32802,152.2442027,150.39418,297.6473476,278.0709901,154.7334828
717.3879184,171.66409,131.66528,261.71385,227.73611,145.64268,153.2017667,128.7649853,315.7206142,260.0480578,164.3151322
721.9214187,71.91758,-12.52295,28.3014,43.40856,22.77755,78.16218539,42.81576637,201.2574865,155.4582736,120.4336157
726.4480469,26.93083,-40.37356,-8.99817,0.52973,12.04066,12.25173122,20.06140983,96.25254163,70.78481542,81.79030816
730.9678145,-22.68677,101.47465,26.09325,22.2398,43.23134,-22.85246783,127.0030785,104.0339972,56.33746022,78.46641452
735.4807329,-22.7922,35.20722,-39.40023,-83.3047,-44.45338,53.5343003,174.1065754,173.9216647,105.9694433,92.91078266
739.9868138,112.8205,17.23678,79.04591,47.51034,-23.6781,168.4674425,111.5313678,188.5706802,165.1633614,102.7558854
744.4860687,102.74077,34.83909,43.49903,130.11045,41.53636,116.8748697,99.58560207,117.3692002,153.6838618,100.0146014
748.9785089,7.16903,20.84387,-72.1962,-5.77097,13.73007,11.53975745,40.12878229,46.08568702,73.7638644,74.44032581
753.4641461,41.4968,-53.63719,21.33801,-32.30486,36.3776,21.44994825,-60.08475973,18.67527684,7.907406721,14.98067751
757.9429916,9.57809,-65.4159,22.7039,33.75652,-16.31775,-8.591345382,-38.69898427,-9.051234772,-12.86776245,-51.02378785
762.415057,-75.04562,10.77399,-78.49622,-12.77332,-115.34617,-86.59399911,-48.85992058,-4.017778353,4.152815433,-53.92159102
766.8803536,2.38493,-74.56631,27.99542,-17.61627,-15.95086,41.15398489,2.764382584,101.9391774,76.9616942,28.56433137
771.3388929,83.74921,96.7878,109.37762,32.66925,32.80259,249.075482,207.2257253,207.8562157,152.7620179,109.4646247
775.7906864,30.20537,-37.11185,-21.82647,-33.17168,-36.38379,191.9079401,158.2799156,184.298913,123.9365376,98.48531979
780.2357454,-19.2352,54.81399,37.57145,5.06087,-4.72214,-5.86548666,-9.577263485,102.5061211,27.33116899,30.30658803
784.6740813,-27.27015,-7.84893,133.35595,23.64476,14.20457,-36.90182259,10.89709423,75.41349605,11.06231719,1.214912351
789.1057055,29.65314,12.4079,-24.04571,0.78997,11.88633,104.5351998,27.18394835,82.96765395,86.36585677,29.14194971
793.5306294,177.83053,51.60167,-43.53165,104.99515,33.68032,256.7666605,124.3721025,76.43325799,117.9729974,61.54334184
797.9488643,196.12389,186.62348,24.38143,22.89703,7.27377,236.953065,198.3221397,56.13072812,73.24844392,75.61978201
802.3604216,93.79801,45.39324,-18.33489,13.90833,65.98935,101.809777,22.6504671,47.17965611,80.45187735,90.02694048
806.7653126,117.13426,-6.6036,40.52386,216.71087,155.02801,112.8052692,-30.32147915,75.02117201,161.7677613,99.17392467
811.1635487,113.61566,61.59792,52.18706,135.01263,38.95341,158.1331761,46.65473129,121.785695,151.7119122,73.27444762
815.5551412,5.99006,-30.9348,45.86836,-53.10999,-50.9325,40.59185598,45.96650307,145.4844743,12.60828854,22.5131109
819.9401013,34.20088,228.53767,139.52829,-47.93432,25.09356,-3.178348638,61.79008355,134.6744348,-62.28585223,-7.344519886
824.3184404,151.95203,4.38969,87.83799,56.09731,42.44952,112.6791856,29.70461415,88.53689031,16.01281494,-4.602711307
828.6901698,119.38844,35.12452,-3.5996,134.89704,14.14061,103.9888468,-41.24414223,18.28352448,95.97426683,1.385429116
833.0553007,-29.50731,-84.65233,-61.15608,51.89615,-22.14015,-33.16970142,-112.3727605,-24.93538756,65.29395844,-7.059722833
837.4138444,-7.01631,-78.61481,-18.21503,3.3554,17.45375,-46.4353413,-107.807597,-13.39818242,0.512302749,-20.74222625
841.7658122,102.01217,115.51677,97.56699,85.63876,71.23489,24.47292753,6.326555222,15.21090656,-14.34966617,-26.55269733
846.1112152,27.55634,54.16333,-4.62631,28.84093,-26.03632,18.88546939,24.81930707,36.97804489,0.638400503,-18.64613355
850.4500648,-36.34566,-39.42563,-19.83159,-55.5344,-21.3029,3.179795321,4.136516091,64.35635239,9.96662346,-1.795092032
854.7823722,-5.18862,31.63096,47.58086,-33.69637,0.10673,56.72348965,39.409092,79.86140739,3.530597951,12.002082
859.1081485,29.62642,-19.8703,-29.64753,-52.39103,-32.88874,113.1059065,41.10877414,76.43634002,-22.87294491,26.4025163
863.427405,125.8589,21.68026,107.04771,-20.00886,111.87379,108.8901982,-4.600434871,117.0221337,-29.46366064,65.64155159
867.7401529,177.63819,163.25383,270.55529,82.15877,207.87356,142.7709499,19.72928918,219.6273656,35.36671669,137.4771094
872.0464034,178.38524,99.41123,219.49132,90.26451,204.52377,280.1389965,214.1580972,278.2543462,118.2489597,211.7249684
876.3461676,189.92788,210.14376,140.08804,27.81013,181.24138,333.0397825,247.9418368,243.5821668,130.9394717,258.0005988
880.6394567,151.43531,13.3888,86.75543,-14.68323,136.86427,280.5434559,94.71953889,234.9608884,115.4347707,273.7756367
884.9262819,176.57116,149.64446,194.99161,29.4597,190.83584,323.3911357,213.6669856,291.2316642,134.6489414,244.5727188
889.2066544,162.53175,204.34365,209.54002,45.55887,120.56815,323.0027955,290.0432195,246.1320575,116.9578578,144.8183602
893.4805852,-20.63484,2.28998,-19.89279,-45.44413,-52.17014,94.66511186,19.98636712,67.44937751,25.89514757,26.07923079
897.7480856,-25.99251,-7.68648,33.62101,28.60615,12.17364,-55.15744278,-97.52641099,-2.446817671,-7.522767192,1.762575449
902.0091666,107.3627,176.00177,219.7972,126.92854,123.93921,128.5065951,49.53550201,139.1278459,75.57210874,78.96898254
906.2638394,86.2178,-37.99057,146.29102,7.9227,72.89774,303.6963975,127.8784974,256.1587393,116.9867293,121.007453
910.5121151,85.51032,65.80933,158.73317,21.03715,25.32162,141.1083192,30.58619779,178.226143,26.39167063,51.89074281
914.7540048,82.45602,225.54833,205.74725,119.27721,32.34054,-52.07561412,-59.39801491,46.19550952,-42.44443133,-27.91516512
918.9895195,-12.13423,-21.72763,48.62379,53.11847,28.72737,41.79884863,9.934706543,9.405775759,12.9806603,-13.41102583
923.2186705,14.42368,-7.68936,-70.42151,7.62968,4.41928,181.08294,31.50681955,37.13340517,65.39014443,57.40528934
927.4414686,86.6281,-11.77194,-10.31779,-1.38806,-10.77213,166.207391,10.01386576,95.33359546,26.80259216,100.8422181
931.6579252,48.41128,110.12065,144.01895,-43.8291,42.66502,134.8582661,122.8254389,184.2388577,-7.588016094,96.73732553
935.8680511,-13.12506,67.09205,107.27836,-49.04868,17.03265,133.8882101,168.0251464,237.9996214,19.40177415,61.63975305
940.0718575,-15.10617,7.93984,24.98603,-15.23279,-99.91421,96.68625645,55.90971816,200.3700946,24.85433637,17.19653345
944.2693554,32.90748,-73.45971,117.7926,9.2109,8.81798,31.30032079,-76.67056488,111.5768031,-33.22257683,-9.653413272
948.4605558,26.52926,45.84456,31.39465,-5.55262,113.55639,-13.13040871,-73.28622628,54.39295291,-59.92851048,-6.693953395
952.6454699,-44.43363,-37.55606,-43.64991,6.9421,-18.81499,-13.21386098,38.39363052,72.45507127,18.68863855,17.71834348
956.8241086,-43.17013,9.74281,31.85168,92.852,-28.25493,42.11207728,17.10746919,137.99966,137.9729295,51.19618425
960.9964829,42.78813,-107.35068,-0.04276,131.43584,34.73583,122.3945315,1.93399806,186.5054317,204.0816722,76.83015519
965.1626039,35.73974,59.2146,18.68033,95.76984,2.72845,101.241995,117.133682,165.6534837,198.1878547,75.8063239
969.3224827,-36.46078,124.55999,14.15856,130.48537,23.07041,-6.617858776,121.597561,71.98067283,131.4304846,50.34930938
973.4761301,58.16946,54.53537,-44.37024,137.47146,92.18436,-16.07639218,36.04636639,-17.09426759,32.54092598,25.2570179
977.6235572,145.06279,183.54537,-19.28373,2.30713,87.57856,51.42005438,32.93947983,-20.50012184,-15.65489821,17.71085175
981.7647751,65.50331,20.65135,20.80522,46.76808,25.16616,47.19451637,65.00862585,17.81211866,20.38294696,17.52016912
985.8997946,38.15899,69.12418,27.39241,166.72269,47.57579,-14.34420093,-16.50032658,11.08281177,47.4599326,3.470338311
990.0286268,15.43469,-62.151,-39.92783,3.30204,15.88089,-54.92342574,-121.9713588,-9.473206769,5.907028765,-24.74920687
994.1512826,-72.98847,-73.26385,-24.49347,-55.5587,-88.37112,-58.36578841,-39.45063758,10.9455485,-39.47658529,-38.99408048
998.2677731,-61.93335,16.16157,23.80635,-0.21505,-55.52159,-36.01025595,17.27494201,32.59825792,-31.35931867,-9.366084215
1002.378109,24.63041,-5.0649,-0.13247,-15.18139,35.01401,-13.68905394,-45.43318183,43.62986807,22.60262439,63.16720371
1006.482302,42.57348,76.4848,97.13077,163.95905,162.05214,-12.37084892,56.19094065,95.75095589,94.12034012,141.5974101
1010.580362,17.35255,204.20851,184.55532,176.52213,175.48794,18.10963343,130.5438323,158.4240828,150.9724298,188.5321392
1014.672301,7.24156,-94.96069,53.6309,23.56223,23.28356,62.47559257,24.86744399,155.8033993,173.3674369,201.1617099
1018.758129,-31.30885,9.84253,-30.90805,107.36298,73.56188,30.69135323,47.94601314,114.3540534,147.8599427,195.7298137
1022.837857,7.36335,128.11055,110.89502,99.2569,190.03949,-1.728385071,98.11621719,90.54099072,75.97927293,179.5606541
1026.911497,88.19825,3.78205,112.17171,4.52282,111.50154,4.291131778,-16.25775441,61.49250464,13.14438902,159.1615302
1030.979059,35.09496,10.8617,-15.22987,47.84612,93.17177,0.451391948,-51.68948949,17.77842088,3.582495548,141.3438087
1035.040554,21.90668,19.86087,-19.95879,27.87935,115.97568,45.55460314,57.66184588,11.36312209,9.236793666,116.1581349
1039.095993,23.82252,19.58559,-21.85028,-66.36089,-19.13282,38.87243781,91.46503532,52.34190947,4.737851174,82.44437634
1043.145387,-65.82214,50.27297,61.08613,15.02568,-28.40633,-69.74839501,9.13867149,93.55652736,25.4004868,71.00240314
1047.188747,-6.84011,-72.37585,102.65402,139.80771,104.82354,-29.98140606,-39.61716669,102.5190388,51.48506124,87.18089664
1051.226084,117.94896,5.86915,-15.93546,5.50977,37.67005,120.8055917,-7.328951098,68.76385724,18.86771916,76.66941297
1055.257409,122.38668,12.0787,6.12593,-29.96856,7.40639,95.98419996,15.22882235,-4.253768954,-38.35603844,14.99090845
1059.282732,171.97112,146.80351,96.60857,194.6197,150.34725,14.89991375,2.894127129,-41.6313311,-11.102474,-3.57693818
1063.302065,431.0892,414.9527,241.72299,416.18348,304.32939,202.4344869,146.0358136,102.8025363,173.2853085,167.3764876
1067.315418,819.91667,678.90384,689.39721,750.99974,725.38639,597.7726396,541.9225771,479.6560192,528.6386854,551.9077906
1071.322803,1080.70515,1137.17284,1045.16621,1085.33768,1139.82835,969.9043042,944.7492695,935.1974118,973.7428793,974.3988222
1075.324229,1220.03038,1147.40141,1092.15875,1252.80515,1089.76675,1278.104619,1262.442756,1225.268621,1284.708853,1189.600175
1079.319709,1243.6645,1257.29825,1138.47916,1233.26027,999.2627,1302.388837,1294.006766,1175.922438,1242.534125,1081.082629
1083.309253,908.39045,803.56232,877.95589,913.68785,839.30841,848.4517291,757.5143622,815.9239694,891.6057347,741.7709019
1087.292872,485.31925,409.04927,430.31537,604.90256,415.25509,362.3303704,288.8807753,393.1917385,495.0496982,389.5690567
1091.270577,278.74928,290.49283,229.94705,346.156,214.00494,197.226232,213.7010687,125.4940545,217.3740274,182.4643772
1095.242378,103.11488,-26.09249,-2.12459,4.28914,144.27265,110.3982602,30.26791561,16.53192756,51.26846911,107.4500872
1099.208287,13.48084,-68.6656,-74.91821,-34.5139,12.08358,3.802158393,-69.02509961,-7.614300539,-17.74088602,66.46370875
1103.168314,8.49023,33.73388,39.94434,42.55897,-20.77244,-49.92993521,30.60221503,8.863041746,-3.617748515,15.4875138
1107.12247,-23.79452,-40.92769,8.47124,15.51461,-32.12287,-85.67837506,-9.799600369,18.6570847,21.00055004,-21.94259847
1111.070767,100.54758,50.08467,35.13717,109.16796,14.76438,-32.27362783,-36.30616184,1.472078242,1.560124745,-17.89199385
1115.013214,204.7363,24.99412,12.77632,27.67259,19.09516,57.38844285,12.5424476,-16.76628288,-31.80376321,27.60695219
1118.949823,129.91331,-26.71851,-73.50999,-61.22123,-0.06427,37.49105968,5.101162001,-15.62489365,-25.6444284,91.42932133
1122.880605,228.66565,59.57616,43.52664,159.16654,181.45414,55.10616072,-13.20486723,14.80914173,21.1483091,154.6168648
1126.805571,504.52913,158.41454,224.98435,283.5355,326.46307,214.5509987,39.91901363,117.3916645,111.8103843,245.1647829
1130.72473,738.47454,482.77266,477.84954,470.24252,468.71264,410.0872468,288.590676,358.5084265,314.138503,431.7266884
1134.638096,975.69538,812.41599,800.20467,852.76405,750.85732,676.1319065,648.1591577,715.1232894,631.6818391,719.8964714
1138.545677,1170.50019,980.07723,975.79453,964.29599,910.33194,977.1581016,935.2175213,989.1961976,894.3399067,969.7106723
1142.447485,1126.09742,968.18799,933.0623,926.27857,931.48447,957.7686169,947.3151076,965.6595955,913.934819,998.4002847
1146.343531,806.39629,687.63654,690.60149,842.96112,743.72207,551.5792151,563.7028378,681.3769694,687.4874609,782.293122
1150.233826,475.88234,370.43723,386.69973,491.33522,351.40626,222.6026923,229.8685739,379.3144002,381.5555888,485.3994208
1154.11838,342.43517,214.59031,182.85755,206.57527,196.43382,143.0201391,157.7309441,189.9676969,152.8225198,273.5787537
1157.997204,305.50664,173.28,114.06887,183.02095,211.88643,62.08538002,36.94912423,67.48539487,34.95769763,187.9386743
1161.87031,228.74088,120.26575,47.18942,150.70778,104.08399,-42.68143417,-65.13390766,3.069803146,-2.780375491,199.8228638
1165.737708,94.6844,-33.35181,-29.16938,36.6099,81.73686,-44.72181835,-37.98549527,47.4595774,24.06063188,262.8096027
1169.599408,-2.19381,-38.02863,-30.59772,-52.0769,107.95274,23.70051134,39.65027555,150.7951144,83.41256281,304.4687301
1173.455423,-14.66903,-65.09265,-7.19949,-1.93962,6.83119,18.46688861,85.71408729,191.8692234,101.5655963,286.5432667
1177.305762,-7.65738,-5.56155,61.326,53.92163,13.39117,-68.81188695,26.68593978,168.371197,72.25068015,265.7447089
1181.150436,71.79389,52.55722,106.68386,17.69562,145.92674,16.24621703,58.96483717,194.8195307,91.23140202,299.8004072
1184.989456,198.41527,41.84477,117.18634,75.42558,190.27965,243.8164427,205.3846593,288.0524023,163.8448933,340.2674301
1188.822834,140.56484,22.80012,146.9992,69.20811,98.03056,231.5498727,218.8821961,326.277099,163.5736943,319.3339934
1192.650579,29.07346,75.56925,130.92412,-35.84132,21.26653,59.055635,157.3060891,254.4265009,79.05095875,267.1122854
1196.472704,84.0798,74.95007,87.85505,19.23643,157.01519,60.91405558,180.631218,154.7912206,34.56821838,230.0439626
1200.289217,43.83526,34.31404,-34.73293,-6.84852,154.84373,108.0401131,146.7140276,89.69279535,36.28917186,167.9260312
1204.100132,-57.85398,-161.72602,-84.23303,-79.12028,-76.34736,22.98496117,3.826500363,31.93130561,-13.68935963,51.40617583
1207.905457,5.45487,-11.82084,35.1009,4.44409,-12.1779,-79.38317829,-51.08846714,-18.8703333,-82.09253933,-36.12361204
1211.705205,19.24816,-34.43723,11.44899,20.17322,111.16198,-53.8039978,-35.45512934,14.10595402,-40.88515372,-6.468656242
1215.499385,30.83247,-53.09103,-49.92294,11.64745,13.13042,174.7286501,117.5159245,136.456494,87.1386081,95.91895628
1219.28801,130.0595,73.03866,28.00537,14.42315,64.0771,304.627715,296.88412,203.4821766,130.4202247,146.8501893
1223.071088,28.23333,-20.93485,51.29287,31.79404,146.7397,54.97204903,113.2924341,149.6860905,47.8295296,100.7572785
1226.848633,-96.78049,18.94891,-7.35217,22.22456,25.34967,-65.85070607,-7.953641562,120.8813521,-6.629945289,29.42219131
1230.620654,83.92744,-21.00427,22.12048,-27.64131,14.25392,185.4296504,220.4475206,180.6761043,31.58746087,4.412817161
1234.387161,176.09442,154.56249,130.55051,98.58344,119.09033,211.5455466,222.4916022,191.9950882,48.21832054,23.8032608
1238.148167,13.57229,42.81856,39.22521,78.76095,110.25123,6.017197839,35.35202683,136.9337372,2.349859603,63.93670001
1241.903682,8.58039,1.27977,-20.50161,-46.48106,148.32337,37.01646928,134.8073782,151.3727149,-14.20023063,102.3979259
1245.653716,28.50453,148.9102,112.85329,29.67952,135.6678,124.2338184,266.0816406,215.516179,17.39788813,96.61155449
1249.398281,16.30977,40.12975,6.927,-15.82433,-4.13741,123.7437558,183.7880177,200.5722022,27.46168702,30.01816182
1253.137388,180.19794,108.58079,-32.75816,-20.93079,3.34915,186.6811504,165.9128242,129.9642582,1.460555891,-41.29480309
1256.871046,106.19634,38.31951,75.00417,54.44823,16.73576,123.2102888,95.63857234,116.6332969,-19.7170689,-44.48945933
1260.599268,-77.46091,-108.34271,13.39972,-30.16234,29.93735,-13.18145899,-22.1883657,185.8927674,5.216925467,28.75804427
1264.322064,88.12122,98.91247,151.67074,51.57733,190.75687,84.61181153,125.7903355,260.6690051,78.40462213,111.2728143
1268.039444,146.62043,133.99348,193.2519,179.63956,203.15935,164.3656239,180.9569383,234.8839431,114.1779898,126.7776954
1271.75142,0.88122,-2.72028,-3.73271,68.63545,125.66475,24.30378913,58.86729285,120.9311351,57.03652165,75.90853247
1275.458002,26.31153,141.19288,23.98374,-5.23429,105.39633,-15.75497531,103.7980119,75.75320192,9.849250182,31.69377269
1279.159202,35.10625,39.74574,-15.68581,-9.60459,-32.61967,126.6852252,182.452181,151.5860193,49.20858922,31.66207545
1282.85503,-10.19657,-74.50523,-45.9007,-64.08413,-42.17494,164.8366338,155.4426919,184.5300791,68.70920257,25.51851461
1286.545498,78.61641,53.68316,84.08351,8.58221,97.80641,20.1957128,21.46001139,80.03686078,-2.191443344,-26.08121714
1290.230615,93.7089,-21.21443,14.61559,95.94345,12.24159,-84.44786679,-90.4297486,-3.138380303,-47.22640484,-67.72396946
1293.910393,-20.13651,-24.42884,-21.41106,-20.10482,-47.29311,-33.54775744,-6.427577945,65.37908461,11.07991353,-38.87569444
1297.584843,12.4822,-29.40868,106.89984,2.2573,84.93342,35.41736755,146.3371465,168.1088706,68.12178458,28.15143389
1301.253975,186.79434,214.49805,161.53732,164.13502,111.37862,46.33867721,138.752821,193.4653202,53.23894113,80.91567765
1304.917801,256.54363,73.8908,198.30574,76.46985,113.54303,91.04260887,35.29136462,209.6548253,66.78480488,118.5972445
1308.576331,187.18649,27.93239,156.58533,50.19729,121.02404,183.9868827,179.6731714,240.2428753,144.2038575,128.523423
1312.229576,177.11776,197.05598,50.53585,156.94923,16.0276,182.1802191,265.0789465,196.3360616,133.4684898,77.01643414
1315.877548,228.42835,-37.67551,102.26162,54.70271,2.37007,40.89254209,-21.68767899,102.7097462,14.2856682,8.616531957
1319.520256,163.31582,102.69812,117.75629,29.18147,48.97573,-12.70381711,-23.43317754,86.34695109,3.829032958,20.96598553
1323.157713,119.51482,59.00312,9.3547,144.08367,32.1,130.0129732,211.3362527,139.5746978,136.4147728,112.2172089
1326.789928,141.38935,9.21158,-16.58058,111.91615,51.63938,178.9095709,148.2418544,151.9013494,175.7678059,172.0140063
1330.416913,10.13671,-7.5333,-34.62569,-16.35427,23.89673,15.55935681,66.45660348,121.6425513,69.71137662,137.9449123
1334.038678,-71.92993,5.69215,-11.5645,-55.87968,-53.18108,-53.67252437,94.6204076,120.6528134,14.41686243,62.71412705
1337.655235,20.4488,4.48674,60.9428,84.84572,-39.51067,26.46909858,65.47087548,137.2279696,49.68337543,18.2618413
1341.266595,23.44074,-49.93086,0.18952,69.92277,-26.34298,24.64741061,7.180694268,118.6254336,34.91141274,8.922872298
1344.872767,-19.87865,-16.63447,-27.67468,-104.4627,-36.02965,-10.89214042,-11.44658907,65.01212244,-31.87290926,-4.587471008
1348.473764,3.90897,-83.80099,6.46407,20.33187,5.05302,-4.838688242,-41.12424218,6.404292126,-37.47853265,-34.69635109
1352.069596,23.8604,-47.87894,-20.87693,146.39346,7.80884,-33.43676637,-99.68327561,2.345724088,28.16743843,-40.61644719
1355.660275,69.72242,70.78209,78.55635,100.95041,37.73349,16.17330508,1.162808648,96.90678964,99.0846061,12.62551727
1359.24581,90.71864,71.46178,159.12201,132.11594,120.1338,148.7286161,148.5584405,185.1893574,125.4011098,78.01735449
1362.826213,5.84602,15.80662,9.13956,31.95995,70.3257,119.7963127,100.6137912,136.7052834,105.8089554,77.31525621
1366.401495,-29.18611,-3.77489,-50.52644,11.66654,-3.7313,6.977568554,13.52948773,50.78152815,115.497265,27.78780712
1369.971667,27.31762,9.44738,32.81428,176.02239,-13.38534,107.467941,45.45270131,110.857972,197.5352922,23.12722484
1373.536739,67.41473,-49.85193,42.83757,47.29004,-40.35486,327.9528065,163.7260833,279.6340969,273.793051,94.4663913
1377.096724,130.31033,33.08396,134.38608,3.02213,38.65231,377.4752623,255.4803587,395.8335785,294.6314359,189.2010288
1380.651631,211.8842,243.24273,287.76452,219.12246,170.93556,364.3235734,304.365847,439.9521431,330.1200419,272.5263441
1384.201471,346.86183,290.7214,321.4045,244.46217,225.00964,535.3069526,436.2705413,495.7327785,424.1761876,351.6260592
1387.746256,489.85395,423.43457,403.0659,349.14952,326.18741,661.0422846,541.3692094,566.0629082,511.1202806,410.4186115
1391.285997,348.00603,414.12607,471.08391,429.43249,357.29772,484.2513229,479.1302162,580.6899926,520.7011504,407.1790558
1394.820705,77.04039,281.81404,345.84955,265.68997,211.68464,260.7950616,396.0956963,507.4118836,453.5161602,338.2469244
1398.35039,35.44505,160.38107,242.03494,237.19922,125.23081,197.244902,289.5746037,376.3055019,338.1352551,246.8695899
1401.875063,78.82691,69.84131,151.49954,128.73851,98.52643,183.6248005,97.98016042,235.3241874,201.2931156,163.8904629
1405.394736,36.72404,-42.00047,19.06586,-25.67176,45.42057,147.8876308,32.77050938,102.47524,73.27552284,78.8157228
1408.909419,-45.67174,-23.03151,-12.56896,17.23187,-9.27904,39.40755786,24.56652231,-7.871351369,-13.48587252,-6.406959593
1412.419124,-81.00921,-88.06742,-34.7805,-8.4266,-58.35872,-54.58288443,-80.10144749,-8.287817749,4.421854113,-26.01622447
1415.923861,33.41581,45.96808,107.80244,133.0527,41.52256,103.1118295,62.17673143,164.588549,167.4447691,84.24375552
1419.423642,204.35595,196.45582,350.49815,352.51007,218.56906,378.0263496,421.4435545,392.8655079,374.0413742,283.0917475
1422.918478,359.92629,443.08363,381.45951,372.59812,345.38728,521.4600458,568.208284,534.0648911,494.2972168,455.2055104
1426.408379,556.92601,444.15561,538.69248,531.60204,497.69294,635.2376784,569.3797033,608.3930788,541.7236587,529.3104386
1429.893356,599.99913,488.74942,695.26426,626.23213,525.57219,677.4944782,581.2817317,651.3649787,568.3051881,513.6749297
1433.373421,427.16223,376.48597,541.07289,523.36973,419.56528,518.6582759,561.3631042,619.8473276,549.6107223,451.1876148
1436.848585,266.5522,396.76716,421.79823,439.45149,323.99157,367.7546567,484.7715966,499.8070127,442.4952763,369.7560658
1440.318858,143.24973,154.89978,281.02869,253.0539,242.30403,265.8277192,390.2900298,313.5746062,243.5574428,261.6049109
1443.784253,48.58204,70.9487,126.68513,114.32149,241.15181,37.60828647,153.4697575,115.2687358,34.23513987,124.7273663
1447.244779,25.94497,60.82934,168.21327,154.27282,174.40478,-112.3715332,-125.3162869,20.35106761,-52.28912225,11.43735067
1450.700448,25.82932,1.57704,111.58259,124.6039,29.78181,21.46690693,230.1224135,76.39377861,1.887760088,-20.01141534
1454.15127,-5.59292,592.45427,3.00716,-2.59434,-12.73764,137.3009093,619.1592311,171.6244965,76.38612223,17.21098663
1457.597258,-72.12314,-111.19224,58.41036,-1.28063,-45.13866,59.2946735,206.1008286,188.1026393,90.19639171,64.40586507
1461.038422,-62.68341,-58.23759,-2.2418,37.55763,-24.17921,49.63793744,3.230425472,136.5830348,62.06414234,82.95073349
1464.474773,15.47708,7.42397,-101.09647,-53.51772,19.6463,132.2894651,170.4896665,82.478992,26.6574744,63.71251935
1467.906323,18.8713,-50.0428,-15.61537,-33.57082,-15.40346,90.65010536,61.85878063,49.56335552,7.00390737,28.8080714
1471.333082,-15.93363,65.07267,9.63093,98.6167,11.31967,-16.86938312,8.075084218,52.16597105,23.32106249,31.77405406
1474.755061,-5.78598,8.6649,35.17624,94.67081,80.96176,-9.378897838,50.18189619,116.4429674,81.36688128,92.21937338
1478.172272,39.99289,33.60333,95.49766,70.85042,102.03536,113.8908961,66.33103129,187.631632,143.9294187,141.3720514
1481.584726,86.90595,20.14423,32.59431,97.78664,40.5606,170.1718116,81.01186543,144.625595,125.0505973,97.33439182
1484.992434,84.29362,-8.77438,3.66907,53.51258,-12.38135,34.46441517,-35.08868252,9.418425028,6.623285153,-12.19088952
1488.395406,25.69592,60.19074,-3.73547,0.84087,4.39056,-89.469286,-119.3958411,-30.43990479,-71.59154181,-66.03488825
1491.793655,-23.23369,-17.25346,35.77233,-6.12375,-35.63362,-12.03558171,-4.983415217,83.27199942,9.016567859,0.425718082
1495.187192,-6.63194,-1.52511,86.5438,47.94763,8.45515,78.61569904,101.4569083,181.9368805,157.7844163,117.0811566
1498.576026,23.43628,98.03323,16.11835,130.84341,124.24158,57.66480156,62.71177632,155.1312759,205.1817073,170.0322947
1501.960171,-5.91188,-51.40216,-10.00541,44.90053,46.60215,26.12610688,34.84100053,79.83690375,119.3660736,128.2325998
1505.339636,-25.75833,9.45817,-2.07143,-72.7785,-15.11293,-12.77099809,5.953231079,43.68836793,12.83837221,55.69429426
1508.714433,35.68137,15.95218,22.29088,-13.28206,42.31248,-24.37555064,-12.04494287,60.89496492,1.030035046,22.29388106
1512.084574,150.36166,177.47636,135.45813,115.67044,109.81916,24.63183572,78.50598163,95.99076091,72.31665929,26.77941822
1515.450069,210.21381,119.27965,200.84312,205.22037,212.61293,20.61999169,49.44845349,82.24435411,117.6449875,21.13117918
1518.810929,76.24097,62.83153,-4.21774,48.28953,33.06464,-15.20703654,-37.73252108,17.23007794,83.83316692,-7.892959065
1522.167166,-13.25825,-227.01378,-190.87538,-135.53648,-124.15604,-19.07542717,-13.11979288,-16.38409216,17.8466704,-30.36450551
1525.518792,143.55198,65.45507,42.81841,-6.3886,166.81771,-45.99303573,-55.27289162,15.13076875,-14.77153852,-33.19317619
1528.865817,231.6502,43.24182,174.50706,82.27558,215.69588,-50.67844919,-59.91541001,63.66096427,7.727967017,-29.6303833
1532.208252,222.18288,-36.8724,15.68898,43.21764,77.85618,5.927454266,-4.813550296,106.9523766,62.19570297,-21.03292174
1535.546109,225.96948,46.09797,8.92812,13.75961,133.75623,43.91154583,4.850404218,149.5431845,122.1908594,-1.274589856
1538.879399,187.41007,-84.17667,34.67707,41.46998,126.33182,27.80944933,89.74175407,147.409102,176.439817,15.64976846
1542.208134,263.69424,101.57941,-45.99511,190.93538,183.7055,5.87406928,62.0912474,111.8939565,228.0622426,16.07637512
1545.532324,379.81838,-28.88802,-53.7855,182.71158,181.69939,106.5990603,17.22980364,167.8173173,299.2611687,13.39206057
1548.851981,396.35282,17.14289,11.8543,124.35818,49.95814,289.5016593,214.7395327,305.0779248,361.4557925,18.75991913
1552.167116,410.1792,46.42645,16.55161,190.43422,114.49936,247.7835607,223.6810872,332.7510304,336.695875,20.66557636
1555.477741,394.42323,48.77112,26.5925,210.93966,286.13938,20.30831014,6.610319005,221.9045655,264.7058846,20.67810239
1558.783866,414.68181,51.30567,60.93859,311.23161,361.27117,4.662091093,-39.13632764,162.3917834,277.2189333,45.88916177
1562.085504,540.04785,27.26764,50.48678,406.10016,376.70319,201.9015353,41.34777016,252.4059538,378.6413394,112.4658183
1565.382665,590.10374,142.03629,96.64294,337.48728,373.65755,338.8334663,198.8262491,399.0086114,473.6164535,209.3371184
1568.67536,559.16834,289.73224,144.48731,333.72119,362.07771,399.377566,403.854167,485.8499801,532.1091565,308.2556584
1571.963602,609.74148,336.07764,160.71688,459.31836,508.18572,428.6921962,463.5307556,502.7895719,571.3003901,374.221695
1575.247402,693.27009,381.44281,286.9103,552.66882,608.28481,423.4327841,334.6506643,525.8412004,608.3417393,392.8261893
1578.52677,736.78901,314.68557,380.71056,598.77431,508.09198,494.8193454,284.8472626,587.2001976,667.2071953,389.0603958
1581.801718,756.44697,421.53586,373.55002,651.20611,548.61334,582.6003135,454.3551654,619.0300033,720.6875122,393.7098235
1585.072258,706.09851,513.51533,398.64347,658.01229,585.46759,505.4611479,462.6649565,587.2677123,700.1712295,411.5471839
1588.338401,662.04989,392.15029,403.44492,597.16577,540.32845,428.4191036,266.4988924,557.1708248,602.5431413,426.9989296
1591.600159,666.69945,337.21733,433.40846,486.16485,608.98898,473.0669441,267.6901653,538.9313216,477.3087971,404.9051037
1594.857542,534.16985,347.43286,390.86773,360.5882,513.11358,381.4032454,249.1399622,460.3398303,361.180894,320.0012536
1598.110563,383.09283,191.83097,276.08986,350.6727,315.58316,170.7647542,31.87285099,351.016669,299.0699154,212.5026565
1601.359232,391.72128,264.94413,361.65405,417.46868,349.83582,150.5078852,60.41556864,307.0076853,305.4564463,141.9543664
1604.603561,268.54942,282.17932,269.54197,305.48138,264.75639,191.2528353,193.8445065,281.6316847,289.2611672,92.29305899
1607.843562,18.69412,-62.33603,17.86117,94.12818,-2.70028,22.73333583,4.644640736,168.5101355,167.9056693,18.5289072
1611.079246,-22.34686,23.86218,56.27965,36.24979,18.26452,-121.9741932,-136.6450347,14.98350264,14.75965564,-51.27454928
1614.310625,-6.41914,-55.28743,-41.21769,-23.21963,21.74086,-36.40049383,-43.93968633,-49.59422884,-46.87177752,-58.79999959
1617.537709,-59.49785,-131.44073,-148.35482,-120.75464,-105.78927,49.65546995,-22.58089908,5.25364373,-2.993763864,-11.72500409
1620.760511,29.70397,57.1968,133.41986,38.11061,71.33661,41.64891458,65.94224044,100.9142959,78.28259228,30.76269997
1623.979042,133.56125,253.2904,257.38247,254.29657,176.0776,32.05745768,162.0479195,135.1349097,112.0521246,30.56495523
1627.193314,57.96033,37.18091,170.07228,167.79372,78.37853,-8.027073951,14.6759939,75.41835328,59.40445728,-0.88803079
1630.403338,-21.31928,37.23151,96.81485,18.92541,84.39006,-33.91209651,11.53595457,2.27786605,-3.107506634,-22.18987093
1633.609125,1.19053,50.33508,14.6793,48.7355,13.93206,11.7017154,116.0232756,16.74950222,12.78953489,0.265180762
1636.810687,40.5631,10.43956,105.87368,93.74432,20.49591,95.95072579,103.1025352,104.2906913,62.41939033,59.05270193
1640.008036,42.27971,118.72803,130.31378,11.46296,119.6513,164.0552779,231.5640089,152.4898363,55.654273,104.012221
1643.201184,8.71933,-30.52793,30.68476,-33.23334,38.47647,98.48712834,182.5218727,121.7743402,8.475734945,95.51797496
1646.390141,-10.14707,11.57335,49.06691,22.04928,10.4871,38.56317652,33.85425558,90.48447147,-4.919983779,52.77292075
1649.574919,15.75122,27.37568,23.14406,-10.36673,13.57611,144.2432187,233.0595164,78.293095,5.462356903,17.39646667
1652.755531,42.12732,8.17087,-38.52227,-17.70976,-37.51896,131.9733798,203.2219605,35.33323911,-9.377008109,5.813681048
1655.931988,-0.59716,-1.89008,-45.92611,28.09673,9.42694,6.546493362,-6.482126996,16.89134337,-8.090094058,16.27623123
1659.1043,-73.41544,-107.24894,-35.31188,5.90099,10.87021,46.41893377,128.0996722,71.99482211,32.5488706,26.38531501
1662.272481,-35.85209,-16.49355,57.64433,93.76396,23.46499,30.2113612,112.8735379,98.76974525,30.51857407,8.14081952
1665.436541,58.06831,65.78107,167.28488,191.12391,152.49521,-108.1287408,-44.53481365,70.72989032,-8.66496543,-11.68484037
1668.596492,27.10564,160.74807,93.81755,106.07572,110.86713,-23.18564693,158.1166377,103.9938874,15.74369512,22.51167885
1671.752347,-22.68485,48.45161,-4.12817,9.85698,-40.4031,165.5340012,327.4030328,186.871284,64.02501438,94.68350457
1674.904116,28.14743,17.16354,48.04479,-29.69563,49.88726,138.9393495,159.75628,195.7845188,34.31767678,125.3172645
1678.051811,7.63638,4.75391,23.25954,-43.06518,97.80196,21.3237851,39.96096499,137.059474,-19.78790511,79.45184728
1681.195444,-44.53078,-24.12528,3.19428,4.62125,-83.15275,-0.060711095,108.009829,89.61260547,-17.51606176,4.895504967
1684.335027,36.89319,158.41511,32.35032,41.80521,-57.74633,32.0173426,114.8588061,48.54094978,-2.825630194,-36.04262321
1687.470571,64.62036,-30.19592,-49.14364,5.23331,27.84483,23.62297138,-1.73256319,-1.253550836,-17.94814102,-30.10973983
1690.602089,-6.73836,-19.79509,-47.31652,0.44931,-47.75194,-34.11418942,-67.88348447,-18.43473172,-26.23520964,4.875061494
1693.729591,11.18871,-12.78714,15.42517,45.80322,1.76887,-35.62261075,-37.37099084,9.629050128,-11.59861809,55.73939962
1696.853091,7.97023,32.83842,-23.52182,-13.41384,52.22777,19.46776524,17.04241568,45.49370989,-0.875844951,105.3181146
1699.972598,-52.97699,-22.65009,-18.03456,-49.20791,16.27248,-17.4272895,46.68033385,85.6395494,17.71926363,136.0952025
1703.088126,-5.7915,132.59902,129.9886,111.89845,51.93917,-64.53575372,42.07261691,158.9644982,83.68605164,154.4630343
1706.199686,26.26844,121.44952,138.95326,142.86204,36.01327,49.51417732,130.570072,220.6784995,165.8960274,164.9096165
1709.30729,20.89137,35.78214,-3.25461,33.06899,-1.19601,140.2469072,201.0168627,180.6171306,184.9994169,149.6136163
1712.41095,101.25783,119.06661,37.60851,141.54022,25.97649,58.39490939,37.10987038,88.65410357,147.5974438,122.8636064
1715.510678,71.85692,31.55886,23.47766,157.94362,-3.9215,27.19234957,9.115877843,96.88073602,134.0182722,129.8642202
1718.606484,-5.47385,29.02561,0.97015,-8.36055,21.14729,104.6686621,166.2040163,183.7317983,148.0987607,148.2954928
1721.698382,35.03481,38.66651,129.12453,54.47718,69.52136,63.82591346,58.32693811,182.530253,112.6484993,104.7209945
1724.786384,-6.30847,-76.52958,28.58425,84.18945,-47.25206,-73.60251648,-102.0119801,94.42367836,19.11100553,14.84255161
1727.8705,-41.99,-40.5892,-24.45988,-78.14984,-98.83355,-74.08185037,-60.50635029,56.75778349,-33.85147142,-23.71065983
1730.950744,8.66267,-26.85291,50.91507,-54.35502,5.65074,16.11739946,3.989527791,55.44912987,4.970509341,13.47631535
1734.027126,16.33449,-57.43914,-68.88512,91.195,77.79441,8.396093746,17.56871638,7.488555298,60.94797863,60.93259662
1737.099659,71.10283,99.04929,-75.97557,68.94294,30.49261,9.164187528,40.22045085,2.806227498,94.11685516,92.3000622
1740.168355,63.9177,16.6877,6.2911,-22.70999,-51.14495,118.677629,180.2833108,123.3490708,153.085917,130.3659129
1743.233226,-31.35459,22.9132,-29.56429,10.78589,-20.81422,147.9971115,281.483568,215.5541599,196.5593639,144.7991815
1746.294283,25.20617,31.24395,7.8271,40.54133,15.75888,37.42143926,127.0190647,135.652329,130.5573261,85.55613977
1749.351539,121.74598,10.96546,39.17989,36.03084,4.3283,-48.70974519,-38.51810308,-3.599074809,21.1749115,1.450813202
1752.405006,127.18187,26.65783,28.74427,107.01678,42.18266,-42.48836745,-24.96176088,-23.59726806,8.044852948,-5.904602053
1755.454695,115.97942,7.35034,76.98923,92.64676,76.90652,8.395801155,2.05939669,74.03199919,82.37358357,65.80678815
1758.50062,100.59763,-76.5101,56.9101,23.43418,49.03863,61.4951088,38.60606272,153.5282157,124.7406883,114.0300771
1761.542791,151.50089,64.46664,82.98597,54.54167,32.57155,85.5219045,91.22795081,125.3266804,73.81118592,76.75135644
1764.58122,243.11196,47.79405,135.31517,79.62339,45.12945,45.36921441,-7.333506409,33.73950424,-12.4856307,8.282968329
1767.615921,145.41159,7.78398,19.65658,-1.0769,-10.80563,-29.87531261,-56.93410835,-11.19357243,-34.32097962,-14.31046383
1770.646905,-39.18146,-0.37694,-33.39491,-49.50877,-31.03941,-57.05521612,67.37645391,14.31059178,6.869825406,0.61108141
1773.674184,23.32532,-41.2795,34.7449,32.49917,1.12966,-38.09738286,30.56494074,29.49457053,16.70722574,6.329299992
1776.69777,127.59191,-2.10434,33.99749,0.9162,-59.04766,-15.59736047,-88.0756611,4.532246955,-12.02541398,17.74255279
1779.717675,9.81163,-109.19085,-56.19006,-88.84487,-52.52645,21.51867106,2.89849523,-2.665613682,5.57358524,67.42929979
1782.733912,-56.29607,-64.23984,-124.59127,-45.01519,-2.143,40.11093445,117.7101894,27.33067944,72.83547579,115.8528434
1785.746492,35.80883,50.41869,-2.72883,24.76405,-35.66705,13.62129363,89.42034641,48.53202327,116.6367473,109.5955713
1788.755428,110.52612,70.25498,122.66739,143.27886,37.30074,5.872171595,42.19293909,30.66252591,104.3100953,71.33907817
1791.760733,133.08081,105.59718,61.33409,158.05457,122.37319,2.59280152,30.30856772,2.293711839,54.22460939,59.8544605
1794.762417,94.59507,51.80512,78.93265,31.9643,51.65849,-17.87172938,6.708293316,17.7164477,24.80866381,92.80558539
1797.760493,25.86283,29.33474,49.42183,-13.74032,8.03067,46.83935977,60.84358308,77.39311934,66.57500807,136.6489972
1800.754975,14.982,43.23498,-56.13615,-13.82885,4.22721,124.457564,211.8960264,113.6254971,127.8092849,147.7164817
1803.745872,16.39657,90.95785,43.96607,27.81282,-41.9314,51.1146328,148.0541784,85.87034955,124.2607627,125.8125767
1806.7332,-9.72453,-18.58783,4.63241,22.91843,-12.99475,-9.146966538,-55.52403161,34.89179761,78.23151516,106.5775219
1809.716968,3.23753,-70.02238,-63.14851,-35.67383,51.51656,45.39858357,21.74446305,8.16496931,52.04595008,91.84992353
1812.69719,-2.97018,106.10248,27.64052,16.99885,18.07767,-10.32826176,47.39488068,1.882471492,33.29245422,52.50946985
1815.673878,-47.62276,-20.02276,17.20782,37.75728,-12.33312,-118.582981,-108.7450277,0.632062988,-3.946109638,5.23E-05
1818.647044,2.45559,126.99126,85.24747,7.84787,43.49549,-67.89653533,32.50814787,-4.77340793,-30.01666405,-24.26686387
1821.6167,45.83267,167.60618,36.27965,25.84418,48.31122,-4.314698611,99.3759188,-8.661884345,-5.560274844,-12.96609975
1824.58286,-13.15951,-16.72674,-85.00212,-0.64409,-53.09317,18.43117862,-37.66045736,29.46639027,61.41143285,8.468498865
1827.545535,-2.29338,49.87018,34.77978,-6.18793,-69.23301,89.20065885,143.4691909,99.32655072,100.422299,13.8927859
1830.504737,23.41802,203.07737,60.32223,26.81417,18.31378,50.08985359,194.0261713,121.8095525,53.71025498,-3.176973593
1833.46048,-23.18315,-11.51179,44.77797,-24.74252,-1.37114,-48.0351612,-61.80989759,93.86560416,-13.26989481,-11.08331912
1836.412774,-19.91883,-50.70444,13.40717,-80.85599,-53.77555,33.24027151,-20.45124753,76.2027727,7.50580723,27.891249
1839.361634,-37.63772,9.78177,-118.44397,-40.19565,15.01391,111.8050204,115.5585156,69.43327389,94.72300897,95.54676054
1842.307071,-40.57347,-22.71993,-39.48897,66.97466,91.88575,39.70588244,59.1698539,68.98763981,156.6488646,138.4441014
1845.249098,39.81106,140.28107,36.97919,116.90791,76.75317,55.87928314,52.79835406,106.7932414,176.1803098,135.0039016
1848.187726,37.31909,-31.73043,-18.07519,40.43126,25.79798,162.3018659,107.2334976,135.2469357,158.1201053,91.81458602
1851.12297,20.69269,47.25813,22.03275,19.89482,21.87876,101.882687,54.5570777,68.50533181,78.01287923,22.03376947
1854.05484,11.80609,45.53948,-19.35532,44.16267,19.91947,-55.52605502,-74.1004441,-14.2148464,-9.222467833,-32.69266776
1856.983351,-42.01842,-7.4643,-50.19316,-30.7604,-27.62803,-10.45964466,0.250306577,38.40746519,12.875497,-25.79825902
1859.908513,-3.51197,102.87562,53.00339,-12.72732,-44.2772,153.8088449,175.2443008,158.9571214,122.3305299,26.00705081
1862.83034,39.77837,3.40415,41.85662,103.54962,23.23467,121.1485017,98.81698243,162.7712574,159.5526763,60.39142294
1865.748845,5.46579,128.13152,15.0255,83.35262,97.11483,-9.325761064,13.93923483,61.15175428,69.65966024,52.04295254
1868.664039,-13.28618,65.23477,9.36035,-25.7596,70.0572,-27.23089488,48.76418659,-8.861751232,-28.828086,23.23948513
1871.575936,-5.11899,-10.02934,-26.3198,-21.98665,43.02641,-19.63434313,-36.59390667,-11.90200325,-31.16856116,-5.880488301
1874.484547,7.50722,8.36432,-0.23837,54.25638,37.67876,-13.6013595,-88.59561475,14.14787695,30.8258282,-28.69988207
1877.389887,12.60912,-63.36847,4.24272,38.2265,-32.36672,24.87130678,0.138687222,45.79235758,64.33518676,-32.40909771
1880.291967,21.2807,91.86524,38.75542,14.03388,-25.44111,24.1025687,35.68844601,68.02286123,45.35218179,-7.166914348
1883.190799,-5.16754,15.17312,19.60375,-11.94143,36.01282,13.60012679,61.52671082,75.75284017,30.73189311,25.44989252
1886.086398,-49.62529,29.63078,-56.29037,-62.50844,-13.56754,35.40077042,106.504457,67.60314596,51.1580819,27.32861735
1888.978774,-19.99577,-37.06231,-8.78853,6.33772,-65.67299,21.50816833,27.49917744,40.77404952,69.60232798,0.360419138
1891.867942,10.49993,-28.92162,-33.38077,44.54572,-31.75523,6.008860324,-16.50781118,15.6802541,59.23078078,-12.72329495
1894.753914,-20.93197,4.13191,-61.65332,-46.9049,-16.22752,17.99312787,43.88890599,7.733145039,35.10555784,1.079109528
1897.636702,-16.98389,-94.57475,14.14234,-1.30602,43.90603,-36.641143,-27.35542854,-1.623235412,5.417127789,10.11591529
1900.516319,33.76271,68.2309,30.07452,95.67886,107.13008,-78.00111768,-73.71553693,-8.73392574,-22.41057943,6.372397656
1903.392778,58.52648,49.55411,43.12408,1.35346,25.98832,-1.915271551,82.62482424,13.46917236,-3.911500606,20.85653394
1906.266092,40.94291,120.5263,12.86354,12.47106,28.96436,40.46338999,168.2943875,52.57338046,77.74161113,55.06623035
1909.136274,-14.03625,98.81897,-38.74277,136.98601,65.25199,-5.568747927,129.4406447,70.16349183,136.7011918,61.57361531
1912.003336,30.26682,-20.5148,52.77967,94.31039,17.72661,-11.21124454,56.01862784,44.40751163,92.13606423,19.811916
1914.867292,153.15585,62.98725,53.23462,46.4593,24.62707,15.85032715,-61.88727652,0.849394959,8.61618394,-21.50262786
1917.728153,67.83852,-76.89761,-81.06603,0.92428,-35.13075,4.015258217,-32.03936366,-0.52898774,-17.28238003,-18.81148128
1920.585934,-29.1849,-23.79195,-43.72513,-53.43487,-32.68909,-5.134359239,54.5095992,32.3780047,-16.58450707,-3.108087466
1923.440646,108.61103,26.26915,19.43064,-15.73578,38.88254,10.73914648,-17.16518162,28.14361164,-37.94987551,-16.44941223
1926.292303,159.43704,15.50752,-8.91064,36.76681,-0.89036,-3.551835504,-39.54048784,-9.637585846,-37.21121983,-26.31315596
1929.140918,91.55939,92.90144,16.92605,108.16626,77.67431,-18.67777291,-9.251689307,-6.494372563,4.770754871,21.86512933
1931.986504,104.93943,-12.56921,36.38922,105.03539,178.16781,0.10655643,-20.80976431,60.2298203,33.88188381,103.2912468
1934.829073,32.64072,38.0099,25.03966,-2.46113,101.95388,-22.69194271,22.09766111,131.9094661,33.20929999,134.6453747
1937.668639,-84.42699,-16.30854,7.77761,-37.97255,14.95569,-41.19553583,53.21345191,133.9081252,24.5255607,84.02099569
1940.505214,9.27651,-27.03906,-45.45752,-9.0275,-26.2331,20.84149153,44.62650706,74.54619112,6.579365578,21.30955091
1943.338812,118.98342,43.88059,-38.48263,1.96336,-13.4076,53.39238641,4.477137969,67.41643184,13.01438637,48.90872526
1946.169446,39.10582,-13.29605,37.48163,11.85916,89.99809,76.98286246,37.49890937,163.0900745,101.1334027,174.1717124
1948.997128,4.62176,1.66871,22.69638,46.44456,159.85631,167.9601022,196.2962223,236.1307381,202.4402786,279.2118941
1951.821872,57.54847,59.11907,-15.35136,71.77954,99.66513,153.1841861,160.1829106,189.5455652,182.5484252,259.1595899
1954.643691,14.76237,-18.08165,-7.99142,3.22129,26.04359,34.61575321,-2.241013149,109.4172014,65.62895566,142.7462299
1957.462597,-17.29284,-27.95263,-4.91286,-58.42496,-6.7512,22.89984171,-18.44703365,66.03962446,-17.50375896,27.71905353
1960.278605,9.63221,-56.63624,1.91261,9.2582,-51.72297,27.3095788,-55.38799419,14.85904579,-31.06780293,-26.55579171
1963.091727,-25.01759,13.65851,-43.84376,47.17324,-52.27096,-53.41012086,-84.8220852,-11.12049391,-3.833260512,-4.573067452
1965.901976,-29.46689,131.76604,26.92104,78.0869,37.96006,-27.77323093,43.31977366,68.1528862,49.80161224,78.22364085
1968.709365,27.53667,142.15322,173.5346,132.79704,106.65707,109.159024,132.042816,156.5610387,72.58785236,170.231521
1971.513909,11.94179,21.2625,13.84917,-22.9973,45.16033,169.1187956,42.68813811,134.8287231,18.68085532,236.2828489
