Wavelength,AAB_AS_750_5_5_H_S1_I1,AAB_AS_750_5_5_H_S1_I2,AAB_AS_750_5_5_H_S1_I3,AAB_AS_750_5_5_H_S1_I4,AAB_AS_750_5_5_H_S1_I5
341.627339126167,-4.705421792282761,-132.12776656055306,11.234841415734664,2.1101996019888674,-52.30785654227732
346.733765937444,-43.18125677873171,39.46024308273269,-12.032378863107766,134.19870677394113,-25.79379299489213
351.832367152647,-16.8191522730678,59.09438774265274,1.1814575718713982,241.82180190118518,7.035931828408081
356.923155819479,4.455522168862011,10.413003433628504,44.088572142674096,259.5088378224311,27.257969050651425
362.006144959822,21.350938328968567,-11.001386265672956,113.1180685641725,214.9169467934232,27.89020733181141
367.081347569912,22.507176411291866,5.009458738623451,194.7243586947709,225.96003282160112,28.405091295069383
372.148776620548,35.78116556203054,55.41595396468749,261.3403506627262,337.9390062397132,64.89885440256438
377.208445057238,205.9641556920197,167.60736434008885,382.5881034847394,535.1678398215935,192.44077271298104
382.260365800428,486.84245186315945,428.75098461339536,648.2736887425051,804.2595214740662,422.8924442703664
387.304551745658,719.226525791035,791.7617932120979,925.4466551996393,1038.233343352636,643.6363539438818
392.341015763761,802.7515284306716,860.0564345827135,975.2883021935368,1062.260690684397,697.5751542296208
397.369770701036,636.3424132491033,540.4749240514622,790.3950567585492,860.598132219173,560.4795420433336
402.390829379441,350.13112253693646,313.02676583755476,554.9109680408678,611.7613402607041,354.514848164259
407.404204596762,181.3606766817743,237.93563665031078,387.5092524203899,456.78995867311846,190.49603976585473
412.409909126805,105.31691437530066,116.18725094833401,296.31148091181507,366.7750344349465,83.66995545433221
417.407955719567,52.15916482649189,40.61807125997029,236.1244004099127,256.76484211261027,16.414003495337226
422.398357101434,-3.3537896804565275,-14.289042771362858,161.18259990258244,137.37310255137967,-7.114266521104568
427.381125975327,-63.68335797651368,-43.70258267272597,109.41349534135846,108.00234746062408,11.251783029961885
432.356275020917,33.751920592857644,63.945807733514286,137.19768334296626,196.07964120705526,38.99927556605404
437.32381689477,168.47651607677312,186.39628865322464,172.9934198929393,273.24464948585904,43.879383558280864
442.283764230553,24.117350249445657,97.75008546670077,125.13925881467283,223.01424705149867,26.241704284349225
447.236129639179,-100.29222941627995,-36.88583576957151,41.716576208109785,93.45386500303964,2.3313675585986147
452.18092570901,35.241770163745194,7.2467133946029385,-3.0986119135860264,-7.277088285815964,-24.026870778775343
457.118165006017,35.205384611514084,-50.47443507386895,2.155993884657832,-27.92505615654733,-45.43255012326058
462.047860073961,-81.92514540021368,-111.74673851526067,62.53314844118988,27.78241495442029,-32.216218919944424
466.970023434547,-29.46547625293706,24.753438285244876,134.39592464042573,98.83881210564925,30.290578188595326
471.884667587632,35.55047140143425,30.49675988405464,164.06350634220175,132.56450267902886,117.14686804904147
476.791805011364,106.5246569875381,88.21086967952832,214.84414548625378,167.36880734994998,201.48278608702276
481.691448162363,263.00465329930216,291.5252741772306,336.7730882723083,241.96160309022707,271.266193327104
486.583609475902,313.4916881154608,291.26365975132603,420.1331128791344,306.12851484145517,305.12469467225765
491.46830136606,251.61602624776648,235.32894925267323,361.6017314657602,308.889803447532,287.0010869859591
496.345536225905,189.73503429045212,170.3476801722186,239.66419909104732,280.83411473723515,242.16756185735338
501.215326427657,135.47925476463107,50.055614976977985,194.81447289373966,262.656250071781,209.80914022581646
506.077684322854,104.70743904300271,48.46162490942979,215.1557193973976,230.63286943000566,183.88142340153456
510.932622242522,56.98842976454642,20.818688867549632,190.2332788129336,168.24166041595421,137.13205204710013
515.78015249734,17.82962900137914,-39.17420462584175,130.39706608159804,121.02874263271778,96.18529744897855
520.6202873778,44.04888858778051,18.503588883722664,130.52824664864167,113.59567649966593,111.25379796294294
525.453039154387,8.488316161548507,31.85275673375597,170.07328097858263,109.24433580127624,157.79481578124728
530.27842007773,-50.066391044920714,-2.078894745062004,162.79486501111415,75.01892615044099,158.44321625004545
535.09644237877,44.87332828176724,15.901336777146415,127.56595131774924,25.420183415514444,93.05074941880082
539.907118268929,82.96858785481066,-0.11325567188779218,134.76262975510474,19.553689449784088,22.662140166218933
544.710459940263,-19.449942911586426,-1.9088126966166854,175.48059773103114,105.19571371482431,17.869156629698608
549.506479565627,101.92174813045526,120.68950792973325,179.18103990167978,206.39190355537977,77.00143265649749
554.29518929884,248.28743094021524,140.1610328920408,101.98934105704905,163.72632851238632,113.861793638538
559.076601274846,-4.751080479707717,-81.0879111633567,3.6449621608076654,-4.38890398314151,64.68309903868641
563.85072760987,-175.1139178884106,-63.04888819955356,-2.0774762112721135,-81.92060370492878,-18.43028048040828
568.617580401575,42.91971050894839,196.4829716333387,78.27934158854147,-7.6522310706403545,-45.689033804259374
573.377171729233,176.3826988146077,115.08461293744048,147.79328462084942,52.89067859316151,-7.353354992039585
578.129513653872,155.64166144422762,-9.462568071929844,192.80446831909404,25.412306360256196,49.401469140133315
582.874618218435,138.52470367260443,118.09986302513812,223.60375267150857,-2.792765412004144,93.34245611876466
587.612497447944,40.70465664294264,97.90542820831865,201.41492082985954,19.92028577067893,112.3113405905097
592.343163349648,-9.478358127964542,56.80308037103606,162.37306713764227,73.61581261156414,99.7249780926037
597.066627913186,32.20922337762299,124.30226845943353,186.75298708509882,116.27240406269178,64.00241658505382
601.782903110734,12.885760904572374,27.627089970688573,232.9958819025553,89.68769930929903,26.506207672782843
606.492000897177,-9.967692282296985,-58.920426781903465,223.01751074745422,7.723327872404127,9.135368708873145
611.193933210239,5.804307539577948,6.1190508370918835,209.1203867411171,-20.504189904878004,18.100949656501534
615.88871197066,2.855718290995643,57.23940910667817,248.26507821801275,24.950009917286778,28.3564799217517
620.576349082325,-6.8229524814899065,30.381252503186435,245.1425751147395,34.529735317915396,8.990159976445945
625.256856432443,-7.402664479006063,-57.79555773656836,141.54184634976644,-7.024402175719743,-25.14755134204092
629.930245891674,14.805723696661396,-42.69994087765231,70.21372438707981,6.907938644046098,-29.682764718915205
634.596529314302,43.92410491291899,57.96147760070947,106.8289926644947,78.46712231190044,-2.168115548900019
639.255718538372,48.58837436432453,61.47695231412267,134.12929962982113,96.4789064242974,21.43904221828323
643.907825385844,17.164554562104417,18.124240514824113,102.9061621781016,35.70407191847991,31.593300420131918
648.552861662745,-26.825724987225396,-13.993413061716522,113.2246502367639,-22.758008601126157,38.856790783537235
653.190839159312,-0.16735527485492696,11.683196346180704,165.23309723185164,-29.55858680967649,28.31749557687299
657.821769650143,20.54417447071193,29.238408914535622,140.52931479459102,-11.081897069109807,-12.210531747860633
662.44566489436,-78.69226651138399,-70.9203473571882,41.766077061710384,1.0227947088300597,-47.670174916766385
667.062536635729,-97.92189008349058,-76.52218789181933,-14.988361538744542,5.980206362040752,-39.51034715597252
671.672396602831,54.34331735762976,32.40800896898037,-4.113403052788783,-3.193218395234434,-10.034013555213974
676.275256509187,102.12153127112887,-10.072812113823126,15.484990651768726,-31.625752165908935,-5.521965042433674
680.87112805343,-6.734371451209697,-84.24429602912548,32.320580203276734,-36.0681727109994,-19.847837038514825
685.460022919435,-41.796821220713994,-4.156782901636699,70.85938583514445,20.727617335264604,-12.960462441330698
690.041952776453,-2.9911818483702923,50.49906891781315,115.58543128324197,80.67451578190665,16.059243942058227
694.61692927928,0.4336325753714938,17.310740234191876,124.43289548653128,60.325456941887865,29.40560030339228
699.184964068383,-2.974955339030661,3.9209123556644307,92.62354337367557,0.7707221369180814,18.52534197621592
703.746068770051,7.909083536012526,23.57445917409698,84.54766484323144,29.378001960834396,27.650212647618776
708.300254996533,63.224260655007356,88.87200630059553,171.00585209735817,165.6943894458836,87.49504402277985
712.847534346191,152.24420269961848,150.39417996226854,297.64734760476574,278.0709901313126,154.73348280060918
717.387918403629,153.20176671317256,128.76498527608314,315.7206141619837,260.048057830411,164.31513221140193
721.921418739836,78.16218539159648,42.8157663705473,201.2574864847536,155.45827360206852,120.43361574086578
726.448046912334,12.251731222046047,20.061409831474798,96.25254162891562,70.78481542396432,81.79030815967742
730.967814465321,-22.852467828029596,127.0030784923441,104.03399718727889,56.33746022495376,78.46641452186954
735.480732929795,53.53430029514472,174.10657535946348,173.92166470121347,105.9694433351084,92.91078265909695
739.986813823707,168.46744253224065,111.53136782972287,188.57068020255144,165.16336144105264,102.75588536740852
744.486068652095,116.87486968954698,99.58560207280807,117.36920021002376,153.68386175805335,100.01460144895769
748.978508907227,11.539757450881954,40.128782285468496,46.08568702458796,73.76386440060512,74.4403258110887
753.464146068734,21.449948246610518,-60.084759729885235,18.675276841559416,7.907406721477756,14.98067750814194
757.942991603746,-8.5913453824321,-38.69898426869826,-9.051234771787932,-12.86776244658175,-51.0237878463972
762.415056967038,-86.59399910876343,-48.85992058211537,-4.017778352622809,4.15281543293618,-53.921591021492276
766.880353601151,41.15398489201451,2.7643825839912175,101.93917743450801,76.96169420459215,28.564331370205846
771.338892936546,249.07548196993835,207.22572533838422,207.85621567396043,152.76201785756774,109.46462466208104
775.790686391732,191.9079400738258,158.27991559281884,184.29891298623588,123.93653764505984,98.48531978923538
780.235745373389,-5.865486660357796,-9.577263485426451,102.50612106659861,27.331168986137115,30.306588033710987
784.674081276531,-36.90182258814883,10.897094231440963,75.41349604657485,11.062317194570767,1.2149123511265145
789.105705484608,104.5351998278478,27.18394835135732,82.96765394990904,86.36585677210645,29.141949709786967
793.530629369667,256.76666050982806,124.37210250554335,76.43325799127746,117.97299738152405,61.543341837380666
797.948864292461,236.95306497246906,198.32213968095041,56.13072812009254,73.24844392330263,75.61978200676857
802.360421602603,101.80977703577975,22.65046710067304,47.1796561096018,80.45187735486846,90.02694047595187
806.765312638689,112.80526919568277,-30.321479152136252,75.0211720123004,161.76776134460988,99.17392467101486
811.163548728429,158.13317612024093,46.65473129272243,121.78569500941997,151.71191222322946,73.27444761705092
815.555141188783,40.59185598147718,45.96650306638674,145.48447426384962,12.60828854422373,22.513110901649284
819.940101326081,-3.1783486378863515,61.79008355080479,134.67443480306503,-62.28585223424538,-7.3445198857853935
824.318440436175,112.67918556343619,29.70461414578031,88.53689030845936,16.01281494186956,-4.602711306816099
828.690169804544,103.98884679745194,-41.24414223401643,18.283524479068703,95.97426682628601,1.385429116158324
833.055300706441,-33.16970142378031,-112.37276047693885,-24.935387562679942,65.29395843884973,-7.059722832990538
837.413844407019,-46.435341301893445,-107.80759703290158,-13.398182416179019,0.5123027489713416,-20.742226249598257
841.76581216146,24.472927533186127,6.326555222052011,15.210906560587802,-14.349666171285131,-26.55269732958362
846.111215215094,18.885469386626333,24.819307074542206,36.97804489350305,0.6384005027477997,-18.64613355123688
850.450064803545,3.179795321330154,4.136516091156075,64.35635238932875,9.966623459574405,-1.7950920315113947
854.78237215284,56.723489652979346,39.409091998592444,79.86140739375969,3.53059795075324,12.0020820013896
859.108148479556,113.10590649731395,41.10877413666245,76.43634001705198,-22.872944905549872,26.40251629771531
863.427404990922,108.89019824719969,-4.60043487143767,117.0221336822213,-29.46366063781995,65.64155158659467
867.740152884968,142.77094993643493,19.72928917741399,219.62736559392837,35.366716686368505,137.47710941832966
872.046403350643,280.1389965316541,214.15809718544233,278.25434620382725,118.24895965825704,211.7249683840802
876.346167567935,333.03978251091274,247.941836839171,243.5821668290303,130.93947169056798,258.0005987636812
880.63945670801,280.5434558619816,94.71953888501794,234.960888407379,115.43477069118852,273.7756367346184
884.926281933318,323.3911357286671,213.66698561111718,291.2316641668182,134.64894143481726,244.57271880942125
889.206654397736,323.0027954562462,290.0432194997512,246.13205754014106,116.957857839551,144.8183601989599
893.480585246678,94.66511186479384,19.986367122558462,67.44937750843448,25.89514756502166,26.079230788407614
897.748085617228,-55.15744277618683,-97.5264109909559,-2.4468176713029877,-7.522767192317204,1.7625754487528589
902.009166638258,128.5065951374859,49.53550200547156,139.12784585345472,75.57210874284509,78.96898253522066
906.263839430554,303.6963974679239,127.87849735206817,256.1587393371728,116.98672928965978,121.00745303710022
910.51211510694,141.10831917014983,30.586197785237356,178.22614298978138,26.39167063244517,51.890742809300846
914.754004772387,-52.075614119327156,-59.398014909245475,46.19550952235809,-42.44443133045438,-27.915165116266223
918.989519524157,41.79884862531652,9.934706542595585,9.40577575888937,12.980660299609838,-13.411025825914745
923.218670451904,181.08293997049978,31.50681955480604,37.133405172492054,65.39014442596084,57.405289340714496
927.44146863781,166.20739096453084,10.013865759987265,95.33359546045898,26.802592159885677,100.84221810978693
931.657925156689,134.85826605383141,122.82543891230516,184.23885770000444,-7.588016093813323,96.73732553186466
935.868051076131,133.88821005673384,168.02514639470974,237.99962136859165,19.401774152932205,61.6397530497902
940.071857456594,96.68625644613243,55.90971815599796,200.3700945724113,24.85433636878939,17.196533448445223
944.269355351553,31.300320793224643,-76.67056487691895,111.57680307504427,-33.22257682858175,-9.653413271580462
948.460555807589,-13.130408706160617,-73.28622627711418,54.39295290839815,-59.9285104773239,-6.693953395082286
952.645469864527,-13.21386098372766,38.39363052119822,72.45507126899807,18.68863855049335,17.718343482492244
956.824108555558,42.11207728339158,17.107469192989647,137.9996599989221,137.9729295212133,51.196184253768216
960.996482907336,122.3945315018413,1.9339980596141864,186.5054317005559,204.08167223503654,76.83015519124807
965.162603940122,101.24199501267078,117.1336820047433,165.65348374997552,198.18785467081585,75.80632390142308
969.322482667874,-6.6178587757742555,121.59756102803915,71.98067283207553,131.43048455812266,50.34930938338605
973.47613009839,-16.076392179802276,36.04636639395411,-17.09426758641729,32.540925976909904,25.257017902187606
977.623557233403,51.420054380353946,32.93947982745145,-20.50012184042376,-15.654898208565399,17.71085175015355
981.764775068716,47.19451637039971,65.00862584567003,17.81211866175149,20.38294695502583,17.520169117569584
985.899794594303,-14.344200925873503,-16.50032657637719,11.082811765078311,47.459932596912765,3.470338311138196
990.028626794432,-54.9234257367599,-121.97135881954284,-9.473206769130076,5.9070287651636875,-24.749206865282147
994.151282647781,-58.36578840854864,-39.450637583651634,10.945548496503605,-39.47658529272145,-38.99408047947772
998.267773127545,-36.01025594893224,17.27494200846126,32.59825791623372,-31.359318671703676,-9.36608421510396
1002.37810920156,-13.689053941162115,-45.43318183355951,43.629868067761265,22.6026243875437,63.16720371402134
1006.48230183242,-12.370848915324503,56.19094064683136,95.75095588709732,94.12034012233514,141.59741008096233
1010.58036197756,18.10963343477078,130.5438322690639,158.42408283729773,150.97242981931663,188.53213924698414
1014.67230058943,62.47559256747595,24.86744399092407,155.80339927105544,173.3674369348783,201.161709947666
1018.75812861555,30.691353228487635,47.9460131362714,114.35405336846202,147.8599427422478,195.72981369871437
1022.83785699864,-1.72838507138637,98.11621718522375,90.54099072116131,75.97927293065356,179.56065412306788
1026.91149667675,4.291131778366367,-16.25775440694227,61.492504644782315,13.144389019499243,159.16153020689626
1030.97905858335,0.45139194836684915,-51.68948949280714,17.778420878201224,3.5824955477075378,141.34380872684372
1035.04055364748,45.55460314236366,57.661845883099495,11.363122087688058,9.236793665975853,116.1581349294203
1039.09599279379,38.872437806641685,91.46503532035071,52.34190946549483,4.737851174416079,82.44437633972812
1043.14538694272,-69.74839500898737,9.138671489835458,93.5565273630053,25.400486802537785,71.0024031422118
1047.18874701058,-29.981406064703076,-39.61716668880414,102.51903875545314,51.485061239771255,87.1808966355837
1051.22608390969,120.80559167296303,-7.328951097598583,68.76385723835126,18.8677191553259,76.66941296842745
1055.25740854842,95.98419996135529,15.228822352064231,-4.2537689536442045,-38.35603843761484,14.990908453598886
1059.28273183138,14.899913745082273,2.894127129319994,-41.631331100085305,-11.102474002962367,-3.5769381797064383
1063.30206465949,202.43448685217996,146.03581355624266,102.80253634308778,173.2853084783811,167.37648755639094
1067.3154179301,597.7726395779607,541.9225771353837,479.6560192043824,528.6386854046641,551.9077905592885
1071.32280253709,969.9043041553124,944.7492694890828,935.1974117500667,973.7428793099381,974.3988221773611
1075.32422937097,1278.1046189805672,1262.4427564916105,1225.2686214701466,1284.7088529879716,1189.6001749654856
1079.31970931903,1302.3888368503367,1294.0067657670875,1175.9224376086001,1242.534124936219,1081.082628714417
1083.3092532654,848.4517291084009,757.5143621859677,815.9239694456552,891.6057346892852,741.7709019196958
1087.2928720912,362.3303704054847,288.8807752660836,393.1917384965669,495.0496982346961,389.56905667040354
1091.27057667459,197.22623203899525,213.70106865309813,125.49405447848306,217.37402736064644,182.46437716010334
1095.24237789094,110.39826022046458,30.26791561380258,16.53192755689571,51.2684691100081,107.45008721805219
1099.20828661292,3.802158393200102,-69.02509960732347,-7.614300539475247,-17.740886018174386,66.4637087470816
1103.16831371057,-49.92993521383346,30.602215031476835,8.863041746368985,-3.617748514609403,15.48751380012379
1107.12247005146,-85.67837506218423,-9.799600369050125,18.657084704415517,21.000550038220638,-21.94259847272676
1111.07076650074,-32.27362782915884,-36.306161840302295,1.4720782417696272,1.5601247453742104,-17.891993854346687
1115.0132139213,57.3884428543365,12.542447602822762,-16.76628287876266,-31.803763207511324,27.606952194554033
1118.94982317384,37.49105968206233,5.101162001493959,-15.62489365390493,-25.644428396596652,91.42932132888146
1122.880605117,55.10616071673262,-13.204867231870686,14.809141731654275,21.148309098671092,154.6168647806623
1126.80557060744,214.55099868010373,39.91901362540332,117.39166452919271,111.81038431968301,245.16478293351648
1130.72473049994,410.08724684393997,288.59067603742966,358.50842646687624,314.1385030204746,431.72668838890934
1134.63809564756,676.1319065393442,648.1591576881962,715.1232894147224,631.6818391487272,719.8964714402103
1138.54567690167,977.1581016359806,935.2175212717342,989.1961975775791,894.339906690435,969.7106723111964
1142.44748511211,957.7686168614019,947.3151076444145,965.6595955091198,913.9348190192817,998.4002846638099
1146.34353112726,551.5792151004532,563.7028377562491,681.3769693834479,687.4874608947675,782.2931220422676
1150.23382579417,222.6026923037947,229.8685739182376,379.31440016555916,381.5555888449285,485.3994208260088
1154.11837995863,143.02013914256062,157.7309441344072,189.96769692438363,152.82251976041695,273.5787537384622
1157.99720446529,62.08538001733082,36.949124234861046,67.48539486918884,34.957697625017744,187.93867425857957
1161.8703101578,-42.68143416936503,-65.13390766194726,3.069803146422963,-2.780375491161692,199.82286376351144
1165.73770787883,-44.721818349181234,-37.98549527299357,47.459577395779256,24.060631878185262,262.80960265312245
1169.59940847026,23.70051134122332,39.65027554998096,150.79511439573173,83.41256280627243,304.46873008084964
1173.4554227732,18.466888608301844,85.71408728957103,191.86922343575304,101.56559627432077,286.54326669420544
1177.30576162817,-68.81188694575485,26.68593978333407,168.37119696748107,72.25068015224429,265.74470891698184
1181.15043587512,16.24621702596913,58.96483717207247,194.81953071231058,91.23140202000997,299.8004071691002
1184.98945635362,243.8164426620489,205.38465926877575,288.0524022705208,163.84489328311588,340.2674301364789
1188.82283390289,231.54987266447077,218.88219610336904,326.2770990092248,163.57369430649362,319.33399343838727
1192.65057936192,59.055634998866836,157.30608908618467,254.42650088060535,79.05095875038212,267.11228539770144
1196.47270356958,60.91405558128663,180.63121798756225,154.7912206212442,34.56821838022,230.04396261676192
1200.28921736473,108.04011314474621,146.7140275586946,89.69279535304437,36.28917186161243,167.92603115015996
1204.10013158627,22.984961167035763,3.826500362683049,31.931305605436187,-13.689359628561675,51.406175831204436
1207.90545707332,-79.38317829242959,-51.08846713507975,-18.870333297074367,-82.09253932820204,-36.123612036063705
1211.70520466524,-53.80399779924658,-35.45512934303656,14.105954021731229,-40.885153718334934,-6.468656242108853
1215.49938520177,174.72865006460268,117.515924508209,136.45649399893625,87.13860810078268,95.91895628465421
1219.28800952312,304.62771495984157,296.8841199558062,203.48217659825906,130.42022469347432,146.85018933846197
1223.07108847008,54.97204902913688,113.29243411883752,149.68609054892934,47.82952959601933,100.7572784754862
1226.84863288409,-65.85070607151593,-7.9536415623308585,120.88135205657412,-6.629945288897197,29.422191308041214
1230.62065360736,185.42965038321955,220.44752060921894,180.67610428696696,31.587460868472483,4.4128171610268865
1234.38716148298,211.545546595195,222.49160217335356,191.99508820526245,48.21832054451152,23.803260796816836
1238.14816735498,6.017197838908942,35.35202683298985,136.93373716275963,2.349859602788573,63.93670001474556
1241.90368206845,37.01646927957062,134.8073782355284,151.3727148879281,-14.200230630161055,102.39792593384499
1245.65371646965,124.23381837228732,266.08164062564884,215.51617901275827,17.397888128264412,96.61155448864042
1249.39828140607,123.74375577534397,183.7880176626523,200.57220222483136,27.461687022022943,30.018161815926298
1253.13738772656,186.68115036517815,165.9128241830494,129.9642582258987,1.4605558906586609,-41.29480309378728
1256.87104628142,123.21028880065344,95.63857234301315,116.63329694849733,-19.7170688952299,-44.48945933384121
1260.59926792247,-13.181458991926789,-22.188365696813776,185.8927674062163,5.216925466941596,28.758044271270585
1264.3220635032,84.61181153132901,125.79033551478173,260.66900509198143,78.40462213403742,111.27281430185855
1268.03944387878,164.36562386537736,180.95693831900434,234.8839430849656,114.17798975911757,126.77769541710461
1271.75141990626,24.303789134306598,58.867292849004365,120.93113510320447,57.03652164562826,75.90853246831452
1275.45800244457,-15.754975312939806,103.79801193832343,75.75320191724225,9.84925018211748,31.69377269141649
1279.15920235469,126.68522515416858,182.45218098878098,151.58601929175717,49.20858922410736,31.662075445175482
1282.85503049969,164.83663384135127,155.44269188577871,184.53007906466306,68.70920257040001,25.5185146064986
1286.54549774485,20.19571279965556,21.460011386840584,80.03686077984393,-2.191443344074706,-26.081217142714806
1290.23061495775,-84.44786678822771,-90.42974859598854,-3.138380302870786,-47.226404841243834,-67.72396945632656
1293.91039300836,-33.54775744322775,-6.427577944995484,65.37908460975439,11.079913526235913,-38.87569444332601
1297.58484276915,35.417367547981954,146.33714650202663,168.1088705800205,68.12178458205977,28.151433890135458
1301.25397511517,46.33867721083722,138.75282102560436,193.46532016733303,53.23894113207115,80.91567765183733
1304.91780092412,91.0426088703983,35.29136461888133,209.65482527584987,66.78480488119605,118.5972445367151
1308.5763310765,183.98688273650671,179.6731713616234,240.24287534594765,144.20385752235666,128.5234229886812
1312.22957645564,182.18021905205916,265.0789465411875,196.33606159574927,133.4684898206583,77.01643413996439
1315.87754794785,40.89254208816772,-21.687678992047307,102.7097462442116,14.285668202996561,8.616531956620022
1319.52025644247,-12.703817110178186,-23.433177543602373,86.34695108521417,3.829032958448593,20.96598553373326
1323.15771283199,130.01297319432015,211.33625267285325,139.57469781953793,136.41477280870956,112.21720888961961
1326.7899280121,178.90957093428509,148.24185438059874,151.9013494329765,175.76780592458462,172.0140063399967
1330.41691288184,15.559356811421813,66.45660347941686,121.6425513013472,69.71137661613965,137.94491226970564
1334.03867834365,-53.67252437160189,94.62040759596377,120.65281343871818,14.416862428596716,62.714127046404826
1337.65523530349,26.469098580715595,65.4708754754725,137.2279696476477,49.68337542527043,18.261841299245827
1341.26659467089,24.647410612817666,7.180694268196778,118.62543364807647,34.91141274035806,8.922872297844862
1344.87276735909,-10.892140419492637,-11.446589072242482,65.01212243551106,-31.872909259914692,-4.587471008149549
1348.47376428508,-4.8386882422897735,-41.124242179899426,6.404292126417658,-37.478532647890844,-34.69635109355285
1352.06959636975,-33.43676637367409,-99.68327560961731,2.345724087905147,28.16743842664762,-40.616447192453705
1355.66027453791,16.173305084013997,1.1628086476753658,96.90678963734095,99.08460609748882,12.62551727218927
1359.24580971846,148.72861606404484,148.55844048235622,185.18935741737624,125.40110977840472,78.01735449083681
1362.8262128444,119.79631270972772,100.61379121160616,136.7052833521969,105.80895540186333,77.31525620806313
1366.40149485297,6.977568553794988,13.529487730039747,50.781528152658595,115.49726495128232,27.787807120042867
1369.97166668575,107.46794103880525,45.45270131106599,110.8579720013061,197.5352922489975,23.127224837696655
1373.53673928868,327.9528065037982,163.72608325392298,279.63409686076454,273.79305104224,94.46639129920817
1377.09672361223,377.4752622702058,255.48035870352874,395.8335785474306,294.6314358632743,189.20102881403602
1380.65163061145,364.323573383784,304.36584697970954,439.952143130788,330.1200419336305,272.5263440596151
1384.20147124605,535.3069526299691,436.2705412795529,495.7327785054053,424.1761876226261,351.62605921072026
1387.7462564805,661.0422846465729,541.3692093779454,566.062908166275,511.1202806338374,410.4186115284219
1391.28599728413,484.25132288199,479.1302161865764,580.6899926292988,520.7011503675772,407.1790558289038
1394.82070463121,260.795061629904,396.09569632710594,507.41188360360997,453.5161601793229,338.2469244304458
1398.35038950102,197.24490202722308,289.574603680571,376.30550191415716,338.1352550774413,246.86958991436865
1401.87506287796,183.6248005015796,97.98016041804017,235.32418744138292,201.29311559449013,163.89046286551175
1405.39473575164,147.8876307968781,32.7705093768019,102.47523998269756,73.27552283744187,78.81572279586517
1408.90941911693,39.40755786243004,24.56652231275571,-7.871351369027963,-13.485872519236835,-6.40695959323868
1412.41912397411,-54.582884425820495,-80.10144748960631,-8.287817749292387,4.421854113040837,-26.01622446896443
1415.92386132889,103.11182947700196,62.176731431523216,164.5885489960163,167.44476910368232,84.24375552287239
1419.42364219255,378.0263496052669,421.44355446393615,392.865507949683,374.041374150046,283.0917475001496
1422.91847758199,521.4600458470114,568.2082840159682,534.0648910806713,494.29721683426664,455.20551044227466
1426.40837851985,635.2376783920073,569.3797033196996,608.3930788280928,541.7236587209183,529.3104386261926
1429.89335603454,677.4944782261447,581.2817316509136,651.3649787137515,568.3051880741668,513.6749296980876
1433.3734211604,518.6582759159418,561.3631042497079,619.8473276487649,549.6107222543613,451.1876147559789
1436.84858493773,367.7546566899593,484.77159663909134,499.80701265324024,442.4952762829081,369.75606582185384
1440.3188584129,265.82771919648343,390.29002981678326,313.5746062006832,243.55744279768493,261.60491094623086
1443.78425263843,37.60828647482781,153.46975748116017,115.26873577557248,34.23513987110702,124.72736626176773
1447.24477867306,-112.3715331582199,-125.31628691747639,20.351067606835315,-52.289122254010216,11.43735066806638
1450.70044758188,21.466906925047613,230.12241349857374,76.39377860867822,1.887760088200423,-20.011415343573184
1454.15127043635,137.30090929568155,619.1592310950515,171.62449654825915,76.38612222912889,17.210986629827698
1457.59725831444,59.29467349797511,206.10082863786693,188.10263926061413,90.19639170740382,64.40586507113747
1461.03842230068,49.63793744040373,3.2304254723223096,136.58303478800545,62.06414234299794,82.95073348527441
1464.47477348627,132.28946505306197,170.48966653830087,82.47899200435018,26.65747439788953,63.71251935192193
1467.90632296914,90.6501053552473,61.858780628541936,49.563355524103315,7.003907369866383,28.808071400969098
1471.33308185405,-16.869383116923455,8.07508421829884,52.165971045968796,23.321062487389412,31.774054061313205
1474.75506125268,-9.378897838297199,50.18189619137968,116.44296744996856,81.36688127761896,92.21937338173285
1478.17227228368,113.89089611901554,66.33103129423165,187.63163204547533,143.92941868699083,141.3720513556523
1481.58472607279,170.1718116335668,81.01186543384503,144.62559503763092,125.05059730974214,97.33439181568951
1484.99243375291,34.464415171632645,-35.088682518151415,9.418425028346434,6.623285153474811,-12.190889518762297
1488.39540646416,-89.46928600117198,-119.39584114636988,-30.439904788176378,-71.59154181457511,-66.034888245498
1491.79365535401,-12.03558171110701,-4.98341521685359,83.27199942169806,9.016567859146633,0.42571808175208803
1495.18719157734,78.61569903722959,101.45690831117209,181.93688048204172,157.78441626766158,117.08115661371122
1498.57602629648,57.664801557454105,62.71177631597972,155.13127594077895,205.181707339416,170.03229474805468
1501.96017068138,26.126106875767007,34.841000534191146,79.83690374711377,119.36607357913434,128.232599814311
1505.33963590962,-12.770998089425195,5.9532310790666525,43.688367931242496,12.838372209152894,55.69429426392409
1508.7144331665,-24.37555064023535,-12.044942865402026,60.894964918068176,1.03003504558869,22.293881057149402
1512.08457364516,24.631835720821687,78.50598162837879,95.99076090720065,72.3166592854092,26.779418222727397
1515.45006854664,20.61999168643809,49.44845349173059,82.24435410644544,117.64498753145443,21.13117918391429
1518.81092907993,-15.207036542717647,-37.73252107910627,17.23007793792018,83.83316692312533,-7.892959064790226
1522.16716646212,-19.07542716521405,-13.119792878541139,-16.3840921573754,17.846670396132232,-30.364505511021505
1525.51879191842,-45.993035725387465,-55.27289161513676,15.130768746261609,-14.771538522949736,-33.193176190801594
1528.86581668225,-50.678449192687246,-59.915410013343326,63.66096427390978,7.727967017289288,-29.630383301087726
1532.20825199535,5.927454266024956,-4.813550296311073,106.9523765684892,62.19570296893788,-21.03292174478105
1535.54610910785,43.911545828073244,4.8504042179511195,149.54318453868453,122.19085944287136,-1.2745898560540354
1538.87939927834,27.809449326317214,89.74175407156883,147.40910196156275,176.43981703464723,15.649768455347797
1542.20813377392,5.874069280199002,62.09124740333854,111.89395646973942,228.06224264843874,16.076375121584675
1545.53232387036,106.59906032818941,17.229803637997087,167.81731734438856,299.2611686812722,13.392060573147603
1548.85198085211,289.50165934041627,214.73953270293833,305.07792482569204,361.4557925113432,18.759919134943573
1552.16711601241,247.7835607318342,223.6810871902168,332.7510303635867,336.6958750380652,20.66557635693161
1555.47774065334,20.30831014472505,6.610319005289014,221.9045654913062,264.70588460482014,20.678102386921864
1558.78386608595,4.662091092517656,-39.13632763537872,162.39178342128344,277.2189333314283,45.8891617675109
1562.08550363029,201.9015352809826,41.347770162402966,252.40595377001227,378.6413393812857,112.46581829494968
1565.38266461553,338.833466329056,198.82624914621147,399.0086113784339,473.61645353639295,209.33711840461953
1568.67536037999,399.3775659909266,403.85416699203097,485.84998010262353,532.1091565140542,308.25565839226
1571.96360227126,428.6921962089901,463.53075556201276,502.78957191321297,571.300390069549,374.2216949543849
1575.24740164627,423.43278411939804,334.6506642805899,525.8412003566824,608.3417393063473,392.8261892776667
1578.52676987135,494.81934541486794,284.8472625713615,587.200197618069,667.2071953345136,389.06039576124925
1581.80171832233,582.6003134979792,454.35516542443224,619.0300033292827,720.6875121561886,393.7098235355535
1585.07225838459,505.4611478547297,462.6649565376239,587.2677122997316,700.1712294764901,411.5471839133585
1588.33840145317,428.41910360660813,266.49889242702574,557.1708247653977,602.5431413297501,426.9989296418225
1591.60015893285,473.066944070962,267.6901652851895,538.9313215574284,477.3087971284086,404.9051036617923
1594.85754223817,381.40324544313023,249.13996223084996,460.3398302744065,361.1808940042696,320.00125362027654
1598.11056279357,170.76475420924558,31.8728509879995,351.0166690360276,299.06991543283635,212.5026564828566
1601.35923203344,150.5078851730224,60.41556863760117,307.0076852901913,305.4564462823923,141.9543664065706
1604.60356140221,191.2528352789352,193.8445064819632,281.6316847096745,289.2611672239305,92.29305899394305
1607.8435623544,22.733335825283234,4.6446407359955035,168.51013551270984,167.905669340712,18.5289072024913
1611.07924635472,-121.9741932050037,-136.64503473347276,14.98350264292904,14.759655635348224,-51.27454928279986
1614.31062487815,-36.4004938321895,-43.93968632926238,-49.594228838507064,-46.87177752110374,-58.79999959345078
1617.53770940999,49.65546994585144,-22.580899076650482,5.253643730003688,-2.993763864264018,-11.725004088011964
1620.76051144595,41.64891458171581,65.94224044010768,100.91429586511207,78.28259228319753,30.762699965778648
1623.97904249225,32.057457679100295,162.0479194640003,135.13490969576404,112.0521245736713,30.56495523055542
1627.19331406565,-8.02707395096418,14.675993900628757,75.41835327609915,59.404457275049396,-0.8880307898556126
1630.40333769356,-33.91209651305219,11.535954567576043,2.2778660495674607,-3.1075066337012203,-22.189870925029012
1633.60912491408,11.701715395544472,116.02327563592965,16.749502215828958,12.789534886255453,0.26518076190141926
1636.81068727613,95.9507257936191,103.10253516107018,104.29069129664533,62.41939033185865,59.05270193279409
1640.00803633948,164.05527787279124,231.5640088799849,152.48983633567548,55.654273004374915,104.01222100643947
1643.20118367483,98.48712834385054,182.52187266048017,121.7743401552268,8.475734944975073,95.51797496088612
1646.39014086389,38.563176516406116,33.854255579847774,90.48447146830678,-4.919983778853094,52.77292075441346
1649.57491949948,144.24321866138155,233.0595163633768,78.29309499501863,5.462356902994202,17.39646667471422
1652.75553118554,131.9733797907265,203.22196049506934,35.33323910906391,-9.377008109370223,5.813681048170551
1655.93198753729,6.546493361659099,-6.482126995789377,16.891343366215924,-8.090094058132479,16.276231229755837
1659.10430018121,46.4189337705131,128.0996721732317,71.99482211293741,32.54887059943093,26.38531501472029
1662.2724807552,30.211361198794943,112.87353786328151,98.76974525286232,30.518574072091383,8.140819519822472
1665.4365409086,-108.12874084304485,-44.5348136477547,70.72989032114238,-8.664965429990673,-11.684840367578033
1668.59649230227,-23.18564693015367,158.1166376755418,103.9938873772663,15.743695124528031,22.511678845721477
1671.75234660869,165.53400124995724,327.4030328450528,186.87128401270192,64.02501438306,94.68350457246422
1674.90411551199,138.93934952635306,159.75627995944197,195.78451876817925,34.31767678220935,125.3172644799618
1678.05181070806,21.32378510492772,39.96096498817855,137.05947401559635,-19.787905107248392,79.45184728104883
1681.1954439046,-0.06071109512132189,108.00982900405208,89.61260547286896,-17.51606176014232,4.895504966953251
1684.33502682123,32.01734260354275,114.85880606478821,48.54094978384187,-2.825630194197153,-36.04262320722361
1687.47057118949,23.622971380768085,-1.7325631897119802,-1.253550835778963,-17.948141021324872,-30.10973983380397
1690.60208875298,-34.11418942052659,-67.88348447223393,-18.434731720407786,-26.235209640280893,4.875061494122937
1693.72959126741,-35.622610753321844,-37.37099083625853,9.629050128030416,-11.598618089374105,55.739399615924206
1696.85309050066,19.4677652379655,17.04241567957955,45.49370989184392,-0.8758449509911976,105.31811458240453
1699.97259823286,-17.4272894985117,46.6803338477483,85.63954940110695,17.7192636304644,136.0952025203856
1703.08812625646,-64.53575371937819,42.07261690893745,158.9644982395242,83.6860516364608,154.46303426998495
1706.19968637631,49.51417732493899,130.57007201285217,220.67849945809462,165.89602741174744,164.90961648017958
1709.30729040972,140.24690720823227,201.01686272730748,180.61713060531895,184.9994169384689,149.61361625866323
1712.41095018654,58.394909393743916,37.10987037557132,88.65410356651567,147.59744384323147,122.86360644058108
1715.5106775492,27.192349566919702,9.115877843348803,96.8807360156899,134.01827223524288,129.86422022788958
1718.60648435283,104.6686621386832,166.20401629826236,183.7317982643861,148.098760700045,148.29549275991755
1721.69838246531,63.82591346440425,58.32693810750608,182.53025295127463,112.64849928978151,104.72099454119365
1724.78638376731,-73.60251647679813,-102.01198007987965,94.42367836037519,19.111005530466365,14.842551610433102
1727.87050015241,-74.08185037386534,-60.506350288206235,56.75778349163321,-33.85147141818076,-23.710659833026035
1730.95074352712,16.117399461985425,3.9895277913608833,55.44912987237505,4.970509341061618,13.476315347326599
1734.02712581099,8.396093745995756,17.568716380075486,7.488555297793454,60.9479786321079,60.932596624106694
1737.09965893667,9.164187528445932,40.2204508526937,2.8062274982247786,94.11685516392271,92.30006220151316
1740.16835484995,118.6776290165445,180.28331079162564,123.34907079252707,153.08591696338698,130.36591285563162
1743.23322550988,147.99711145474683,281.48356804840614,215.55415991254347,196.5593638690063,144.7991815302642
1746.29428288878,37.421439258380104,127.01906467181016,135.6523289599264,130.55732609731893,85.55613976864606
1749.35153897236,-48.7097451866593,-38.51810307769003,-3.599074809123046,21.17491150364711,1.4508132016854391
1752.40500575976,-42.48836744895178,-24.961760876445624,-23.597268058231876,8.044852948279459,-5.904602053079147
1755.45469526363,8.395801154857342,2.059396689600004,74.03199918854868,82.373583571202,65.80678815416879
1758.50061951018,61.495108799932275,38.606062715592536,153.5282156947888,124.74068827986399,114.03007711982184
1761.54279053928,85.52190449853983,91.22795080595014,125.3266803555945,73.81118591617383,76.75135644238382
1764.5812204045,45.369214405371565,-7.333506408554591,33.739504237557306,-12.48563069864516,8.282968329282486
1767.61592117318,-29.8753126117982,-56.934108351224786,-11.193572434468113,-34.32097961675565,-14.310463828075303
1770.64690492651,-57.05521611828209,67.3764539114423,14.310591775885872,6.8698254062633595,0.6110814104160802
1773.67418375959,-38.09738286475095,30.56494074193055,29.49457052692705,16.70722574419503,6.329299992495784
1776.69776978149,-15.597360469152367,-88.07566109819025,4.532246954832797,-12.025413979044707,17.74255278592435
1779.71767511535,21.518671057471003,2.8984952303397904,-2.665613681531023,5.573585240229292,67.42929978666069
1782.73391189839,40.11093444694467,117.7101894467589,27.330679436223456,72.83547578768545,115.8528433785328
1785.74649228202,13.621293625786912,89.42034640854105,48.53202326595541,116.63674731988678,109.59557133883958
1788.75542843189,5.872171595000442,42.19293908778393,30.662525906183394,104.31009525915759,71.33907817400319
1791.76073252797,2.5928015195759713,30.30856771908263,2.2937118388606645,54.22460938699879,59.85446049620376
1794.76241676458,-17.87172937657207,6.708293316420935,17.71644769828064,24.80866380998257,92.80558538581329
1797.76049335052,46.83935977494699,60.84358307702855,77.39311934495717,66.57500806535676,136.64899719043137
1800.75497450905,124.45756396424991,211.89602643263916,113.62549708836923,127.80928493766714,147.71648167621862
1803.74587247803,51.114632803087204,148.05417844100708,85.87034954695733,124.26076271951258,125.81257673617357
1806.73319950995,-9.146966538203348,-55.52403161357965,34.89179761228369,78.2315151605711,106.57752186670025
1809.716967872,45.39858357287525,21.74446304901596,8.164969310042526,52.045950079188586,91.84992353217007
1812.69718984614,-10.328261764988202,47.39488068148871,1.8824714918064949,33.29245421665374,52.50946984838127
1815.67387772914,-118.5829810065899,-108.74502774835945,0.6320629875390154,-3.9461096377811806,5.2316638880611777e-05
1818.64704383269,-67.89653532796922,32.50814786852322,-4.773407930147403,-30.016664046569225,-24.266863870603515
1821.61670048343,-4.314698610511243,99.37591879972572,-8.661884344551183,-5.560274844421444,-12.966099748315846
1824.58286002301,18.43117862245042,-37.66045735763323,29.46639026583631,61.41143285201463,8.468498864877088
1827.54553480817,89.20065884556121,143.4691909476769,99.32655071775712,100.42229900991235,13.892785897549693
1830.5047372108,50.0898535907571,194.02617133288697,121.80955254921864,53.710254976266064,-3.1769735931058367
1833.46047961802,-48.035161199048936,-61.809897592082,93.86560415637413,-13.269894811523528,-11.083319119761345
1836.41277443219,33.24027151025814,-20.451247531039016,76.2027726988845,7.505807229989022,27.89124899992835
1839.36163407104,111.80502036026013,115.55851557867192,69.43327388908553,94.72300897362722,95.5467605352259
1842.30707096767,39.70588243677464,59.169853899631484,68.98763980999426,156.64886460974208,138.44410136900026
1845.24909757068,55.87928313571622,52.79835405662014,106.79324135982748,176.18030980401267,135.00390155154358
1848.18772634415,162.3018659011101,107.23349762776608,135.2469356812264,158.12010529462955,91.81458601633899
1851.12296976779,101.88268704429693,54.55707769573773,68.50533180815475,78.01287922905408,22.033769471764128
1854.05484033692,-55.526055016876995,-74.10044409906635,-14.214846396229092,-9.222467832517854,-32.69266775534823
1856.98335056261,-10.459644655167335,0.2503065767101855,38.4074651852346,12.875497001615374,-25.79825902224464
1859.90851297166,153.80884485132006,175.24430079682574,158.95712136302706,122.3305299093315,26.00705081397265
1862.83034010674,121.14850170618375,98.8169824279999,162.77125735312097,159.55267628372013,60.39142293507351
1865.74884452639,-9.32576106382085,13.939234828003514,61.15175428115315,69.65966023587792,52.04295254337013
1868.6640388051,-27.2308948831934,48.76418658849921,-8.86175123200978,-28.828086004352308,23.239485127803672
1871.5759355334,-19.634343134058764,-36.593906666413965,-11.90200325265333,-31.168561159178292,-5.880488301360959
1874.48454731788,-13.60135950195789,-88.59561474829984,14.147876954799209,30.825828199874437,-28.699882070652187
1877.38988678125,24.871306783844826,0.13868722238537057,45.792357581410016,64.33518675589114,-32.40909770620628
1880.29196656244,24.10256869867475,35.688446005034365,68.02286122597172,45.35218178806547,-7.166914348479597
1883.19079931664,13.600126794401978,61.52671081561791,75.75284017229586,30.731893105442836,25.44989251867743
1886.08639771532,35.400770419614005,106.50445698234742,67.60314596341146,51.15808189777113,27.32861734593248
1888.97877444636,21.508168334691863,27.49917744034568,40.774049524292494,69.60232798093789,0.36041913814830906
1891.86794221404,6.008860324231361,-16.507811180225204,15.680254096304267,59.230780779295834,-12.723294949017259
1894.75391373914,17.993127871608362,43.888905986805646,7.733145039302484,35.10555784428318,1.0791095276817941
1897.63670175903,-36.64114299808942,-27.355428541396144,-1.623235411903675,5.4171277891283935,10.115915294210524
1900.51631902762,-78.0011176787065,-73.71553692509521,-8.73392573999893,-22.410579432262708,6.372397655697263
1903.39277831554,-1.9152715512919105,82.62482423953634,13.46917236314339,-3.9115006055202315,20.856533944856075
1906.26609241012,40.463389987886984,168.29438749630347,52.573380461324135,77.74161113235951,55.06623035025471
1909.13627411548,-5.568747927367964,129.44064468776517,70.16349183042095,136.7011917997035,61.573615307468735
1912.00333625257,-11.211244542033619,56.018627843839646,44.40751162556714,92.13606423209374,19.811916001369575
1914.86729165924,15.850327153900079,-61.887276516727425,0.8493949585555214,8.616183940041243,-21.50262786482511
1917.72815319031,4.01525821681364,-32.0393636603966,-0.5289877397919369,-17.282380027659933,-18.81148127949779
1920.58593371758,-5.134359239495915,54.50959919924639,32.37800470424391,-16.584507067835318,-3.108087465997823
1923.44064612995,10.739146480333687,-17.16518161743024,28.143611644151072,-37.949875514812526,-16.44941222690794
1926.29230333341,-3.5518355044879932,-39.540487844833464,-9.637585846356167,-37.21121983292265,-26.31315596170368
1929.14091825116,-18.67777291354746,-9.251689306636083,-6.494372562924632,4.7707548714519845,21.865129331772767
1931.98650382361,0.10655643006099158,-20.80976431355579,60.229820295552386,33.88188380740127,103.29124682089511
1934.82907300848,-22.69194270513494,22.097661114570936,131.90946613589028,33.20929999181563,134.64537474100536
1937.66863878082,-41.19553583155763,53.213451911658154,133.90812522805078,24.52556070029933,84.02099569253976
1940.50521413309,20.841491525480592,44.62650706229992,74.54619111959671,6.579365578079827,21.30955091151054
1943.3388120752,53.39238641278804,4.477137969348412,67.41643183707649,13.014386372259363,48.90872526490345
1946.16944563459,76.9828624622673,37.498909365099934,163.0900744730003,101.1334027082456,174.17171240709587
1948.99712785624,167.96010221305482,196.29622228408093,236.1307381396997,202.44027855581493,279.21189405335565
1951.82187180275,153.18418608002082,160.1829106374438,189.5455651741009,182.54842521761128,259.1595898619609
1954.64369055442,34.615753213659424,-2.2410131485447744,109.4172014177592,65.62895566478618,142.74622989269903
1957.46259720925,22.89984170921803,-18.447033653126063,66.03962445866996,-17.503758964531674,27.719053530786567
1960.27860488303,27.309578798761894,-55.38799419166546,14.859045791484107,-31.06780293169077,-26.555791714002666
1963.09172670938,-53.41012085959722,-84.82208519888218,-11.120493912231325,-3.8332605116150678,-4.573067452025221
1965.90197583983,-27.7732309280823,43.31977365957158,68.15288620126668,49.80161224310907,78.22364084883888
1968.7093654438,109.1590240439406,132.04281595692774,156.56103872635265,72.58785235669808,170.23152100604307
1971.51390870875,169.11879557274142,42.688138106545146,134.82872310422073,18.680855320930313,236.28284885970666
