Wavelength RP,AAB_AS_I1,AAB_AS_I2,AAB_AS_I3,AAB_AS_I4,AAB_AS_I5
341.62734,-43.05383,-220.09703,-26.60329,-7.69296,-26.1113
346.73377,8.48802,56.3739,34.86489,168.60234,36.99976
351.83237,106.07774,72.75715,105.28277,359.18131,319.95939
356.92316,133.95895,77.10513,225.85219,430.93827,341.14354
362.00614,142.62454,46.71327,187.24059,251.71315,251.80558
367.08135,106.05572,-51.58192,261.53486,230.16847,353.68534
372.14878,46.57055,42.73868,368.45066,370.0092,362.95677
377.20845,198.00309,20.5974,316.07331,413.46524,362.89452
382.26037,430.90344,320.96211,552.8224,624.93851,573.4199
387.30455,612.36737,589.31934,920.67295,889.50546,871.67305
392.34102,798.71901,783.85522,973.74553,957.29373,1013.92162
397.36977,679.38611,524.23869,786.68916,776.22315,818.44223
402.39083,342.89099,211.11293,609.22721,486.36967,601.04457
407.4042,245.28568,301.9612,476.80998,408.71759,546.54065
412.40991,182.04097,74.02711,331.58935,309.97656,420.38192
417.40796,30.85017,34.68978,259.59325,120.52036,250.82005
422.39836,9.03259,-54.22748,201.18463,38.18186,191.31843
427.38113,29.38403,-28.31956,142.47732,21.32761,295.22645
432.35628,30.67655,114.65224,125.31566,84.4154,253.07692
437.32382,-5.96203,-95.25432,18.10857,3.71439,-23.91581
442.28376,-107.54131,-72.00447,-87.37944,-86.90971,-26.47663
447.23613,-36.61946,48.52618,35.38349,55.71737,157.64909
452.18093,176.24268,35.85783,128.64888,31.55119,148.48697
457.11817,148.72192,38.75347,-6.04241,-74.97987,68.53938
462.04786,-6.56617,-36.19769,30.88106,20.20905,2.12686
466.97002,-4.76548,-26.50941,115.49099,27.5062,-9.40199
471.88467,-0.28151,-4.11602,-12.4712,-32.99804,39.00471
476.79181,9.30917,-10.75361,-10.35311,-11.10186,-5.26876
481.69145,128.25899,132.17121,76.24253,-21.84349,-15.43801
486.58361,196.26019,187.11981,162.03867,89.95582,97.05098
491.4683,193.80398,187.59393,195.67424,184.98809,117.4272
496.34554,157.17853,153.91101,18.47327,79.35079,40.75235
501.21533,80.04848,-9.14031,-32.42899,115.09081,-8.40853
506.07768,47.24931,55.56522,33.68282,106.62184,20.97032
510.93262,35.45099,-46.80093,5.43381,-15.24926,46.80314
515.78015,38.99035,64.39896,-21.7896,54.18,-48.60434
520.62029,64.71692,10.50891,-26.38912,52.2737,-4.16363
525.45304,-0.52693,72.09457,34.42708,-18.56276,149.97861
530.27842,-32.23172,8.70444,48.19188,23.48938,103.44884
535.09644,85.50797,126.59395,15.24798,18.72256,83.76659
539.90712,74.43923,-6.12943,22.06766,-53.5229,36.70867
544.71046,-69.11789,-49.13484,34.41953,-16.2706,-73.88864
549.50648,-11.11367,159.39292,3.3344,95.22519,-1.81907
554.29519,89.40135,-120.70771,-103.30813,17.82775,43.63205
559.0766,-6.61936,47.49125,-45.10146,-46.09763,140.4673
563.85073,-25.6671,99.3736,111.08862,48.43859,182.80922
568.61758,24.55653,199.88341,62.44952,-8.6197,-26.72224
573.37717,-3.04687,-59.94202,-36.94464,-97.21333,-22.06536
578.12951,143.4943,38.10242,120.19443,-19.07259,125.94588
582.87462,220.4274,150.35187,307.76626,43.13706,195.28245
587.6125,41.35584,122.79455,204.86497,50.45265,265.33799
592.34316,71.87936,113.31609,176.78677,102.70851,243.21187
597.06663,110.6852,165.36757,213.41941,120.60399,172.26915
601.7829,8.44213,-3.55016,203.04156,102.56888,125.01742
606.492,179.39639,61.05863,380.51131,136.25336,222.1846
611.19393,233.34998,208.10077,325.5257,88.37828,250.88798
615.88871,-10.87341,-46.85034,144.6045,-5.84006,51.6692
620.57635,21.89056,21.0479,263.34387,32.60363,76.91011
625.25686,192.36482,66.54947,246.86975,84.08733,152.96202
629.93025,111.23323,6.20687,26.23907,35.28855,8.34949
634.59653,29.04764,-15.17799,32.91624,32.00734,19.30784
639.25572,101.60911,65.18583,166.42914,101.3295,90.48808
643.90783,44.0919,39.27657,15.49567,4.92933,-17.50112
648.55286,-66.75226,-132.07791,-39.62987,-110.07991,-19.4718
653.19084,41.5647,89.2834,219.38942,-8.90742,103.48371
657.82177,67.42153,27.87049,128.56626,7.82281,17.94533
662.44566,-79.8054,-95.91261,-66.84079,-48.4623,-108.86984
667.06254,-44.37217,9.06806,19.5381,36.03108,-8.78658
671.6724,88.52652,7.19292,-23.03084,4.99827,41.81093
676.27526,113.22322,31.47501,-60.1385,-71.49492,-21.07451
680.87113,89.39656,-43.32414,73.61493,34.04642,36.76513
685.46002,34.51997,128.57371,60.64366,34.23113,39.16404
690.04195,-23.06226,-65.30183,-4.23235,4.70747,-36.48778
694.61693,-4.30647,64.13522,29.53115,47.70827,27.33189
699.18496,58.14105,3.79975,40.33538,-35.78627,61.97595
703.74607,45.78022,17.87732,16.70487,-6.8704,-10.38929
708.30025,19.09201,49.89192,-22.31815,76.71551,-9.41461
712.84753,125.18495,25.77841,144.38708,158.80632,110.32802
717.38792,171.66409,131.66528,261.71385,227.73611,145.64268
721.92142,71.91758,-12.52295,28.3014,43.40856,22.77755
726.44805,26.93083,-40.37356,-8.99817,0.52973,12.04066
730.96781,-22.68677,101.47465,26.09325,22.2398,43.23134
735.48073,-22.7922,35.20722,-39.40023,-83.3047,-44.45338
739.98681,112.8205,17.23678,79.04591,47.51034,-23.6781
744.48607,102.74077,34.83909,43.49903,130.11045,41.53636
748.97851,7.16903,20.84387,-72.1962,-5.77097,13.73007
753.46415,41.4968,-53.63719,21.33801,-32.30486,36.3776
757.94299,9.57809,-65.4159,22.7039,33.75652,-16.31775
762.41506,-75.04562,10.77399,-78.49622,-12.77332,-115.34617
766.88035,2.38493,-74.56631,27.99542,-17.61627,-15.95086
771.33889,83.74921,96.7878,109.37762,32.66925,32.80259
775.79069,30.20537,-37.11185,-21.82647,-33.17168,-36.38379
780.23575,-19.2352,54.81399,37.57145,5.06087,-4.72214
784.67408,-27.27015,-7.84893,133.35595,23.64476,14.20457
789.10571,29.65314,12.4079,-24.04571,0.78997,11.88633
793.53063,177.83053,51.60167,-43.53165,104.99515,33.68032
797.94886,196.12389,186.62348,24.38143,22.89703,7.27377
802.36042,93.79801,45.39324,-18.33489,13.90833,65.98935
806.76531,117.13426,-6.6036,40.52386,216.71087,155.02801
811.16355,113.61566,61.59792,52.18706,135.01263,38.95341
815.55514,5.99006,-30.9348,45.86836,-53.10999,-50.9325
819.9401,34.20088,228.53767,139.52829,-47.93432,25.09356
824.31844,151.95203,4.38969,87.83799,56.09731,42.44952
828.69017,119.38844,35.12452,-3.5996,134.89704,14.14061
833.0553,-29.50731,-84.65233,-61.15608,51.89615,-22.14015
837.41384,-7.01631,-78.61481,-18.21503,3.3554,17.45375
841.76581,102.01217,115.51677,97.56699,85.63876,71.23489
846.11122,27.55634,54.16333,-4.62631,28.84093,-26.03632
850.45006,-36.34566,-39.42563,-19.83159,-55.5344,-21.3029
854.78237,-5.18862,31.63096,47.58086,-33.69637,0.10673
859.10815,29.62642,-19.8703,-29.64753,-52.39103,-32.88874
863.4274,125.8589,21.68026,107.04771,-20.00886,111.87379
867.74015,177.63819,163.25383,270.55529,82.15877,207.87356
872.0464,178.38524,99.41123,219.49132,90.26451,204.52377
876.34617,189.92788,210.14376,140.08804,27.81013,181.24138
880.63946,151.43531,13.3888,86.75543,-14.68323,136.86427
884.92628,176.57116,149.64446,194.99161,29.4597,190.83584
889.20665,162.53175,204.34365,209.54002,45.55887,120.56815
893.48059,-20.63484,2.28998,-19.89279,-45.44413,-52.17014
897.74809,-25.99251,-7.68648,33.62101,28.60615,12.17364
902.00917,107.3627,176.00177,219.7972,126.92854,123.93921
906.26384,86.2178,-37.99057,146.29102,7.9227,72.89774
910.51212,85.51032,65.80933,158.73317,21.03715,25.32162
914.754,82.45602,225.54833,205.74725,119.27721,32.34054
918.98952,-12.13423,-21.72763,48.62379,53.11847,28.72737
923.21867,14.42368,-7.68936,-70.42151,7.62968,4.41928
927.44147,86.6281,-11.77194,-10.31779,-1.38806,-10.77213
931.65793,48.41128,110.12065,144.01895,-43.8291,42.66502
935.86805,-13.12506,67.09205,107.27836,-49.04868,17.03265
940.07186,-15.10617,7.93984,24.98603,-15.23279,-99.91421
944.26936,32.90748,-73.45971,117.7926,9.2109,8.81798
948.46056,26.52926,45.84456,31.39465,-5.55262,113.55639
952.64547,-44.43363,-37.55606,-43.64991,6.9421,-18.81499
956.82411,-43.17013,9.74281,31.85168,92.852,-28.25493
960.99648,42.78813,-107.35068,-0.04276,131.43584,34.73583
965.1626,35.73974,59.2146,18.68033,95.76984,2.72845
969.32248,-36.46078,124.55999,14.15856,130.48537,23.07041
973.47613,58.16946,54.53537,-44.37024,137.47146,92.18436
977.62356,145.06279,183.54537,-19.28373,2.30713,87.57856
981.76478,65.50331,20.65135,20.80522,46.76808,25.16616
985.89979,38.15899,69.12418,27.39241,166.72269,47.57579
990.02863,15.43469,-62.151,-39.92783,3.30204,15.88089
994.15128,-72.98847,-73.26385,-24.49347,-55.5587,-88.37112
998.26777,-61.93335,16.16157,23.80635,-0.21505,-55.52159
1002.37811,24.63041,-5.0649,-0.13247,-15.18139,35.01401
1006.4823,42.57348,76.4848,97.13077,163.95905,162.05214
1010.58036,17.35255,204.20851,184.55532,176.52213,175.48794
1014.6723,7.24156,-94.96069,53.6309,23.56223,23.28356
1018.75813,-31.30885,9.84253,-30.90805,107.36298,73.56188
1022.83786,7.36335,128.11055,110.89502,99.2569,190.03949
1026.9115,88.19825,3.78205,112.17171,4.52282,111.50154
1030.97906,35.09496,10.8617,-15.22987,47.84612,93.17177
1035.04055,21.90668,19.86087,-19.95879,27.87935,115.97568
1039.09599,23.82252,19.58559,-21.85028,-66.36089,-19.13282
1043.14539,-65.82214,50.27297,61.08613,15.02568,-28.40633
1047.18875,-6.84011,-72.37585,102.65402,139.80771,104.82354
1051.22608,117.94896,5.86915,-15.93546,5.50977,37.67005
1055.25741,122.38668,12.0787,6.12593,-29.96856,7.40639
1059.28273,171.97112,146.80351,96.60857,194.6197,150.34725
1063.30206,431.0892,414.9527,241.72299,416.18348,304.32939
1067.31542,819.91667,678.90384,689.39721,750.99974,725.38639
1071.3228,1080.70515,1137.17284,1045.16621,1085.33768,1139.82835
1075.32423,1220.03038,1147.40141,1092.15875,1252.80515,1089.76675
1079.31971,1243.6645,1257.29825,1138.47916,1233.26027,999.2627
1083.30925,908.39045,803.56232,877.95589,913.68785,839.30841
1087.29287,485.31925,409.04927,430.31537,604.90256,415.25509
1091.27058,278.74928,290.49283,229.94705,346.156,214.00494
1095.24238,103.11488,-26.09249,-2.12459,4.28914,144.27265
1099.20829,13.48084,-68.6656,-74.91821,-34.5139,12.08358
1103.16831,8.49023,33.73388,39.94434,42.55897,-20.77244
1107.12247,-23.79452,-40.92769,8.47124,15.51461,-32.12287
1111.07077,100.54758,50.08467,35.13717,109.16796,14.76438
1115.01321,204.7363,24.99412,12.77632,27.67259,19.09516
1118.94982,129.91331,-26.71851,-73.50999,-61.22123,-0.06427
1122.88061,228.66565,59.57616,43.52664,159.16654,181.45414
1126.80557,504.52913,158.41454,224.98435,283.5355,326.46307
1130.72473,738.47454,482.77266,477.84954,470.24252,468.71264
1134.6381,975.69538,812.41599,800.20467,852.76405,750.85732
1138.54568,1170.50019,980.07723,975.79453,964.29599,910.33194
1142.44749,1126.09742,968.18799,933.0623,926.27857,931.48447
1146.34353,806.39629,687.63654,690.60149,842.96112,743.72207
1150.23383,475.88234,370.43723,386.69973,491.33522,351.40626
1154.11838,342.43517,214.59031,182.85755,206.57527,196.43382
1157.9972,305.50664,173.28,114.06887,183.02095,211.88643
1161.87031,228.74088,120.26575,47.18942,150.70778,104.08399
1165.73771,94.6844,-33.35181,-29.16938,36.6099,81.73686
1169.59941,-2.19381,-38.02863,-30.59772,-52.0769,107.95274
1173.45542,-14.66903,-65.09265,-7.19949,-1.93962,6.83119
1177.30576,-7.65738,-5.56155,61.326,53.92163,13.39117
1181.15044,71.79389,52.55722,106.68386,17.69562,145.92674
1184.98946,198.41527,41.84477,117.18634,75.42558,190.27965
1188.82283,140.56484,22.80012,146.9992,69.20811,98.03056
1192.65058,29.07346,75.56925,130.92412,-35.84132,21.26653
1196.4727,84.0798,74.95007,87.85505,19.23643,157.01519
1200.28922,43.83526,34.31404,-34.73293,-6.84852,154.84373
1204.10013,-57.85398,-161.72602,-84.23303,-79.12028,-76.34736
1207.90546,5.45487,-11.82084,35.1009,4.44409,-12.1779
1211.7052,19.24816,-34.43723,11.44899,20.17322,111.16198
1215.49939,30.83247,-53.09103,-49.92294,11.64745,13.13042
1219.28801,130.0595,73.03866,28.00537,14.42315,64.0771
1223.07109,28.23333,-20.93485,51.29287,31.79404,146.7397
1226.84863,-96.78049,18.94891,-7.35217,22.22456,25.34967
1230.62065,83.92744,-21.00427,22.12048,-27.64131,14.25392
1234.38716,176.09442,154.56249,130.55051,98.58344,119.09033
1238.14817,13.57229,42.81856,39.22521,78.76095,110.25123
1241.90368,8.58039,1.27977,-20.50161,-46.48106,148.32337
1245.65372,28.50453,148.9102,112.85329,29.67952,135.6678
1249.39828,16.30977,40.12975,6.927,-15.82433,-4.13741
1253.13739,180.19794,108.58079,-32.75816,-20.93079,3.34915
1256.87105,106.19634,38.31951,75.00417,54.44823,16.73576
1260.59927,-77.46091,-108.34271,13.39972,-30.16234,29.93735
1264.32206,88.12122,98.91247,151.67074,51.57733,190.75687
1268.03944,146.62043,133.99348,193.2519,179.63956,203.15935
1271.75142,0.88122,-2.72028,-3.73271,68.63545,125.66475
1275.458,26.31153,141.19288,23.98374,-5.23429,105.39633
1279.1592,35.10625,39.74574,-15.68581,-9.60459,-32.61967
1282.85503,-10.19657,-74.50523,-45.9007,-64.08413,-42.17494
1286.5455,78.61641,53.68316,84.08351,8.58221,97.80641
1290.23061,93.7089,-21.21443,14.61559,95.94345,12.24159
1293.91039,-20.13651,-24.42884,-21.41106,-20.10482,-47.29311
1297.58484,12.4822,-29.40868,106.89984,2.2573,84.93342
1301.25398,186.79434,214.49805,161.53732,164.13502,111.37862
1304.9178,256.54363,73.8908,198.30574,76.46985,113.54303
1308.57633,187.18649,27.93239,156.58533,50.19729,121.02404
1312.22958,177.11776,197.05598,50.53585,156.94923,16.0276
1315.87755,228.42835,-37.67551,102.26162,54.70271,2.37007
1319.52026,163.31582,102.69812,117.75629,29.18147,48.97573
1323.15771,119.51482,59.00312,9.3547,144.08367,32.1
1326.78993,141.38935,9.21158,-16.58058,111.91615,51.63938
1330.41691,10.13671,-7.5333,-34.62569,-16.35427,23.89673
1334.03868,-71.92993,5.69215,-11.5645,-55.87968,-53.18108
1337.65524,20.4488,4.48674,60.9428,84.84572,-39.51067
1341.26659,23.44074,-49.93086,0.18952,69.92277,-26.34298
1344.87277,-19.87865,-16.63447,-27.67468,-104.4627,-36.02965
1348.47376,3.90897,-83.80099,6.46407,20.33187,5.05302
1352.0696,23.8604,-47.87894,-20.87693,146.39346,7.80884
1355.66027,69.72242,70.78209,78.55635,100.95041,37.73349
1359.24581,90.71864,71.46178,159.12201,132.11594,120.1338
1362.82621,5.84602,15.80662,9.13956,31.95995,70.3257
1366.40149,-29.18611,-3.77489,-50.52644,11.66654,-3.7313
1369.97167,27.31762,9.44738,32.81428,176.02239,-13.38534
1373.53674,67.41473,-49.85193,42.83757,47.29004,-40.35486
1377.09672,130.31033,33.08396,134.38608,3.02213,38.65231
1380.65163,211.8842,243.24273,287.76452,219.12246,170.93556
1384.20147,346.86183,290.7214,321.4045,244.46217,225.00964
1387.74626,489.85395,423.43457,403.0659,349.14952,326.18741
1391.286,348.00603,414.12607,471.08391,429.43249,357.29772
1394.8207,77.04039,281.81404,345.84955,265.68997,211.68464
1398.35039,35.44505,160.38107,242.03494,237.19922,125.23081
1401.87506,78.82691,69.84131,151.49954,128.73851,98.52643
1405.39474,36.72404,-42.00047,19.06586,-25.67176,45.42057
1408.90942,-45.67174,-23.03151,-12.56896,17.23187,-9.27904
1412.41912,-81.00921,-88.06742,-34.7805,-8.4266,-58.35872
1415.92386,33.41581,45.96808,107.80244,133.0527,41.52256
1419.42364,204.35595,196.45582,350.49815,352.51007,218.56906
1422.91848,359.92629,443.08363,381.45951,372.59812,345.38728
1426.40838,556.92601,444.15561,538.69248,531.60204,497.69294
1429.89336,599.99913,488.74942,695.26426,626.23213,525.57219
1433.37342,427.16223,376.48597,541.07289,523.36973,419.56528
1436.84858,266.5522,396.76716,421.79823,439.45149,323.99157
1440.31886,143.24973,154.89978,281.02869,253.0539,242.30403
1443.78425,48.58204,70.9487,126.68513,114.32149,241.15181
1447.24478,25.94497,60.82934,168.21327,154.27282,174.40478
1450.70045,25.82932,1.57704,111.58259,124.6039,29.78181
1454.15127,-5.59292,592.45427,3.00716,-2.59434,-12.73764
1457.59726,-72.12314,-111.19224,58.41036,-1.28063,-45.13866
1461.03842,-62.68341,-58.23759,-2.2418,37.55763,-24.17921
1464.47477,15.47708,7.42397,-101.09647,-53.51772,19.6463
1467.90632,18.8713,-50.0428,-15.61537,-33.57082,-15.40346
1471.33308,-15.93363,65.07267,9.63093,98.6167,11.31967
1474.75506,-5.78598,8.6649,35.17624,94.67081,80.96176
1478.17227,39.99289,33.60333,95.49766,70.85042,102.03536
1481.58473,86.90595,20.14423,32.59431,97.78664,40.5606
1484.99243,84.29362,-8.77438,3.66907,53.51258,-12.38135
1488.39541,25.69592,60.19074,-3.73547,0.84087,4.39056
1491.79366,-23.23369,-17.25346,35.77233,-6.12375,-35.63362
1495.18719,-6.63194,-1.52511,86.5438,47.94763,8.45515
1498.57603,23.43628,98.03323,16.11835,130.84341,124.24158
1501.96017,-5.91188,-51.40216,-10.00541,44.90053,46.60215
1505.33964,-25.75833,9.45817,-2.07143,-72.7785,-15.11293
1508.71443,35.68137,15.95218,22.29088,-13.28206,42.31248
1512.08457,150.36166,177.47636,135.45813,115.67044,109.81916
1515.45007,210.21381,119.27965,200.84312,205.22037,212.61293
1518.81093,76.24097,62.83153,-4.21774,48.28953,33.06464
1522.16717,-13.25825,-227.01378,-190.87538,-135.53648,-124.15604
1525.51879,143.55198,65.45507,42.81841,-6.3886,166.81771
1528.86582,231.6502,43.24182,174.50706,82.27558,215.69588
1532.20825,222.18288,-36.8724,15.68898,43.21764,77.85618
1535.54611,225.96948,46.09797,8.92812,13.75961,133.75623
1538.8794,187.41007,-84.17667,34.67707,41.46998,126.33182
1542.20813,263.69424,101.57941,-45.99511,190.93538,183.7055
1545.53232,379.81838,-28.88802,-53.7855,182.71158,181.69939
1548.85198,396.35282,17.14289,11.8543,124.35818,49.95814
1552.16712,410.1792,46.42645,16.55161,190.43422,114.49936
1555.47774,394.42323,48.77112,26.5925,210.93966,286.13938
1558.78387,414.68181,51.30567,60.93859,311.23161,361.27117
1562.0855,540.04785,27.26764,50.48678,406.10016,376.70319
1565.38266,590.10374,142.03629,96.64294,337.48728,373.65755
1568.67536,559.16834,289.73224,144.48731,333.72119,362.07771
1571.9636,609.74148,336.07764,160.71688,459.31836,508.18572
1575.2474,693.27009,381.44281,286.9103,552.66882,608.28481
1578.52677,736.78901,314.68557,380.71056,598.77431,508.09198
1581.80172,756.44697,421.53586,373.55002,651.20611,548.61334
1585.07226,706.09851,513.51533,398.64347,658.01229,585.46759
1588.3384,662.04989,392.15029,403.44492,597.16577,540.32845
1591.60016,666.69945,337.21733,433.40846,486.16485,608.98898
1594.85754,534.16985,347.43286,390.86773,360.5882,513.11358
1598.11056,383.09283,191.83097,276.08986,350.6727,315.58316
1601.35923,391.72128,264.94413,361.65405,417.46868,349.83582
1604.60356,268.54942,282.17932,269.54197,305.48138,264.75639
1607.84356,18.69412,-62.33603,17.86117,94.12818,-2.70028
1611.07925,-22.34686,23.86218,56.27965,36.24979,18.26452
1614.31062,-6.41914,-55.28743,-41.21769,-23.21963,21.74086
1617.53771,-59.49785,-131.44073,-148.35482,-120.75464,-105.78927
1620.76051,29.70397,57.1968,133.41986,38.11061,71.33661
1623.97904,133.56125,253.2904,257.38247,254.29657,176.0776
1627.19331,57.96033,37.18091,170.07228,167.79372,78.37853
1630.40334,-21.31928,37.23151,96.81485,18.92541,84.39006
1633.60912,1.19053,50.33508,14.6793,48.7355,13.93206
1636.81069,40.5631,10.43956,105.87368,93.74432,20.49591
1640.00804,42.27971,118.72803,130.31378,11.46296,119.6513
1643.20118,8.71933,-30.52793,30.68476,-33.23334,38.47647
1646.39014,-10.14707,11.57335,49.06691,22.04928,10.4871
1649.57492,15.75122,27.37568,23.14406,-10.36673,13.57611
1652.75553,42.12732,8.17087,-38.52227,-17.70976,-37.51896
1655.93199,-0.59716,-1.89008,-45.92611,28.09673,9.42694
1659.1043,-73.41544,-107.24894,-35.31188,5.90099,10.87021
1662.27248,-35.85209,-16.49355,57.64433,93.76396,23.46499
1665.43654,58.06831,65.78107,167.28488,191.12391,152.49521
1668.59649,27.10564,160.74807,93.81755,106.07572,110.86713
1671.75235,-22.68485,48.45161,-4.12817,9.85698,-40.4031
1674.90412,28.14743,17.16354,48.04479,-29.69563,49.88726
1678.05181,7.63638,4.75391,23.25954,-43.06518,97.80196
1681.19544,-44.53078,-24.12528,3.19428,4.62125,-83.15275
1684.33503,36.89319,158.41511,32.35032,41.80521,-57.74633
1687.47057,64.62036,-30.19592,-49.14364,5.23331,27.84483
1690.60209,-6.73836,-19.79509,-47.31652,0.44931,-47.75194
1693.72959,11.18871,-12.78714,15.42517,45.80322,1.76887
1696.85309,7.97023,32.83842,-23.52182,-13.41384,52.22777
1699.9726,-52.97699,-22.65009,-18.03456,-49.20791,16.27248
1703.08813,-5.7915,132.59902,129.9886,111.89845,51.93917
1706.19969,26.26844,121.44952,138.95326,142.86204,36.01327
1709.30729,20.89137,35.78214,-3.25461,33.06899,-1.19601
1712.41095,101.25783,119.06661,37.60851,141.54022,25.97649
1715.51068,71.85692,31.55886,23.47766,157.94362,-3.9215
1718.60648,-5.47385,29.02561,0.97015,-8.36055,21.14729
1721.69838,35.03481,38.66651,129.12453,54.47718,69.52136
1724.78638,-6.30847,-76.52958,28.58425,84.18945,-47.25206
1727.8705,-41.99,-40.5892,-24.45988,-78.14984,-98.83355
1730.95074,8.66267,-26.85291,50.91507,-54.35502,5.65074
1734.02713,16.33449,-57.43914,-68.88512,91.195,77.79441
1737.09966,71.10283,99.04929,-75.97557,68.94294,30.49261
1740.16835,63.9177,16.6877,6.2911,-22.70999,-51.14495
1743.23323,-31.35459,22.9132,-29.56429,10.78589,-20.81422
1746.29428,25.20617,31.24395,7.8271,40.54133,15.75888
1749.35154,121.74598,10.96546,39.17989,36.03084,4.3283
1752.40501,127.18187,26.65783,28.74427,107.01678,42.18266
1755.4547,115.97942,7.35034,76.98923,92.64676,76.90652
1758.50062,100.59763,-76.5101,56.9101,23.43418,49.03863
1761.54279,151.50089,64.46664,82.98597,54.54167,32.57155
1764.58122,243.11196,47.79405,135.31517,79.62339,45.12945
1767.61592,145.41159,7.78398,19.65658,-1.0769,-10.80563
1770.6469,-39.18146,-0.37694,-33.39491,-49.50877,-31.03941
1773.67418,23.32532,-41.2795,34.7449,32.49917,1.12966
1776.69777,127.59191,-2.10434,33.99749,0.9162,-59.04766
1779.71768,9.81163,-109.19085,-56.19006,-88.84487,-52.52645
1782.73391,-56.29607,-64.23984,-124.59127,-45.01519,-2.143
1785.74649,35.80883,50.41869,-2.72883,24.76405,-35.66705
1788.75543,110.52612,70.25498,122.66739,143.27886,37.30074
1791.76073,133.08081,105.59718,61.33409,158.05457,122.37319
1794.76242,94.59507,51.80512,78.93265,31.9643,51.65849
1797.76049,25.86283,29.33474,49.42183,-13.74032,8.03067
1800.75497,14.982,43.23498,-56.13615,-13.82885,4.22721
1803.74587,16.39657,90.95785,43.96607,27.81282,-41.9314
1806.7332,-9.72453,-18.58783,4.63241,22.91843,-12.99475
1809.71697,3.23753,-70.02238,-63.14851,-35.67383,51.51656
1812.69719,-2.97018,106.10248,27.64052,16.99885,18.07767
1815.67388,-47.62276,-20.02276,17.20782,37.75728,-12.33312
1818.64704,2.45559,126.99126,85.24747,7.84787,43.49549
1821.6167,45.83267,167.60618,36.27965,25.84418,48.31122
1824.58286,-13.15951,-16.72674,-85.00212,-0.64409,-53.09317
1827.54553,-2.29338,49.87018,34.77978,-6.18793,-69.23301
1830.50474,23.41802,203.07737,60.32223,26.81417,18.31378
1833.46048,-23.18315,-11.51179,44.77797,-24.74252,-1.37114
1836.41277,-19.91883,-50.70444,13.40717,-80.85599,-53.77555
1839.36163,-37.63772,9.78177,-118.44397,-40.19565,15.01391
1842.30707,-40.57347,-22.71993,-39.48897,66.97466,91.88575
1845.2491,39.81106,140.28107,36.97919,116.90791,76.75317
1848.18773,37.31909,-31.73043,-18.07519,40.43126,25.79798
1851.12297,20.69269,47.25813,22.03275,19.89482,21.87876
1854.05484,11.80609,45.53948,-19.35532,44.16267,19.91947
1856.98335,-42.01842,-7.4643,-50.19316,-30.7604,-27.62803
1859.90851,-3.51197,102.87562,53.00339,-12.72732,-44.2772
1862.83034,39.77837,3.40415,41.85662,103.54962,23.23467
1865.74884,5.46579,128.13152,15.0255,83.35262,97.11483
1868.66404,-13.28618,65.23477,9.36035,-25.7596,70.0572
1871.57594,-5.11899,-10.02934,-26.3198,-21.98665,43.02641
1874.48455,7.50722,8.36432,-0.23837,54.25638,37.67876
1877.38989,12.60912,-63.36847,4.24272,38.2265,-32.36672
1880.29197,21.2807,91.86524,38.75542,14.03388,-25.44111
1883.1908,-5.16754,15.17312,19.60375,-11.94143,36.01282
1886.0864,-49.62529,29.63078,-56.29037,-62.50844,-13.56754
1888.97877,-19.99577,-37.06231,-8.78853,6.33772,-65.67299
1891.86794,10.49993,-28.92162,-33.38077,44.54572,-31.75523
1894.75391,-20.93197,4.13191,-61.65332,-46.9049,-16.22752
1897.6367,-16.98389,-94.57475,14.14234,-1.30602,43.90603
1900.51632,33.76271,68.2309,30.07452,95.67886,107.13008
1903.39278,58.52648,49.55411,43.12408,1.35346,25.98832
1906.26609,40.94291,120.5263,12.86354,12.47106,28.96436
1909.13627,-14.03625,98.81897,-38.74277,136.98601,65.25199
1912.00334,30.26682,-20.5148,52.77967,94.31039,17.72661
1914.86729,153.15585,62.98725,53.23462,46.4593,24.62707
1917.72815,67.83852,-76.89761,-81.06603,0.92428,-35.13075
1920.58593,-29.1849,-23.79195,-43.72513,-53.43487,-32.68909
1923.44065,108.61103,26.26915,19.43064,-15.73578,38.88254
1926.2923,159.43704,15.50752,-8.91064,36.76681,-0.89036
1929.14092,91.55939,92.90144,16.92605,108.16626,77.67431
1931.9865,104.93943,-12.56921,36.38922,105.03539,178.16781
1934.82907,32.64072,38.0099,25.03966,-2.46113,101.95388
1937.66864,-84.42699,-16.30854,7.77761,-37.97255,14.95569
1940.50521,9.27651,-27.03906,-45.45752,-9.0275,-26.2331
1943.33881,118.98342,43.88059,-38.48263,1.96336,-13.4076
1946.16945,39.10582,-13.29605,37.48163,11.85916,89.99809
1948.99713,4.62176,1.66871,22.69638,46.44456,159.85631
1951.82187,57.54847,59.11907,-15.35136,71.77954,99.66513
1954.64369,14.76237,-18.08165,-7.99142,3.22129,26.04359
1957.4626,-17.29284,-27.95263,-4.91286,-58.42496,-6.7512
1960.2786,9.63221,-56.63624,1.91261,9.2582,-51.72297
1963.09173,-25.01759,13.65851,-43.84376,47.17324,-52.27096
1965.90198,-29.46689,131.76604,26.92104,78.0869,37.96006
1968.70937,27.53667,142.15322,173.5346,132.79704,106.65707
1971.51391,11.94179,21.2625,13.84917,-22.9973,45.16033
