Wavelength,HS_AAB_P4_750_5_5_H_S3_I1,HS_AAB_P4_750_5_5_H_S3_I2,HS_AAB_P4_750_5_5_H_S3_I3,HS_AAB_P4_750_5_5_H_S3_I4,HS_AAB_P4_750_5_5_H_S3_I5
341.6070517,-33.06247135,-1.012041969,1.02640484,3.222938825,38.91478288
346.7134786,15.84642138,43.24712558,11.29981058,-8.857912038,6.578544032
351.8120798,41.76926341,64.84807007,52.94761108,-8.982389356,-2.118166178
356.9028684,19.7484409,70.44072991,-68.24199371,-13.19981875,-1.514425018
361.9858576,120.9263878,78.6772919,121.6010511,-6.882734339,-5.77819423
367.0610602,-58.22797663,91.34906297,0.442351455,18.6208487,5.787620065
372.1284892,142.5218378,98.05402423,143.6130756,40.73126588,40.76269669
377.1881577,73.47279873,94.10488532,114.898827,74.09917465,66.77325425
382.2400784,36.94532536,78.24592508,136.7295004,97.15130141,62.18017072
387.2842644,173.2041905,51.01758873,129.8887571,25.55448129,34.64432168
392.3207284,-82.91588333,31.41728191,-72.66851912,-65.36345875,1.299725928
397.3494833,31.42376905,36.06238899,31.38456019,-43.39488317,-13.11640302
402.370542,34.31525054,39.12057907,54.61081384,1.351702614,6.589929619
407.3839172,-41.14281741,17.24385712,-85.2172262,2.499159477,39.35333198
412.3896217,-23.14047629,4.760862665,42.15658585,24.19554548,41.28040306
417.3876683,48.34459979,36.43891168,61.08870453,34.34586916,5.518140089
422.3780697,31.48625863,86.53652326,-7.181639645,10.27662185,-6.705227956
427.3608386,19.35633062,116.8966596,143.3132009,23.0832245,55.59448445
432.3359876,142.96138,135.3202278,61.14734593,111.403595,148.8581857
437.3035295,164.6536578,160.4206712,147.1434989,169.1401321,187.4210465
442.2634769,142.9837075,170.2569493,106.6037144,96.70894599,152.6179471
447.2158423,67.71201037,131.1246935,-40.40654561,25.31244493,92.46498515
452.1606383,112.4361407,52.68818207,165.0490605,-9.876093563,35.9897736
457.0978776,-45.09240702,-7.151382152,-85.70503802,-67.89467996,-5.968055428
462.0275727,-33.33754011,5.369536176,-44.47199766,12.74147391,6.815473834
466.9497361,98.56818775,78.82565764,94.77611603,189.9160983,79.55894496
471.8643802,83.57432137,150.8150996,116.3425785,235.1903151,139.5744167
476.7715176,130.7741181,179.2025295,119.7416414,217.2524689,137.6161773
481.6711608,-5.431736108,165.999436,38.68059368,215.4092435,104.7476968
486.5633221,68.95491837,131.4255818,41.96240388,131.4738735,75.00624672
491.448014,35.45719507,102.9776716,61.04792514,10.43717375,42.3342262
496.3252488,39.47458652,108.612293,-35.84978502,1.843716977,23.42871542
501.195039,117.6978806,135.129052,47.88512788,69.83577275,61.06431395
506.0573969,5.107743634,120.5648973,4.182580331,70.32707867,114.2945715
510.9123349,18.99622305,47.01536195,59.6831516,-5.521992221,82.21169269
515.7598651,-96.33163556,-6.060805812,-152.4793439,-43.28522718,-7.791541851
520.6,21.95652641,23.22081861,-10.44200882,8.142132471,-17.0227239
525.4327518,152.3157957,82.28082845,151.3256631,59.75095871,70.80051701
530.2581327,106.4082445,106.2159091,36.89222591,65.65348059,135.211195
535.076155,165.3686713,119.485116,146.0676005,88.31335936,125.2983516
539.8868309,140.0281901,150.5215468,1.639406981,89.39249636,99.98182248
544.6901726,49.41177272,155.8745165,202.5553192,15.16495624,96.42715428
549.4861922,69.93045307,105.0779636,-46.53093174,-14.50578689,84.66650144
554.2749019,88.46750068,45.04898256,129.1130453,32.27129023,31.94551349
559.0563139,-12.88218211,34.0359162,5.506119059,23.99068973,-22.58026587
563.8304402,-17.82914894,71.42836306,1.591791052,-8.122953305,14.66320467
568.597293,117.3033864,103.9348187,54.87044578,32.96358048,126.2273741
573.3568844,188.1349773,90.71573985,108.8716623,68.63001229,154.1884235
578.1092263,146.0194222,58.90765599,-13.02482773,26.49546448,63.56988012
582.8543308,70.7648641,51.96926693,-35.53756592,-25.70952491,8.519661396
587.5922101,8.48300303,56.36908679,28.74752041,-28.73711543,44.21083367
592.322876,-1.16118714,53.5299921,-13.75447815,-28.31616981,62.93292777
597.0463405,-9.674166621,64.10439242,30.43386047,-14.32119025,31.40785242
601.7626157,149.2663242,76.08722633,25.59653773,76.22025863,14.00163443
606.4717135,134.9565541,47.69083024,47.39873338,112.1311748,14.31970996
611.1736458,124.3350329,4.716232568,-58.88332728,9.267062972,-4.01770509
615.8684246,72.04880216,5.122642251,-30.58487582,-45.64254957,-24.02070169
620.5560617,-31.1140667,30.18973178,-8.928052584,12.90940105,-14.41779181
625.2365691,8.774014422,24.09331684,101.9454906,63.10349411,7.731296037
629.9099585,20.2013469,-3.021197893,-24.45562468,55.94847401,6.677281862
634.5762419,112.4157505,11.2381714,130.0454679,10.88189105,-7.334195288
639.2354312,106.1702071,94.15287168,110.799459,31.67600452,17.03089969
643.887538,279.1939094,191.6143382,253.2499744,155.5350563,90.02562597
648.5325743,124.2063863,215.3434393,198.2479161,197.1149365,142.3926935
653.1705518,99.14702704,152.0420552,153.1522925,91.79275433,106.6802476
657.8014823,78.58379235,88.69299517,16.46836352,1.908417519,19.37088421
662.4253775,-8.373281428,97.54917583,-0.256695953,29.89992,-13.18783811
667.0422493,230.1257145,149.2678033,173.4100995,131.7615477,35.66688286
671.6521092,35.41207308,177.3747993,57.24641279,184.9391648,87.5813964
676.2549691,155.0295768,165.0118059,118.8748905,161.2107077,92.87335554
680.8508407,167.9640068,120.1238778,176.2022509,129.69355,64.57533047
685.4397355,32.32280575,49.0653278,53.41101728,66.21352616,12.14725441
690.0216654,-37.58421771,-0.708848752,-76.98249954,-27.69745038,-34.98840494
694.5966419,-52.29402555,20.40657297,-40.21985695,-26.11398095,-16.25492125
699.1646767,87.56872239,74.13178024,114.1432448,80.62139745,59.45922168
703.7257814,35.63025961,95.38012198,27.22458406,134.2442241,96.20612089
708.2799676,77.1430103,95.02093739,75.26265347,68.12404474,54.6014683
712.827247,30.40817721,102.6249337,179.731494,15.73558326,9.334868263
717.367631,200.6976716,93.00044521,6.059612013,39.10575477,13.06871945
721.9011314,67.17844671,46.86729639,94.66987574,14.36576525,23.22058716
726.4277595,-74.22466537,0.692154585,-69.4020003,-44.75571642,2.642328213
730.9475271,89.97033966,-8.518747655,43.68694058,-15.63994021,-20.53461775
735.4604456,6.184093499,16.48636332,-40.95761149,64.58328051,-12.1783831
739.9665264,38.23578624,57.22367466,92.38330483,109.1898973,17.72697762
744.4657813,119.412552,89.85298252,55.75395027,82.352173,43.65209678
748.9582215,143.8278267,84.15600834,53.84342287,25.56000066,61.82051678
753.4438587,27.63614524,39.41856836,7.561912824,10.38710738,58.88165502
757.9227042,0.896065357,5.107514285,-82.64422404,-8.641753574,13.29157
762.3947696,-60.52791738,26.33161522,25.32849447,-13.72027826,-30.12633784
766.8600662,0.523319212,81.55488866,22.55596175,85.25429763,0.176476181
771.3186056,48.467239,112.1071066,198.9338616,159.6627933,86.29380419
775.770399,-6.982781651,99.66343547,-3.295886319,142.3938381,148.0966037
780.215458,135.6588792,68.57380585,87.01824554,168.0112158,134.0949164
784.6537939,69.72071634,39.87410667,110.1955337,138.8260945,52.69532213
789.0854181,-61.73699147,35.78340214,-50.49167993,-3.145680693,-9.47403548
793.510342,44.33614209,74.27850988,-7.55645958,2.696610934,20.52999763
797.9285769,165.44239,119.3363355,169.0166396,114.2177478,65.76672078
802.3401342,1.131873188,109.2137734,11.18460635,72.18082629,31.56563631
806.7450253,-35.54337565,47.38716972,13.59712418,-11.58940441,-14.84552388
811.1432614,5.644408327,3.444067361,-16.44652911,-6.4403418,-2.337484979
815.5348538,30.75751857,23.82604599,1.569896602,-5.744804924,9.591951032
819.9198139,32.44198112,79.89805037,47.02843129,-6.984575842,-3.105409292
824.2981531,11.6140936,112.9727108,-37.36888462,39.31131713,14.81396513
828.6698824,198.3593718,105.1097006,30.17184234,90.95276037,41.12429815
833.0350133,92.3166283,83.59910511,118.6396295,79.60960874,20.21794024
837.393557,-5.033121216,75.77863144,-53.58913746,1.805926908,7.159647724
841.7455248,64.63334692,79.42502571,9.990163056,-25.28290527,61.7385342
846.0909278,87.05837956,70.0289554,59.56511863,25.87802213,107.1185169
850.4297774,82.46034397,37.89891888,55.09520584,25.78862219,63.19576046
854.7620848,-65.85148555,6.564886671,-79.39594266,-6.847681741,-10.91474223
859.0878611,8.549676377,-5.608487855,-9.156287105,11.91979883,-33.70728606
863.4071176,44.38562225,-6.250762884,42.55069744,-6.086263665,-15.71411498
867.7198655,-92.63008826,11.721231,-51.15670913,-62.32359256,9.955441019
872.026116,21.07825733,70.29350338,-15.64671006,-31.98641771,39.25739448
876.3258802,123.9422479,149.7809355,122.5776065,39.2325008,68.96876495
880.6191693,50.09543034,193.6587747,12.2366971,89.63566239,98.61088802
884.9059946,131.2509948,170.4869854,28.2054808,139.5794683,124.0010034
889.186367,73.95066782,102.7500522,115.5901929,97.41497931,117.3079628
893.4602979,-30.47723084,48.68802263,-0.639904578,-3.095586415,74.79227806
897.7277982,72.28791788,46.82182175,88.79601708,-0.719552386,32.69766214
901.9888793,-13.78313717,76.70306855,-42.35008348,20.17470727,11.07836297
906.2435521,23.94197372,98.79757696,-12.44440795,-1.087770862,19.19491225
910.4918277,50.38802636,99.73234837,12.97619361,38.51169106,55.80682874
914.7337174,-41.27134113,80.3675965,117.1549762,54.2768623,72.44746576
918.9692321,34.96053363,58.16222259,54.87177988,-21.09714084,57.03106629
923.1983831,15.38068145,75.99588538,21.67531146,-4.999309167,87.77752675
927.4211813,75.32714865,136.2831038,128.8595235,115.178283,184.2619613
931.6376378,182.8640726,166.3390431,262.2591277,117.5416445,247.392675
935.8477637,5.382431411,121.398535,-84.58262943,28.44288719,212.5497424
940.0515701,17.49219544,46.93155366,101.6492423,5.279215031,109.4640273
944.249068,-30.61817977,1.239276249,-4.639344891,-13.61178814,3.146895882
948.4402684,-127.7920485,4.947544229,5.018641756,-50.70853757,-23.81672223
952.6251825,27.60458209,49.6295358,45.7270434,-10.14675625,50.61207662
956.8038212,35.21747976,93.61118034,4.320184662,68.29875945,124.4685415
960.9761955,45.84726794,97.98516177,125.2493397,98.93811383,125.8401375
965.1423166,-0.182555475,76.0843489,4.735230361,103.5714453,121.207582
969.3021953,123.4372076,60.50191662,42.96679083,89.7288172,146.2283983
973.4558427,44.28747112,56.54727784,-23.24741078,38.82005685,123.8394434
977.6032699,-39.07808868,60.61037672,-27.65644177,33.97354143,47.73129425
981.7444877,17.63691746,76.03828547,-2.804496702,62.65824127,22.00890498
985.8795072,-64.19132296,93.05980063,17.25794774,4.076121786,69.63402777
990.0083394,-1.93684292,86.64858906,-23.37291069,-19.70041743,94.11193417
994.1309953,22.48800484,45.74530225,12.8503348,68.8678175,41.91767419
998.2474857,61.25132347,-0.94183676,-1.946951351,55.61191661,-17.46855749
1002.357822,-11.56129757,-3.342823099,-100.5222069,-39.06567345,-2.381571698
1006.462014,78.54759287,52.09849604,-0.197412683,-1.18539398,53.35483242
1010.560075,-19.00924782,124.9727816,45.52618446,108.1841505,74.98032587
1014.652013,-35.79696881,172.1797687,-1.969118035,160.0631959,79.49139077
1018.737841,45.17929816,191.269998,101.8140508,165.5051784,100.622472
1022.81757,43.21166972,206.2716276,28.60232389,138.8574454,104.4851682
1026.891209,121.6636173,224.6304106,139.0964154,124.6342114,88.29469178
1030.958771,39.82680538,220.6591389,19.33479647,191.4562,97.00030827
1035.020266,98.63551994,176.4031439,58.25475564,240.7541559,103.3753448
1039.075705,-2.151546332,131.4738673,-8.593382979,130.9084652,53.14451982
1043.1251,-39.77684126,144.9873369,-11.67730568,24.58121168,5.33080698
1047.16846,86.68862754,194.267622,-32.66696922,109.2635213,42.98146405
1051.205797,120.1604775,184.8545261,87.05738567,181.9664499,102.6662278
1055.237121,-62.50864469,95.14242961,8.165715311,76.41121821,71.62902355
1059.262444,29.85397734,32.4227078,4.257958723,-25.11695547,-1.013788345
1063.281777,33.83006145,102.5619005,147.95776,38.27302089,45.54715516
1067.295131,70.2290327,277.5743499,257.3613528,228.4442798,231.8680448
1071.302515,432.0267485,431.7907056,611.7984122,402.8742562,391.9784327
1075.303942,357.4949448,474.2547955,486.9863161,439.5585196,405.5001118
1079.299422,274.3798174,397.5016351,467.6498106,326.7487814,308.987381
1083.288966,114.8003529,238.8477861,247.1036474,130.892841,171.9770707
1087.272585,-29.37043086,71.5324664,121.2729393,-17.10576729,43.86683869
1091.250289,-54.64789591,-7.123837801,-45.71457543,-42.28137283,-15.26551123
1095.222091,51.50237367,29.20517061,-2.372488901,1.917482329,-0.653683684
1099.187999,47.25815318,83.17889968,-11.00460841,57.68346145,16.1107138
1103.148026,-52.61145934,60.57959759,127.1005905,52.91298537,5.078752681
1107.102183,3.413263748,3.724729809,0.702393922,-0.426807106,8.975414127
1111.050479,-13.44107763,5.390287339,-5.976557108,21.87701143,37.83643904
1114.992927,31.01192112,54.19376524,103.6223644,59.17870613,42.95926034
1118.929536,16.63886502,71.40729005,37.11583013,14.55653392,6.488499038
1122.860318,2.417395747,55.65178472,114.5710314,-12.71865869,-16.06170069
1126.785283,70.41019772,102.909409,7.293215945,34.89596039,47.45034557
1130.704443,184.0322835,279.9657735,243.1278692,148.0371021,210.8091267
1134.617808,348.1991292,514.8605587,500.5601464,328.6005888,404.4105711
1138.52539,506.4866502,648.4962186,683.5313118,480.2365067,526.2908132
1142.427198,523.5743738,595.2828895,513.9273356,468.9483543,513.3775428
1146.323244,406.6776898,413.9353816,554.2455255,297.2889503,370.5254938
1150.213538,185.5094752,225.7117607,227.466892,119.6786296,188.8345084
1154.098093,2.657269488,106.5460932,9.130607804,66.84777726,96.63706152
1157.976917,37.75239755,54.38221628,1.654954683,94.05888554,109.1082289
1161.850023,-34.44067855,30.18903151,40.69296597,81.50184491,117.9781606
1165.717421,-75.56310159,11.10287336,-12.09040342,15.5648912,67.23789736
1169.579121,10.06146566,-1.042069366,30.11309115,-31.66026291,5.565124988
1173.435135,-18.7320278,2.216163594,-1.07406618,-32.83115252,-16.90287321
1177.285474,15.35655016,21.92856336,-72.70406397,-23.95124814,4.471432373
1181.130148,-0.067704417,44.21960973,85.08955878,-13.21790549,50.09854654
1184.969169,21.24236242,60.36386419,-42.01854092,37.8865215,96.70627129
1188.802547,4.404934651,85.52292763,122.9211293,110.6867312,124.5829695
1192.630292,41.64415827,125.8213458,232.4074662,114.8265115,119.1783986
1196.452416,174.0034244,151.6895257,119.4017324,38.02523855,91.50225125
1200.26893,43.86928005,127.5217701,144.3799089,0.961677167,63.50138358
1204.079844,8.547989143,54.11575331,58.19718388,30.68746118,21.79957335
1207.88517,2.618703812,-11.31388197,19.72573359,-9.157219656,-27.27716608
1211.684917,-82.58082457,4.591435909,-60.45283309,-67.49264469,-6.671540494
1215.479098,6.222782705,94.78097405,62.51018302,14.64090934,91.6825346
1219.267722,119.4704548,160.1363433,197.7257696,89.65755065,136.5578811
1223.050801,-19.3175647,134.6217353,-9.022917957,30.05565524,71.54028037
1226.828346,-61.987662,58.46287717,-57.14979088,-16.37200157,9.627117432
1230.600366,15.37813516,4.203761169,13.20131932,-7.652803956,13.02087989
1234.366874,43.87036347,1.829312559,19.56400602,-4.584360682,10.54345784
1238.12788,47.57489899,42.87654821,-38.44717904,-4.518367752,-20.58289602
1241.883395,4.988368505,94.22105632,4.101591006,3.31993662,-10.94659129
1245.633429,170.5797602,112.9413184,51.33446969,20.5275325,45.89294095
1249.377994,119.9878012,95.50672082,97.06207827,9.352059315,71.21117306
1253.1171,-47.41390837,85.04624033,-5.917254101,-6.048569641,43.56762554
1256.850759,8.701342472,95.97883309,-27.43860379,27.04796369,20.75392228
1260.578981,18.03838529,92.17932263,-3.01549457,61.30257989,29.22472185
1264.301776,30.96773466,61.65510047,38.73460847,69.97595292,37.64112051
1268.019157,98.87598278,41.14072352,30.97087756,22.04600781,23.16867831
1271.731133,-1.994347695,60.59709879,13.29988996,-44.68701085,13.8166225
1275.437715,-23.78708736,102.9049011,-57.19434776,29.03744021,50.10442515
1279.138915,141.4334066,113.3862006,111.9975976,151.2818065,100.9552994
1282.834743,75.66755232,61.74937769,-10.89010194,112.3113178,81.6985124
1286.52521,78.58119647,-1.210040704,-44.23530232,-19.04313922,-9.40601213
1290.210328,-34.3133522,-0.772474573,45.93590834,-75.1321933,-60.01435648
1293.890106,-34.80496578,53.64985892,-1.304830037,8.576745931,-0.326699954
1297.564555,150.6012035,94.78325849,154.2551795,116.512528,95.05279929
1301.233688,44.41785718,108.6130616,108.2570408,96.84900081,125.6783173
1304.897514,104.5433109,123.1708773,133.0662679,82.18343715,104.4625519
1308.556044,81.85106422,130.3755904,121.3140024,160.571931,97.37956491
1312.209289,135.0353444,113.8941916,116.4747144,132.6415652,99.34762564
1315.857261,116.929093,98.42310084,39.55351622,25.14420402,66.74914393
1319.499969,-20.83102589,105.546218,-31.6128309,25.689994,15.74234313
1323.137425,27.08425593,116.7766843,-7.695162243,36.77529201,-3.823496417
1326.769641,0.904065164,114.2104137,-19.25784765,-19.51016291,14.74778368
1330.396626,27.39159146,107.0348312,163.2824397,-24.77916423,33.72357669
1334.018391,9.102720679,101.8945274,84.45051312,8.195997264,16.76766665
1337.634948,14.00680791,95.48630129,3.730049725,-8.068513369,-17.86955287
1341.246307,-39.12783895,93.02318134,-4.304167128,-16.40682826,-16.44033591
1344.85248,-1.13852737,91.17130038,54.38407248,31.76342006,12.08960866
1348.453477,12.81263107,79.65208437,-10.40589033,60.99436326,10.30472662
1352.049309,-75.5982201,78.80816565,-21.93981951,29.87793038,-3.377397807
1355.639987,32.03115715,108.0494047,-20.15658188,-10.94324191,34.29498259
1359.225522,66.32032063,137.0263578,-30.05286071,-28.81799246,85.17950936
1362.805925,-9.097525865,134.277628,29.41012856,-18.36759063,61.00051714
1366.381207,47.74660579,112.2719326,-57.80944728,23.31485169,-3.048153018
1369.951379,83.66323501,95.7432033,46.21561394,65.72428467,11.65497143
1373.516452,2.82325307,109.6548038,51.53903991,96.66527123,127.1327596
1377.076436,184.5373405,181.854936,188.0479822,136.4191034,245.4213512
1380.631343,290.8091368,294.3731298,162.7642561,178.440515,281.3478725
1384.181184,245.6179129,368.9156903,224.153611,217.6805554,251.7861857
1387.725969,329.4735972,352.1711155,296.7811571,227.8621143,213.5785444
1391.26571,214.8524928,278.7689722,263.4224648,168.3592092,170.1166539
1394.800417,129.9611665,211.1114554,54.86213365,104.6271797,116.3463915
1398.330102,153.7310956,155.5186544,185.742975,98.65120901,88.04764875
1401.854776,9.453001602,86.94062827,127.6914625,78.09452364,74.81411365
1405.374448,-25.38800807,20.6208696,-37.55549907,2.023970787,21.45404448
1408.889132,5.526877929,-1.755330166,1.617427761,-44.06068254,-35.92912894
1412.398837,-30.78556595,34.92170354,-63.3715076,21.89364925,-6.939870199
1415.903574,109.0632868,120.8504066,199.1418707,123.8283589,96.86759211
1419.403355,192.4959855,238.3432865,259.1761749,145.0564351,209.9306407
1422.89819,252.7670319,356.8140733,351.4647068,181.6809089,325.6580016
1426.388091,420.0361794,434.9429035,515.660842,294.882787,415.4919262
1429.873069,347.9052417,448.1746252,482.0571277,339.0195163,401.1069726
1433.353134,229.7468732,409.7312786,377.1697251,305.4006303,301.7358548
1436.828298,285.1133602,341.6904064,364.5892376,259.3895647,221.0445027
1440.298571,192.6537739,247.5297654,216.9911583,171.1336676,178.6651144
1443.763965,42.46638067,138.673375,144.9300053,81.74029817,117.0598921
1447.224491,46.19000773,47.06271094,51.2146394,21.69533688,39.70043301
1450.68016,-75.52540567,-1.576566107,-34.45276001,-14.26077749,14.68318348
1454.130983,48.74266132,3.166063241,15.62005228,6.595357089,49.37353831
1457.576971,167.1896194,59.85854008,123.5863623,39.73356748,76.13045008
1461.018135,77.20530831,136.5809001,16.78497171,67.14929135,75.68847097
1464.454486,233.823144,163.7325223,106.3784644,111.7204714,78.45773806
1467.886036,121.6551869,99.91747641,85.46457493,78.86435019,62.75691969
1471.312794,-74.62637902,9.515846399,-62.11941145,-28.43880196,4.664009853
1474.734774,-15.01758733,-4.020011139,-22.30359457,-55.16614036,-31.51721014
1478.151985,10.5360043,52.9335167,36.3461527,14.8921439,11.79209703
1481.564439,14.75083749,80.83521197,37.11705887,73.17000899,71.68799785
1484.972146,117.5263487,44.21519189,110.4176051,55.39074553,61.75380221
1488.375119,41.5390883,6.952998624,-30.28596169,3.930453684,13.13237352
1491.773368,-26.88818688,23.45717661,21.21486645,-5.097122442,3.401090532
1495.166904,-9.117589952,80.64356668,88.66024698,3.302856405,29.25252034
1498.555739,4.252297914,131.0330001,22.99734651,9.278850825,43.9526272
1501.939883,45.56605362,135.0959049,75.53309018,29.25939304,31.76974548
1505.319349,-5.110769536,100.8701297,-45.23834628,7.9224169,3.456730692
1508.694146,6.420357326,85.77291925,18.35409251,-22.70408126,-14.26680843
1512.064286,5.045383101,120.6011247,34.66938442,35.49998634,13.4169516
1515.429781,86.22879807,160.3644546,134.6744508,105.8217788,81.06849482
1518.790642,84.1922163,143.6523726,15.94759708,89.77453787,116.5650097
1522.146879,24.07692258,71.40233564,110.9857189,41.63874403,68.56912814
1525.498505,-69.18350636,5.15301203,-91.90805068,-5.883733908,-1.411596442
1528.845529,-57.14391802,-5.196091764,19.78833256,-63.64757286,-4.13353792
1532.187965,4.405816753,33.73627705,92.01732263,-48.03435173,49.24457676
1535.525822,28.2822118,95.18219801,31.91373482,70.6538863,100.488398
1538.859112,120.3332251,161.5765876,158.0630849,136.3259258,134.0520633
1542.187846,95.08561701,206.7744463,123.4780635,79.774333,147.954128
1545.512036,101.3050544,212.2880649,3.509995078,27.78085783,145.6465329
1548.831693,4.30754731,190.9370953,-20.49962979,20.36539378,153.7193312
1552.146829,22.82432088,154.0057109,-13.05419647,8.925563034,166.3105306
1555.457453,19.55742288,106.697312,-19.67356712,-8.941207655,146.4468352
1558.763579,-12.86514063,85.98045736,-12.52946305,-40.63223202,117.0918432
1562.065216,9.651426355,123.6184391,-59.61863444,-36.08833657,141.8502199
1565.362377,92.42763199,186.1627945,32.63829585,22.22414013,206.9204779
1568.655073,123.0049834,226.9244022,42.89685888,23.10378347,239.4608438
1571.943315,24.23516162,253.943438,12.62270159,-13.93779752,235.0671617
1575.227114,232.3766608,283.5590063,58.21803661,30.98195167,246.5882358
1578.506482,161.3132238,291.2199951,95.0302707,118.1501248,274.2957666
1581.781431,142.6406979,264.289406,89.9529374,123.8151465,273.190953
1585.051971,199.5037012,241.2632439,-1.126673091,42.06792733,245.7162372
1588.318114,87.66288597,249.9653944,12.8493719,27.22740908,246.4653133
1591.579872,269.7335323,258.3211067,158.778567,125.7465955,277.1383712
1594.837255,251.910899,231.8912301,10.55981932,132.6688403,262.1897647
1598.090275,148.9423369,195.4670764,37.83241259,19.71724709,189.8004243
1601.338945,106.5239182,186.8463357,-20.76595471,28.86760272,145.6548623
1604.583274,184.9882303,182.4656609,119.3708826,113.1643551,141.3715533
1607.823275,157.1394587,128.290135,27.64542593,22.77771642,97.11814835
1611.058959,-29.58195326,37.06167525,-146.5865962,-116.020995,15.8210208
1614.290338,-19.49096486,-8.279374791,-2.933310467,-96.84189036,-25.56146061
1617.517422,-43.93883855,35.80784944,-21.1290615,-37.76064108,-3.956771553
1620.740224,-1.648574681,118.2952109,-3.388591949,-14.86143839,62.94541905
1623.958755,122.2362235,170.8614387,95.33514446,30.82637688,140.4696902
1627.173027,146.9557752,188.7500386,148.4456432,58.96071744,170.3460545
1630.38305,108.1777854,199.6951852,29.17316787,41.55713063,145.7339591
1633.588838,84.49780115,199.5690954,104.2974323,24.72356001,120.6356529
1636.7904,30.58142816,176.0899871,190.5486613,25.17084235,112.4892219
1639.987749,119.963848,153.7931963,91.03890403,27.692678,100.000891
1643.180896,87.18362041,156.323923,47.56002613,20.55517981,84.7571508
1646.369853,77.57132467,163.3193633,63.76478473,7.944925372,70.94759467
1649.554632,49.15965345,142.4407775,136.8095182,-7.847403563,40.76997999
1652.735244,-6.848662177,103.4643106,-40.21912824,-29.29028203,-0.834063977
1655.9117,42.49335448,94.87463655,-32.87062518,-38.42264961,-13.32358232
1659.084013,-24.88530202,129.0686961,-4.628833216,-4.076710836,13.26664683
1662.252193,100.8818758,154.5501001,20.21813477,38.507888,34.01239369
1665.416254,-7.375729033,145.7140508,-18.88219513,20.78906404,21.73724169
1668.576205,-17.54620009,136.2405939,12.43658376,11.24084246,3.01788328
1671.732059,42.30813067,130.7532961,49.81871385,56.69936283,3.621499651
1674.883828,-0.900058582,97.50960726,125.6032936,50.00938428,19.33722854
1678.031523,8.086086779,46.05972135,5.022654632,11.56374966,29.36545362
1681.175157,80.58255467,11.64836081,-26.59285017,-3.566037102,6.915601627
1684.314739,4.062036947,1.254805533,2.869906146,-44.7031408,-35.99442401
1687.450284,-116.0709314,3.107789822,-119.7376935,-20.82486122,-38.82224915
1690.581801,101.1533932,2.625912423,142.6711674,59.33395436,3.789022499
1693.709304,-3.977433996,-3.689422871,21.10160941,22.31847973,20.33362312
1696.832803,-7.924443289,5.508406037,15.65697416,-29.51271336,-5.414231965
1699.952311,40.96226644,40.61457756,2.81800103,15.64043875,-15.18019235
1703.067839,28.47490863,72.46489893,31.45877992,52.32779751,5.981173011
1706.179399,87.01093541,69.92850307,15.22214384,77.43576564,17.37991475
1709.287003,23.31278087,39.90366022,35.31465175,82.14075993,11.46763775
1712.390663,71.22161629,14.16754049,10.99375202,36.98761581,17.61792308
1715.49039,46.68076503,6.552214605,99.50943917,74.19313423,29.99615962
1718.586197,-10.82620387,4.523221999,5.614629778,138.3356044,15.95381292
1721.678095,-37.08462803,3.080869393,27.88865488,25.42018259,-13.08553341
1724.766096,-10.01824051,11.15207187,-51.15152289,-93.04106185,-8.075098135
1727.850213,14.64663132,22.69738464,-43.96336659,6.268473427,32.25908552
1730.930456,-42.00866899,16.18995928,37.8805415,108.9706333,37.60393875
1734.006838,23.5435978,-8.556501016,-17.20242504,28.26595888,-10.34111159
1737.079372,-43.06391096,-13.64776447,-22.1757094,-41.19272358,-16.12824258
1740.148067,-10.82151486,30.45741779,-58.26349455,14.85757278,64.66856835
1743.212938,170.3086947,93.75034349,184.9607537,39.1097126,145.9540235
1746.273996,108.884605,120.3585936,18.12735355,0.014269981,165.6930261
1749.331252,78.8691123,99.43484033,115.5735176,-0.622879289,138.6002716
1752.384718,27.74759207,74.85071769,24.9042442,11.985176,85.38458149
1755.434408,31.87880773,91.40231185,25.32100216,30.99042674,52.76450372
1758.480332,0.0013467,129.495925,27.89787136,79.86668148,80.31614601
1761.522503,15.7525039,119.9025474,44.56705413,59.38574155,106.1672778
1764.560933,50.62697923,52.11822832,-13.63530439,-25.22981496,59.82201525
1767.595634,-60.8102588,4.804874571,-34.34403405,-45.60616584,-5.390570109
1770.626618,-26.46721551,30.87028736,-35.80252814,-13.34483825,-7.43706321
1773.653896,78.46111183,83.83650189,36.14386842,30.0031388,29.56665205
1776.677482,102.8913325,95.68719563,44.40562097,66.80906092,37.17609001
1779.697388,4.620580728,71.68916651,4.162211702,22.0942385,15.10487472
1782.713625,-20.28264658,59.19422687,-120.408037,-13.4928837,11.88796223
1785.726205,23.40797924,59.70517438,72.940174,68.24619919,40.56753186
1788.735141,6.995133638,47.16730483,23.20739608,81.39827641,67.68402211
1791.740445,-34.29007007,42.15985276,-47.74839672,-16.75227453,83.56190421
1794.742129,24.77732583,71.03206065,51.85981316,-6.30586239,110.6614088
1797.740206,67.80901176,95.33708836,56.94131482,50.0929701,123.1091018
1800.734687,29.63481523,75.91449588,101.6524218,7.670182053,73.83014195
1803.725585,3.545411843,42.14918095,-79.64508071,-0.267821403,6.228644661
1806.712912,-38.36679524,31.1666185,57.06755981,40.32998718,0.023574828
1809.69668,35.69792853,32.9179366,16.11607678,3.429385928,40.39059422
1812.676902,13.17066191,26.84831621,13.08607032,-20.09452878,58.26293519
1815.65359,-10.47550032,12.13621302,52.24419673,28.51517976,33.5568051
1818.626756,-4.82632641,-0.969361261,-9.611879364,11.50041346,-4.980049657
1821.596413,-75.66980741,1.547523002,-148.3734634,-51.2009618,-21.6123582
1824.562573,11.97211136,24.23018623,13.07157646,-26.59418628,-6.914768938
1827.525247,10.77505594,52.12122642,3.680873695,15.36360251,9.940224502
1830.48445,-0.648882872,72.85384852,19.91983591,-4.487558195,7.555397714
1833.440192,-4.951063915,92.96843776,13.58415051,-2.651790413,11.02147496
1836.392487,14.92133699,112.4557558,33.06029673,21.34240707,41.29275433
1839.341347,65.64798349,114.3713916,-31.2564583,-6.141530787,65.73826424
1842.286784,33.3693126,104.1515732,-1.805142286,-25.29084151,56.07389962
1845.22881,-21.87890497,111.6088991,31.07045748,33.53428004,49.96106525
1848.167439,-0.409706745,126.8508269,10.75338482,96.91953828,82.87236787
1851.102682,74.47868778,103.720734,86.26502931,79.37662228,112.7981765
1854.034553,-4.251252695,55.34793511,-37.3670613,7.976050962,97.89448973
1856.963063,16.27408659,57.11087779,106.8917612,-24.85802724,77.74477768
1859.888226,34.52913317,121.1721266,143.57856,34.15708984,94.76855528
1862.810053,68.68528546,162.8454861,38.53015633,107.1052418,115.0635931
1865.728557,8.939344034,123.5037262,26.88693249,85.01054374,83.35257956
1868.643751,-33.59931806,43.36527759,0.310360735,-0.087708508,4.782419858
1871.555648,1.220355032,-1.079973311,-4.502723855,-43.54165986,-41.47616463
1874.46426,-28.14623461,21.04396666,-67.43176338,8.160809244,7.948109197
1877.369599,71.81962063,69.18797843,121.0029509,76.04763777,88.83298062
1880.271679,18.99200469,80.92752065,12.64861798,42.25954737,91.71551358
1883.170512,11.39700402,51.58333536,-41.56403384,-6.220121538,34.15253108
1886.06611,103.0481234,29.53973961,6.453585527,10.03583013,-0.646238824
1888.958487,65.90415749,39.90713772,8.508040685,-19.57349327,-5.880306583
1891.847655,-28.4097884,58.80260396,-0.794866738,-47.91696487,-1.958082832
1894.733626,0.854212692,58.40794046,22.24435465,25.82586859,13.51952419
1897.616414,120.4440548,46.66158396,-16.96981302,52.7753764,16.93301799
1900.496032,74.46577916,48.97040595,17.97356154,-17.78899317,2.546491276
1903.372491,-25.59020523,64.26933283,-5.883922374,-31.56325939,23.077421
1906.245805,136.9596912,71.23805423,52.24621446,20.04933904,81.08631986
1909.115987,197.9522816,69.85751475,109.7022081,33.99447289,104.1840344
1911.983049,40.13938205,79.58777591,9.865902393,17.54324913,81.3014073
1914.847004,7.238325341,104.1743854,-28.23637471,36.90540835,74.57492406
1917.707866,90.72185905,122.1103521,39.2218792,58.3211526,91.40088631
1920.565646,103.7167991,107.2856152,80.19402637,24.93137678,83.12680437
1923.420359,-17.70995801,56.89572401,-27.92517338,-13.0428603,44.04197487
1926.272016,42.26547642,4.807618201,-80.80280084,-36.81871583,3.902081191
1929.120631,-17.87686824,-3.825840274,-19.89212405,-56.28561708,-26.60437219
1931.966216,-66.88807422,32.61470809,18.53648036,-10.60069193,-32.42362291
1934.808786,39.7847117,62.93322444,27.26534761,39.10985655,8.464574333
1937.648351,-30.11945797,57.68318493,39.7988225,-7.556538845,62.93745277
1940.484927,-11.96202114,54.41885474,-56.12587096,-27.37099909,71.47790018
1943.318525,16.96109019,90.25235091,47.37857541,49.47625486,48.48568809
1946.149158,22.79690524,142.0004221,16.94573802,74.21428878,48.93671506
1948.97684,50.37753715,160.8495936,124.3349301,24.80175553,64.86013948
1951.801584,103.5453479,122.5486658,6.184715741,21.19244391,53.64719717
1954.623403,104.9957759,48.50518747,83.46202929,31.57229895,21.67915705
1957.44231,-40.99424461,-0.330240484,-4.533785144,-14.16584208,12.86819894
1960.258318,-26.13562135,15.78275437,-25.20659743,-21.05383443,36.47831016
1963.071439,25.66561947,62.4017112,20.60173745,26.98351212,42.18994666
1965.881688,4.747477022,83.27074527,-60.75378004,-6.390668993,1.270888914
1968.689078,34.29515716,77.12669105,17.04835208,-55.46911612,-25.60590111
1971.493621,-37.79817452,71.03552159,24.6264086,32.30573556,10.25535176
