Wavelength,HS_AAB_P3_750_5_5_H_S1_I1,HS_AAB_P3_750_5_5_H_S1_I2,HS_AAB_P3_750_5_5_H_S1_I3,HS_AAB_P3_750_5_5_H_S1_I4,HS_AAB_P3_750_5_5_H_S1_I5
341.6070517,18.99395022,-35.06395224,-31.31792919,-51.18592284,6.202307386
346.7134786,-22.06001637,8.946580727,10.52832703,3.503880258,117.2666961
351.8120798,-16.31604118,25.43035549,13.57425866,34.83077886,-23.21206204
356.9028684,20.55360087,41.81978586,14.59128887,62.01800899,36.92513897
361.9858576,45.34491541,69.73065087,42.09158658,11.63498709,84.54370188
367.0610602,56.79161712,88.82079412,68.68514393,-40.07929686,110.1019476
372.1284892,85.26335303,103.5119246,90.65384409,12.99150003,213.4728518
377.1881577,123.9041855,113.3497095,127.4848445,44.37806031,113.7907314
382.2400784,119.9518305,81.84715326,137.437993,48.13864397,152.6167312
387.2842644,53.39355908,11.60639489,72.49208671,29.73909393,173.5024164
392.3207284,-14.84032905,-14.5504026,-6.524087316,-53.11634873,-97.24530394
397.3494833,-22.19808784,44.67423309,-17.25009909,-21.15905127,-8.041959681
402.370542,6.863427058,96.86185075,7.316486489,63.23823661,169.556077
407.3839172,18.89743491,64.16998804,7.446106237,19.71066086,30.57659059
412.3896217,19.35305622,8.099295238,8.196821506,-20.78615894,39.98300742
417.3876683,36.46383973,11.90819575,40.80976853,-26.18588979,32.96636767
422.3780697,70.15358703,70.19077485,75.88009096,-35.518934,28.09189633
427.3608386,119.5702612,131.7950897,91.08678215,15.35734246,147.3262998
432.3359876,182.9645305,171.6632403,101.9477249,103.8941342,97.46379574
437.3035295,214.9889327,188.1688731,104.3370117,122.842456,121.5597572
442.2634769,167.0648347,169.8727796,80.80775289,31.368954,126.7606068
447.2158423,69.47615279,104.4079902,48.56985536,-15.27068251,102.0393184
452.1606383,1.531317967,9.599573046,20.11659231,16.83006808,129.2282836
457.0978776,-1.808617551,-32.13296005,-14.75775632,-14.03639684,-57.47739073
462.0275727,34.60896321,48.67212783,-30.03901188,-42.74061768,-1.675657775
466.9497361,76.02783791,165.6044037,17.39639028,-0.624189849,207.7517784
471.8643802,108.0897379,197.3021658,114.2760609,35.50600453,191.1280076
476.7715176,127.2420352,177.2602122,194.6576612,41.23339865,178.1288086
481.6711608,126.7587965,170.1051216,203.7673412,34.89270032,119.970429
486.5633221,105.6401456,159.5053146,143.9778858,-5.886164474,72.16565126
491.448014,80.67835818,146.4320883,67.16602862,-50.20965898,81.5866747
496.3252488,71.47956991,158.5998951,39.19984748,16.39826808,92.31886602
501.195039,73.73474215,185.8581939,81.42653597,124.893774,139.0721865
506.0573969,60.61702396,180.493358,120.1034478,127.9211865,111.2048973
510.9123349,17.43415613,97.26519791,75.93900524,46.77732096,-8.25039189
515.7598651,-27.12690431,-5.317658471,-0.613026882,-46.33286199,-33.1412654
520.6,-23.41917665,6.459388575,-4.877011259,-43.54304502,17.27026956
525.4327518,35.63877081,129.9444893,65.72220198,66.63977314,-10.76758149
530.2581327,102.4048241,230.4282365,140.2907381,138.3120035,10.60125357
535.076155,132.7569164,244.3388109,177.7250032,149.1125272,26.38979711
539.8868309,120.2970223,209.0580277,172.5189595,147.2489149,20.30819466
544.6901726,80.03058464,173.6098798,124.8376677,116.7401731,32.1523787
549.4861922,35.19819747,155.2173268,50.49364423,80.05554154,2.557076934
554.2749019,7.778998666,135.7418224,-3.932188173,35.03920144,57.95908751
559.0563139,2.891108759,113.504921,7.280779707,9.337768208,-21.30084131
563.8304402,13.75710227,121.2458356,71.0055952,94.95973082,-33.21452072
568.597293,31.69819993,142.9805073,117.1623121,176.9436895,142.384977
573.3568844,41.41494349,120.5305818,103.9334454,108.0746869,65.91013875
578.1092263,31.6086506,61.76886057,64.58567981,-11.68841843,10.09442744
582.8543308,12.24679433,18.07869794,40.04014153,-51.01218552,34.33843679
587.5922101,1.878465967,0.053531959,20.56041843,-16.13094639,83.73479611
592.322876,2.482675072,3.585223296,-4.528176129,-2.505698613,166.5655252
597.0463405,0.43855664,42.09071439,5.9497774,-1.304159073,64.06706017
601.7626157,-9.567441932,96.9437467,72.38585915,41.9097124,99.8349523
606.4717135,-13.31503909,98.68601705,109.9630342,45.04288081,218.4352022
611.1736458,1.000699041,21.98457735,48.40819197,12.27573003,82.81633911
615.8684246,18.60200289,-46.6777577,-28.97860245,9.697160152,-47.5480022
620.5560617,15.07566818,-28.75525799,-26.8003964,-1.440275403,84.10331745
625.2365691,-8.070333361,21.49970245,8.363088659,-20.74946038,136.5578626
629.9099585,-23.20334871,18.63816039,11.06145388,-26.75511996,-25.8781567
634.5762419,-4.396579163,-3.122991854,15.99029637,-23.70141093,17.76795071
639.2354312,49.32540905,50.16977788,66.00909874,27.00733555,159.0464929
643.887538,101.9208502,153.9138917,122.585479,110.2092772,203.837896
648.5325743,106.0604377,173.0295588,130.0110335,139.3353702,194.4064598
653.1705518,65.74652747,89.12204973,101.840736,96.43521422,167.5407523
657.8014823,41.90692857,45.13965985,85.22519331,16.37037561,119.4699832
662.4253775,70.79632454,103.0903678,82.18034174,-0.872921095,-17.75604006
667.0422493,121.4651091,164.1684886,71.40040684,86.13179419,9.463765367
671.6521092,152.6656729,158.7327496,73.51364314,104.949204,85.97221718
676.2549691,154.1369257,121.9832565,106.698769,79.9436772,29.78762694
680.8508407,119.3900473,79.46576225,112.8930872,139.5031986,40.74484886
685.4397355,49.76142312,21.77913078,50.17859876,87.9203982,-8.518097136
690.0216654,-9.251133189,-20.15409681,-6.093235894,-47.24597448,-72.38049312
694.5966419,-12.35846969,-5.100440468,12.51831869,-13.66344434,1.502262674
699.1646767,18.33903389,44.56758722,55.71719482,102.2945343,25.43156249
703.7257814,36.91697469,79.51668103,70.79007862,164.7207605,34.60222135
708.2799676,38.87101598,91.91628216,81.45388086,130.3929164,65.35786964
712.827247,33.90026285,102.9224321,89.89087682,35.88796446,56.23226681
717.367631,19.90421701,104.6144693,56.34427574,18.75253299,84.96617558
721.9011314,7.693693792,64.85484053,5.930438532,43.49485038,30.98764777
726.4277595,6.886585928,7.510315702,7.231371877,22.07710826,-19.70712559
730.9475271,5.04021518,-6.21556857,44.30596632,-41.40854939,20.10932265
735.4604456,9.353060202,8.995435542,65.69933464,-63.60128658,-38.51653064
739.9665264,49.54030438,6.849738686,99.89689783,22.19870218,-8.269646217
744.4657813,107.3166895,15.44966114,158.7749919,92.51349196,107.7266052
748.9582215,117.153242,49.91221327,155.9049745,89.96604712,89.93164989
753.4438587,52.8065017,43.83969098,57.38360547,60.21994203,68.73577601
757.9227042,-31.66838003,-15.99566039,-29.03776258,-7.58929014,18.79235364
762.3947696,-51.49878784,-47.75704327,-2.074437276,-21.38942394,-32.96662396
766.8600662,19.77537354,-22.58583417,103.24775,70.49786279,80.70213304
771.3186056,117.0448993,6.825117669,189.252507,91.27426388,123.3274223
775.770399,156.2200831,21.04707965,210.0900473,15.63688674,71.07783962
780.215458,117.6845507,25.25489004,154.9994866,40.41125188,164.8208799
784.6537939,48.15559889,-0.580788118,41.88270395,40.81009841,137.8405161
789.0854181,13.73955503,-20.59656752,-22.04693994,-74.12464182,-45.24039453
793.510342,37.97322725,19.32723373,43.3582218,19.12064849,3.865645041
797.9285769,70.76618115,49.23862684,127.4938928,172.9583636,92.58509203
802.3401342,55.20418155,6.663955795,97.82430054,42.5078807,7.377597968
806.7450253,9.654848865,-23.07305881,18.69889023,-60.95510987,-14.5641216
811.1432614,-4.878762501,4.185482178,0.923167595,16.82240381,19.40477257
815.5348538,28.13886129,15.89515267,15.48499602,19.31890411,26.83231043
819.9198139,69.80369104,3.6098553,9.73351563,-34.632948,30.0216013
824.2981531,81.078416,26.5680274,15.16460821,2.788238376,12.24082816
828.6698824,57.59937485,66.37098977,41.61422415,84.84335424,30.74615561
833.0350133,20.45429785,54.16598255,41.94423321,72.91077923,23.68531006
837.393557,-4.277846053,2.82069622,20.61147128,5.718781323,-45.27733333
841.7455248,-3.790971115,-7.605812877,12.13612217,45.96984351,-41.9451452
846.0909278,10.53695253,28.57531156,-9.207018721,111.1943829,14.32574057
850.4297774,15.62763146,26.32800893,-44.45373087,33.32914058,8.858574112
854.7620848,2.411476162,-35.79802484,-20.20882184,-74.84066191,-21.86975092
859.0878611,-17.50573855,-64.45513537,52.83140087,-49.18457903,-10.10404348
863.4071176,-26.90006547,-7.390172938,64.47047936,2.589126154,-3.770437946
867.7198655,-17.0841786,67.67551348,7.40042172,-14.79798716,-8.954209032
872.026116,12.53448372,101.102652,-20.44316438,34.77826344,31.45329357
876.3258802,62.74788728,118.1309676,12.37963038,102.6428154,19.80176804
880.6191693,123.4704866,149.1341941,68.45271892,65.71123398,-38.65642076
884.9059946,151.6753715,162.5301721,109.2741088,40.64767378,78.98043964
889.186367,108.0926401,107.1983737,101.5978002,0.86036843,117.0723508
893.4602979,33.32941528,20.95909998,64.25969257,-60.22734186,-6.353386946
897.7277982,20.51502683,12.58063775,44.33941443,-19.21938368,53.22815228
901.9888793,92.02261342,90.28755717,25.32719207,13.67701209,19.81262345
906.2435521,168.7623232,149.1498485,3.777773684,10.21785986,-44.98129042
910.4918277,175.816831,144.0080907,38.93717461,39.37826404,34.7109545
914.7337174,128.4792789,132.6301907,105.2519293,43.18102849,-3.860267739
918.9692321,100.6318023,157.1668343,112.6665256,2.430854146,18.1326551
923.1983831,130.0411796,185.0581522,87.06414536,-30.37375466,69.47550606
927.4211813,172.8221365,169.8421365,94.04426282,23.93101475,108.4690024
931.6376378,161.0526739,123.1990765,100.340318,71.65086141,170.3293028
935.8477637,87.92235292,101.6434217,93.60643125,2.14511601,63.02987454
940.0515701,9.07460985,107.0346796,119.2808613,-32.20378248,-0.140789017
944.249068,-21.09643528,72.88431487,131.2480021,29.51126152,30.66255072
948.4402684,10.35132977,0.892546873,62.93078491,13.97661288,-24.5128904
952.6251825,74.46204321,-22.17125724,-15.92210305,-74.21288014,-49.63926037
956.8038212,123.3725752,18.82667465,-14.74889338,-20.79540907,38.53937044
960.9761955,136.6814878,55.69697097,45.6490446,69.8293917,79.26623482
965.1423166,141.3774876,72.36863961,104.0741171,25.95461279,69.03932836
969.3021953,159.6142773,93.25912989,120.1121333,25.911618,103.9809237
973.4558427,167.9743736,101.723901,79.59410491,37.60373494,30.92912567
977.6032699,144.3567013,85.80606266,23.94362131,-31.26685401,-20.83443844
981.7444877,101.8775114,56.5505521,4.41622783,-19.07361401,19.79062434
985.8795072,54.83625139,18.05778265,7.493016528,15.36271244,-24.81364194
990.0083394,9.635685118,0.026792973,2.32794513,15.88037514,-17.68969327
994.1309953,-20.03716904,12.8443556,-2.637827925,19.84704559,32.21224288
998.2474857,-26.49363247,1.709788371,-2.919606148,-63.48782565,-0.11178352
1002.357822,-12.69059598,-38.59878797,-15.81995902,-82.62251577,-57.49453893
1006.462014,10.77440736,-40.28645269,-23.9478222,26.76384311,-44.03409068
1010.560075,19.65216414,9.635174859,14.96564513,27.49244732,12.40588254
1014.652013,2.245442183,58.49534229,77.13867568,-15.92720029,26.4800725
1018.737841,-12.79052601,61.97908687,90.82332467,11.16509999,24.99700975
1022.81757,8.33832544,19.83627153,58.18152451,37.74374733,21.35313756
1026.891209,53.3294914,-8.148926136,45.64749379,66.03738425,67.78571875
1030.958771,74.73412467,24.06642769,63.34582943,47.34148201,63.19250361
1035.020266,49.79537516,53.85054852,55.58457225,0.391909969,-1.682736028
1039.075705,9.763864157,17.21561127,6.102492355,-12.59489156,3.738372701
1043.1251,-0.045230988,-9.293077926,-24.19628781,-13.23857243,3.235791082
1047.16846,20.98335651,41.25028081,-0.13487807,81.10705944,73.49499637
1051.205797,31.08611381,69.31517966,23.70792005,152.5895447,68.36285461
1055.237121,11.82661963,10.83790413,11.18756044,29.37310557,-24.33368133
1059.262444,6.402303878,-0.665528015,19.21716206,-24.65670522,37.03852291
1063.281777,70.66219564,151.0597214,101.6080443,117.0438525,72.28418569
1067.295131,199.0799517,379.8630588,232.0416666,271.0676665,215.0865792
1071.302515,317.1321984,511.0478588,341.2876888,383.6679339,406.765614
1075.303942,343.7573444,459.3850835,369.8952624,393.0651367,303.3018614
1079.299422,253.593359,277.1555341,298.0276115,291.6558213,162.5555001
1083.288966,97.62573076,84.1231126,157.9642193,178.4744885,129.087868
1087.272585,-20.14016469,-27.22853485,18.49920065,24.47733688,14.4952207
1091.250289,-24.92402085,-33.45216907,-54.27976737,-79.22811492,-85.73126837
1095.222091,48.20902589,23.23716092,-42.25984701,6.386263022,13.98949216
1099.187999,102.8858812,54.82578195,8.152357258,77.41638421,69.07724693
1103.148026,107.5785105,9.428599378,31.98638402,-4.845859996,3.901858638
1107.102183,109.3453848,-34.29759845,17.06556721,-35.6521142,3.116752487
1111.050479,136.1450812,25.53964185,2.39111867,44.3467362,35.38288615
1114.992927,155.9611921,117.939838,6.92100084,62.08281676,86.58553675
1118.929536,138.9893842,100.5159557,11.25073699,37.73818981,102.7271826
1122.860318,112.981123,26.46508457,22.28013561,75.28422738,72.01619233
1126.785283,137.2116907,98.72949093,101.0214454,97.34105988,124.1205483
1130.704443,239.2266412,372.2575863,275.3542389,160.1162051,301.3040963
1134.617808,381.2651445,666.6292415,467.1014277,373.1486363,496.3623584
1138.52539,482.3018249,795.8603016,569.7924742,524.666073,600.9207901
1142.427198,477.3639818,738.612632,540.7351719,460.779514,575.3391498
1146.323244,360.290281,542.9243642,384.2059753,320.2583015,438.1287933
1150.213538,189.1041688,271.2336805,160.5011641,161.8410354,173.5165678
1154.098093,54.94594956,58.13172565,5.060419522,7.846288055,-26.53792298
1157.976917,6.981300169,-8.495736551,-3.62100071,-6.834490423,95.14182658
1161.850023,10.49212966,2.510139693,48.80581029,33.41771775,131.1607347
1165.717421,11.81936976,10.88829355,44.8011398,-13.47038638,-19.81616076
1169.579121,5.093913032,8.92163043,-8.507350282,-21.77284736,16.31784337
1173.435135,3.021117335,-9.487333789,-29.20693801,11.63944351,36.16409554
1177.285474,-0.940650533,-29.16500988,9.121244284,-22.4779573,-13.46931305
1181.130148,-11.8006689,-0.279874345,63.52157535,-47.18104801,-12.22332965
1184.969169,-15.33797623,75.78772811,99.62296031,-22.80364324,-8.46750446
1188.802547,1.725497895,134.1407347,114.2228479,9.40362828,104.0975684
1192.630292,31.80370605,124.201069,104.823363,21.63280852,151.6527317
1196.452416,55.0031511,69.94204131,80.82697129,14.6140027,32.97689149
1200.26893,57.49512019,29.88383081,61.89445016,40.75694362,34.05045179
1204.079844,33.57279254,4.648409033,38.41643231,39.72594151,92.57266991
1207.88517,-5.546938732,-14.84273878,2.982247218,-39.18890713,-7.418896374
1211.684917,-19.15906399,13.27569395,-2.621953763,-44.51755917,-56.9016726
1215.479098,15.99201007,64.57640936,37.28180722,48.12050409,84.12909708
1219.267722,53.68482695,47.81745299,55.82018065,61.86996772,107.7925761
1223.050801,41.22035032,-16.43476546,17.30156758,3.233359453,13.81370667
1226.828346,3.210534907,-25.92154139,-16.04449315,-13.75087433,7.879525539
1230.600366,-9.411820244,20.70594299,-5.131686044,-2.513074388,-26.26386972
1234.366874,-0.683271052,36.51987159,11.0915343,13.04901852,22.94939231
1238.12788,2.676668647,1.70244001,18.10784451,-6.954159008,98.34177847
1241.883395,6.137906918,-3.373136603,42.30508715,-13.44534239,52.90737888
1245.633429,20.64246182,56.12092772,65.40883088,57.94660852,107.3329478
1249.377994,29.86492073,94.28080488,56.64373235,18.69832713,74.66100893
1253.1171,19.59499705,51.79402459,46.80205889,-65.84605749,-6.25449808
1256.850759,4.256796663,-7.411602722,61.86618685,27.79463853,57.32338494
1260.578981,-0.358388959,-9.313728512,69.0452573,91.04409839,9.758353869
1264.301776,-4.00307277,26.86259475,42.91834531,46.65490471,32.0361747
1268.019157,-18.96686124,29.73662488,0.19099098,28.36058914,94.99127996
1271.731133,-24.47526188,-4.26637489,-16.99148638,-18.45724121,-26.57642129
1275.437715,12.08337399,2.197530658,22.3642818,-37.25140064,-5.042074551
1279.138915,74.50107226,54.35567456,70.05820331,27.23304532,139.8203353
1282.834743,98.55553237,57.36503076,45.93604309,72.23955825,101.4580558
1286.52521,55.31817881,-8.900302253,-20.56219978,25.55393988,-37.61249078
1290.210328,-1.952051015,-45.23937559,-31.11084446,-77.11038581,-31.79224379
1293.890106,-4.184653378,6.87571055,18.46252525,-44.35537429,32.86067921
1297.564555,48.46527716,81.47271889,55.75261733,91.4062045,34.41450255
1301.233688,99.95970521,102.0448844,66.14941632,89.52614601,69.82049128
1304.897514,111.9173812,86.51102215,86.05515559,27.92064218,92.79160107
1308.556044,93.96633119,80.77559297,114.1275647,47.76837524,65.05605581
1312.209289,74.35265242,79.18242773,122.7736031,83.33729635,15.37891937
1315.857261,60.40372358,60.14093498,102.4762372,94.55447623,54.59014382
1319.499969,36.07853258,23.33154673,56.20957759,93.83135838,75.65268618
1323.137425,2.055971421,-15.40020358,8.69335851,42.95728352,-33.54079382
1326.769641,-6.248644699,-20.24156693,-2.525623856,-37.46275845,-0.969790749
1330.396626,31.22623786,19.18145672,9.299016547,13.77141258,35.47926392
1334.018391,81.23410332,39.85934386,0.065760519,121.4689246,6.643559689
1337.634948,103.3604601,7.131051309,-15.28165374,31.98522046,54.73952967
1341.246307,98.23567934,-11.63873492,4.922197109,-63.81270452,-14.86046912
1344.85248,84.19451196,19.98157254,39.18955921,19.31461293,-34.44626819
1348.453477,65.69521907,44.87226898,41.42462139,-6.173083182,84.26760573
1352.049309,41.08251787,28.21552346,16.58297417,-91.99438135,58.59729337
1355.639987,15.0464189,-5.629053101,-3.980443462,29.77152264,-12.91945824
1359.225522,-0.750123371,-23.27085575,-4.830063652,94.62011221,-8.869942902
1362.805925,7.155815612,2.804959427,16.71490601,-0.613781269,-8.68460185
1366.381207,40.69013724,61.87998019,48.18146855,11.71057026,12.30742441
1369.951379,88.0926539,113.9419488,70.51983451,47.31283601,34.13628798
1373.516452,143.9248959,170.6971482,93.37376895,40.11170768,32.51813918
1377.076436,210.2763849,265.2558669,145.2077122,137.9986528,63.01700341
1380.631343,270.1638633,371.4024961,225.1555351,226.8057548,107.5756564
1384.181184,286.5161352,450.6847567,295.5648905,239.0803357,114.1861998
1387.725969,244.4380577,480.1400194,316.2506445,269.5984275,180.0867613
1391.26571,181.4883526,420.8097781,283.0681185,208.6069302,232.2039836
1394.800417,147.1294189,281.3940322,230.9763671,85.20218012,84.65511254
1398.330102,131.8427067,145.5099694,177.2910042,112.1357651,9.62623514
1401.854776,83.89244551,61.70926494,97.74230982,151.6974419,27.4450308
1405.374448,3.802454493,3.476066571,0.13208632,25.47474092,-52.13674647
1408.889132,-38.12032488,-34.70803421,-43.37284208,-90.24293941,-48.59759489
1412.398837,8.751586661,-0.72710528,6.438106655,-12.5438336,26.99818725
1415.903574,120.6725532,116.6902795,99.07594846,170.3720461,158.3484046
1419.403355,240.1687921,262.3003228,189.7796097,256.7761009,219.9009101
1422.89819,327.2999527,408.1109895,289.5824946,300.7669228,212.1874655
1426.388091,364.4791973,519.7860304,374.9038084,390.6931717,398.8284714
1429.873069,354.4557838,517.209614,392.6592111,345.7209821,371.36906
1433.353134,319.1858107,418.9519647,354.4027331,240.3885198,237.1370922
1436.828298,268.2596697,328.4347402,293.167092,256.7081555,357.6011044
1440.298571,187.6303588,246.1494874,204.6619845,222.1999074,231.5912608
1443.763965,87.06880585,128.0164976,100.7892352,105.8541169,71.62216619
1447.224491,15.88529267,29.15790992,23.13290273,23.8708452,103.3028277
1450.68016,5.693363612,7.980228662,-3.190994547,-8.270685678,4.901493936
1454.130983,34.96042559,20.453004,12.89215765,43.58682627,3.376446386
1457.576971,64.42336991,20.29054328,46.36067498,67.59180564,58.57394267
1461.018135,76.71198493,42.02101662,82.01027387,46.74326714,32.06212473
1464.454486,68.98028544,91.35072715,99.64823257,100.3591544,105.2363404
1467.886036,38.80576386,84.15445998,74.67175362,72.32694853,82.47772324
1471.312794,-0.245314709,-2.987579954,32.26259134,-62.86258549,-45.30441329
1474.734774,-15.65279683,-67.47867026,14.8857265,-73.3887617,-37.05643827
1478.151985,5.957711857,-44.67540166,5.752360698,13.96283228,12.82267204
1481.564439,33.09631769,7.146264962,-19.60879769,33.36144398,69.40273943
1484.972146,27.81897267,24.17293615,-30.33513924,-2.066819866,37.78838675
1488.375119,1.737017982,17.60346232,-4.165501326,2.289150459,0.431534954
1491.773368,1.365996869,17.16966735,19.20314506,13.97439564,96.5961591
1495.166904,42.76073233,20.47802814,5.039782226,1.462977387,37.10952585
1498.555739,88.63221718,15.6904331,-14.84105946,23.21162738,38.12742728
1501.939883,94.7981817,2.610223918,-3.758130535,0.330553832,99.9801376
1505.319349,69.24046854,-17.63186723,14.07639255,-49.28499939,-52.43518382
1508.694146,61.32088147,-29.94521632,11.24888951,8.467464285,-19.5603078
1512.064286,86.72150952,3.141869245,15.00899662,39.1284229,124.6302773
1515.429781,105.6958052,74.06158526,44.58682451,8.977972046,99.85618606
1518.790642,85.58642628,101.0561752,54.74311721,45.6184144,76.40315881
1522.146879,39.77703568,45.89098836,9.139607456,15.71193228,38.27593424
1525.498505,-0.247551056,-19.43129469,-42.97179756,-89.270613,-53.23923886
1528.845529,-12.69224104,-33.09964105,-38.96924676,-53.95415036,-16.68507844
1532.187965,17.28392514,-15.34502844,-0.363623068,42.09356236,107.4923167
1535.525822,90.63907253,17.19218914,24.3215982,80.11423253,126.0265206
1538.859112,173.6943993,59.02365111,42.65474878,149.0392704,93.31327944
1542.187846,217.9065771,60.02387389,62.73862524,166.0173995,94.27721634
1545.512036,210.9562217,16.66733355,52.25933229,69.42125566,75.64738612
1548.831693,180.4022882,18.24689375,14.58932433,19.90966905,19.37818585
1552.146829,146.8300312,77.0652202,-1.823812961,20.37993897,10.25290448
1555.457453,112.4491677,83.29219788,5.722169004,-18.03365729,12.20510802
1558.763579,96.62558719,25.29447286,4.755332719,-46.73873867,-21.20067734
1562.065216,126.8740488,21.20087419,4.035663262,-31.7828659,-27.11446586
1565.362377,182.5944538,76.26270714,20.10790445,-9.17280648,36.82442407
1568.655073,213.5027065,94.88357976,41.64407319,9.032107545,123.4030924
1571.943315,222.4187195,103.1655631,80.84674662,34.25640792,105.078627
1575.227114,251.5002321,173.3869066,151.3004794,59.83019234,112.280611
1578.506482,289.8048137,244.250603,200.021575,66.89427645,181.753191
1581.781431,283.166279,234.3822404,171.4724315,45.18544298,113.1410823
1585.051971,233.7196529,192.9395804,108.0933267,20.17087772,28.94799216
1588.318114,206.6321509,203.3826138,101.8377151,31.89554686,101.2106598
1591.579872,229.040391,246.4291363,158.6873377,84.21013054,185.1582202
1594.837255,253.5397388,248.9123611,191.622907,122.0011229,189.2254682
1598.090275,239.0271306,213.8156302,169.2337192,68.20823754,184.8111899
1601.338945,199.2594435,203.5335823,151.9773153,7.180790516,147.4975724
1604.583274,151.1684678,198.3703297,140.584529,36.79393815,138.9884337
1607.823275,86.08805267,115.1449178,71.70182623,4.870544388,80.43246597
1611.058959,12.71973627,-12.13617055,-18.09342078,-94.05022992,-49.82886881
1614.290338,-31.70434428,-54.96540017,-37.52688394,-75.79893074,-4.733296019
1617.517422,-25.02191401,14.26566636,5.814282652,10.71487189,0.235138044
1620.740224,19.19060906,118.3527456,61.24202684,91.54184019,21.00435321
1623.958755,70.2992366,191.7037207,113.6953254,164.6324285,223.064664
1627.173027,107.3729222,212.828962,146.1519029,158.9545891,194.5802246
1630.38305,126.4596744,207.8899773,153.8940156,123.4116225,136.2077495
1633.588838,124.2034899,211.1182269,160.9156419,142.7661247,216.1931518
1636.7904,98.8649598,203.4034197,161.1428101,149.0245824,167.0238675
1639.987749,68.54746851,168.201818,133.2648205,81.71590756,135.1640278
1643.180896,55.93825577,148.2962121,105.3399454,13.59870814,129.9553419
1646.369853,56.34127376,157.2973173,104.5612792,46.13946163,154.1943318
1649.554632,46.22457684,129.0508109,93.32522323,119.8361352,210.3751071
1652.735244,20.20378668,42.89358371,46.57982914,70.35570235,113.7178167
1655.9117,-1.586992773,-8.769069632,10.65990206,-34.39481859,7.641854351
1659.084013,-5.115295927,28.53363854,12.76639281,14.4080554,77.70785705
1662.252193,1.735171551,83.45325376,14.72819276,69.67738633,209.2499843
1665.416254,9.452474075,92.10656274,-1.720489419,-9.470174035,180.9382908
1668.576205,16.80233216,67.1452513,-3.853554264,36.42460731,118.1659104
1671.732059,19.24100528,27.70700278,23.45334153,127.0249245,163.1539282
1674.883828,13.18760655,-0.372747689,54.63947161,31.35356296,123.7872221
1678.031523,3.542757042,6.467524292,59.25267563,14.83902398,109.4287539
1681.175157,-9.908983431,5.350325226,21.76420883,76.69211482,137.4820591
1684.314739,-29.32075079,-23.84754551,-28.7552708,-29.95758803,-8.834048701
1687.450284,-37.76703438,-10.61156338,-29.26618533,-60.78922255,-36.66092578
1690.581801,-18.85981301,38.86089629,17.19799004,74.15513765,72.79589302
1693.709304,9.840977014,24.28781491,46.61101986,46.73417434,26.95251322
1696.832803,19.08563613,-29.78259024,52.24838759,-75.03915867,59.00996973
1699.952311,9.681842743,-8.919545405,66.57124587,-9.438565466,103.9914065
1703.067839,7.391778541,60.38027171,78.54707513,89.28687746,12.04156687
1706.179399,28.20992008,64.12536719,71.86055215,38.20973051,38.14043773
1709.287003,62.13732451,25.94466561,73.59039899,2.885824753,118.1834516
1712.390663,84.03680764,52.72869206,108.0051335,29.27743365,100.3067954
1715.49039,74.09905828,112.1315473,137.4421124,1.940442541,23.63306789
1718.586197,34.58145715,86.75784694,96.39118531,-0.616265782,6.283399274
1721.678095,-7.644353947,-1.368063556,-0.251118756,34.20922795,-22.3610014
1724.766096,-21.1024073,-25.96094561,-47.13323514,-4.738240956,-89.98725671
1727.850213,-2.983489207,26.27667412,-0.352323397,-29.24129633,9.740063279
1730.930456,15.09391582,45.20645605,48.70684058,20.3247691,68.78715752
1734.006838,8.90484266,-6.939066426,24.81161653,4.743412706,-21.82219367
1737.079372,-7.802527603,-34.58572491,-14.63136166,-53.76893821,-26.82791048
1740.148067,-12.01877308,19.25689212,3.568396621,12.14240655,39.57832071
1743.212938,-4.476332502,89.43345994,51.62271674,117.1687134,36.69817578
1746.273996,4.548221394,116.5959601,69.08059227,124.5125156,34.07976708
1749.331252,12.07035745,97.86570631,46.31780831,92.15402469,114.4915204
1752.384718,12.98738,43.0510529,11.9945741,21.61063153,75.13835095
1755.434408,5.376300133,11.04846207,4.760217145,-13.88349831,-4.375993568
1758.480332,0.668769986,53.26441958,25.73563278,104.6763288,58.84952908
1761.522503,2.010145407,96.64260817,24.22108289,178.6822928,92.44194024
1764.560933,-2.598007967,58.5733715,-7.253983615,62.77768829,37.19354304
1767.595634,-10.46875384,-6.136069735,-8.590118059,-39.13885314,-28.71929833
1770.626618,-4.543740057,-2.919100146,36.23523487,-9.025858036,-21.46274836
1773.653896,11.84273146,55.36880746,71.9790553,30.26906636,99.21958832
1776.677482,16.11945478,71.65046956,55.80008133,24.18202159,167.931114
1779.697388,2.722681459,18.68220668,2.380910906,15.93486095,58.98115088
1782.713625,-11.78483757,-6.253413475,-35.2350587,3.708119191,-33.52168214
1785.726205,-18.51629504,39.43630469,-27.34385503,-2.49707642,3.453239313
1788.735141,-19.85901703,51.59245975,-1.830637551,-18.95758403,12.48465685
1791.740445,-9.097679178,-6.355420348,21.89254043,-19.00644465,-26.35652416
1794.742129,16.04543171,-17.18936205,59.64230458,89.97253389,38.38706004
1797.740206,31.46562079,47.42307379,82.88285735,142.0758646,125.3593169
1800.734687,18.04909798,70.02105922,47.66406255,5.559996688,25.56814524
1803.725585,-2.629035703,27.88713588,-1.959379391,-52.58194076,-50.72007549
1806.712912,-3.575187357,11.70487047,-3.519777727,41.12648838,0.180905738
1809.69668,5.359721717,29.45808994,17.99526104,36.26597872,0.86355892
1812.676902,5.552968613,23.14923325,17.24614803,-17.57753061,28.27960873
1815.65359,-0.337726037,-11.98792764,2.54507219,43.09787416,40.99597333
1818.626756,-5.653865527,-46.77796505,-6.061143672,43.71984327,-13.30437114
1821.596413,-5.703737214,-55.62650161,-6.547110399,-59.95768796,-28.95220052
1824.562573,3.364953432,-29.04195804,1.603697476,-52.22218008,-14.19774793
1827.525247,9.367259487,5.033825409,6.69536148,17.38157949,-13.84945405
1830.48445,0.438336681,17.22210063,-8.156021031,14.44730135,-0.694835833
1833.440192,-6.673855105,19.28759915,-18.29907406,-28.35343882,52.26269992
1836.392487,11.000473,25.63148726,10.62996231,-38.59689837,31.04617631
1839.341347,47.09951602,13.83628203,48.83491691,46.996239,-10.74294728
1842.286784,75.42347676,-10.71616695,56.61942648,85.53026728,-3.665218411
1845.22881,82.18334833,16.84496579,61.50291736,13.05593666,-11.44948585
1848.167439,75.0054207,84.05005993,79.38759345,47.8063975,25.24063037
1851.102682,67.78850569,80.18927864,59.34112352,84.61795065,27.92783738
1854.034553,68.36678661,9.077084058,-1.453741445,-32.00278142,-9.78329568
1856.963063,80.68605345,-0.907816808,-20.96952374,-14.20923828,32.60915662
1859.888226,107.557965,68.50373193,20.95645755,143.9862217,82.87046851
1862.810053,137.5421976,109.0488702,45.03441187,116.0448856,62.69357335
1865.728557,133.0595365,70.83886857,17.0036796,-2.408180512,-27.39927832
1868.643751,66.91118652,-0.608630683,-8.899719417,2.700748104,-86.66372927
1871.555648,-17.41627753,-40.38462948,-1.644837737,2.773073962,-22.93279695
1874.46426,-37.72618492,-10.13382832,8.083054514,-42.73343988,28.79256041
1877.369599,16.54463056,47.58584812,-1.400917517,4.209104806,19.76444927
1880.271679,75.34709577,49.63216112,-13.23468417,43.49132856,34.88070395
1883.170512,91.14069798,16.2703191,-8.598286363,11.14235383,-10.70664756
1886.06611,74.90409473,21.00790572,6.327558974,56.09186832,-22.25574335
1888.958487,45.40577937,36.58977148,7.638285109,44.15252994,27.76478639
1891.847655,14.50556518,13.23420969,-8.883252426,-80.24225992,-16.79342651
1894.733626,0.813290311,-16.5516172,-11.98847311,-50.00650088,25.81812209
1897.616414,13.12324581,-23.77375087,6.056553615,25.40645754,79.55776772
1900.496032,40.7640245,-22.05552004,6.388776846,-9.761548104,-0.406075038
1903.372491,67.63134751,-13.75809054,-14.6321704,-3.754059866,-18.67169416
1906.245805,74.13543154,1.816461233,-12.67316902,27.71293489,6.859380715
1909.115987,45.36916998,13.55485679,12.60328568,43.10393371,37.59371548
1911.983049,6.72379516,21.54638485,23.49935906,35.70776371,56.26835805
1914.847004,13.04618833,26.38904482,23.05036794,-10.96933524,62.93818714
1917.707866,64.76988782,19.16432333,32.10683155,23.72733905,108.8937418
1920.565646,88.98940785,11.18698779,39.2162951,56.16308037,83.48907948
1923.420359,45.5602826,10.10154847,24.45815782,-13.56746987,26.103787
1926.272016,-12.93395824,-10.64323557,-9.890433963,-27.39783044,-6.007724613
1929.120631,-22.07694258,-37.16307121,-31.99166065,-28.40088704,-68.88383313
1931.966216,15.80757934,-19.4711586,-14.81630101,-51.51335314,-8.239293146
1934.808786,58.20982082,11.16407613,5.466427361,7.352898136,126.2834923
1937.648351,83.59303855,1.250117091,-9.107923314,18.65984965,114.5551418
1940.484927,105.519049,-9.251984104,-7.569403931,-16.28234905,91.54008653
1943.318525,136.3507851,17.98994016,43.15516008,14.60076842,106.1355969
1946.149158,158.9680154,51.81013902,75.55257186,42.31393884,109.0110164
1948.97684,147.920113,67.81820789,67.37461469,101.7021961,138.1410234
1951.801584,100.3831279,53.27197441,71.92444202,168.6047735,81.43735026
1954.623403,37.30700353,2.44153083,68.56668288,115.2199422,12.8923135
1957.44231,-7.228552984,-30.06364427,18.26874206,9.447300419,11.72673039
1960.258318,-4.317110531,-0.010279125,-14.32303196,-14.24767967,-12.84239268
1963.071439,39.82618298,28.12414101,9.727491486,63.27293531,30.73094707
1965.881688,79.07615391,-1.447491051,24.32605704,76.11025954,79.82967742
1968.689078,68.31047858,-4.856713637,1.401321482,-9.096371597,12.90334532
1971.493621,9.065216388,90.11584413,-22.45048295,3.365427131,-30.41907791
