Wavelength,HS_AAB_P2_750_5_5_H_S3_I1,HS_AAB_P2_750_5_5_H_S3_I2,HS_AAB_P2_750_5_5_H_S3_I3,HS_AAB_P2_750_5_5_H_S3_I4,HS_AAB_P2_750_5_5_H_S3_I5
341.60705174836,-79.66543953321667,-54.21635142611735,1.2897195074050742,-0.24042117678904162,-14.032384269418529
346.713478559637,2.234239511889484,12.751379054651624,50.42736562468568,100.43996775295884,-10.655780122214939
351.81207977484,27.277061977082653,14.787298688125013,39.399130401631844,176.7107617031726,2.118561812572881
356.902868441672,44.30020040288699,4.866898064298114,27.926935874722112,214.4574225488776,12.44142099042741
361.985857582014,41.499441136548235,19.19282259204303,80.17195910094102,221.9849569906184,17.521937293129458
367.061060192105,31.318791813577967,15.032019017187984,147.1771376110653,222.66602105315104,46.29183742572091
372.128489242741,177.37696179516183,-3.936866758799063,164.27840276706064,227.21801871952673,112.95156230374874
377.188157679431,167.83014936466938,15.689020395740897,139.85158731841162,221.9069640349908,166.92690057918887
382.240078422621,117.65121864393406,55.86708511740552,82.5298923261021,189.00867353878587,142.03556807371453
387.28426436785,158.39351126654734,44.75624268112979,23.161217962582676,132.7996901951353,54.619636252331574
392.320728385954,-59.47172350546579,-11.013969788529794,60.94331553671978,80.72797093858048,-5.304046926357632
397.349483323229,-65.13644662743299,-29.072822660080035,148.81595291225676,57.58241253210263,9.881185086269777
402.370542001634,67.22802099960944,13.192976895040971,113.45420138093604,62.890001072227804,64.4866708341787
407.383917218955,-12.261396623419898,52.36022647061364,26.470825514907418,79.23358863219308,116.89582179723936
412.389621748998,33.09963070970868,43.172223140932694,63.938442230575404,95.23556632274614,147.82630045204002
417.38766834176,19.245732781957273,16.056880549539855,148.17053356688984,110.70321476844961,134.52860036731767
422.378069723627,-13.299210376987627,27.923764517650135,162.51632853133484,126.72561723586978,93.19785132495198
427.36083859752,42.893185904630435,81.701358630818,154.9765259279199,142.7751449507216,88.54350006139936
432.33598764311,37.2466166720844,122.8524537708017,184.60336194907185,157.59935857347145,140.29547941143073
437.303529516963,82.347969614482,107.65869993081073,234.4059026861287,161.81214686079932,194.35619722556737
442.263476852746,11.273686865015918,42.16068597554619,263.4439335793945,138.57868235561574,196.44940104355985
447.215842261372,-5.95084845215348,-24.937397666230744,241.9528910240311,85.21377480009359,133.78647979995378
452.160638331203,40.336625804307786,-45.017986084453284,126.30124831938413,27.895315214583228,35.80361863611202
457.09787762821,-94.82022599905596,-18.239378294178387,-3.330464433534317,2.0539402301334135,-26.948592170566315
462.027572696154,-54.43323983426661,20.60694619580678,54.11372335202652,16.736783132644035,-1.9288587917175306
466.94973605674,67.95777047506341,47.12454902818082,219.3418977863879,46.70929933681583,75.16150386385439
471.864380209825,118.27209228476892,64.8867089030066,238.74133929473652,63.12801064309678,133.56074016283085
476.771517633557,184.4642364868292,91.0454034201073,151.9323336838256,60.85100928743849,159.74543279547564
481.671160784555,157.87537176821942,113.77487711295596,118.63476015099906,52.25415833395654,166.27753946571252
486.563322098094,89.02227656778247,91.69896055158597,130.1763110682699,51.32605720248992,136.0025515224246
491.448013988253,37.15400347562095,28.05296580587742,130.32058283035752,68.8460740712608,74.06750197251029
496.325248848098,27.89173035134909,-3.293748899867686,128.7050437090557,103.41100091305785,40.46765550465907
501.19503904985,44.23158949017486,41.76578771223538,162.0540729466489,128.24393603951572,61.644802621622304
506.057396945047,74.20506304725316,98.42583443455571,188.88675061192995,107.20810921752344,81.56959757106989
510.912334864715,-22.657950726957903,86.24719624373991,113.81119519350878,42.15932315569423,53.05758396036835
515.759865119533,-109.08120596650006,26.301526653800572,1.3954572101582414,-10.295746653992133,10.881291240194901
520.599999999993,30.038306640679977,-12.889319796629398,8.542048877826048,7.1472765962107445,10.755913677825328
525.43275177658,47.343589045942174,0.32661077650452586,97.04713767149238,88.0759936416214,52.99700224872768
530.258132699922,33.27017074807945,63.78778542934224,133.58755504763081,169.79344715319667,97.68722747292408
535.076155000963,90.80406549690787,121.08478425122682,116.06477701216713,199.41113983781332,108.356522633554
539.886830891122,19.458118319639816,94.74165120849807,90.48562403012315,176.37325312211834,77.79923576048716
544.690172562456,-26.365450198677593,10.85164117974836,69.33816999218521,135.62768998782744,40.544099511791806
549.48619218782,-13.332589243413807,-33.39137549596136,72.93647270551219,108.09846888603857,31.27657802168944
554.274901921033,-7.4952324541845385,-15.649758809922284,83.21154012295898,101.98164566647095,31.23481544115753
559.056313897039,-33.4464200665763,30.092957888825467,56.06603779014528,110.71196697823937,12.276142762890922
563.830440232063,39.94512167533597,83.2843766841155,34.83219066422875,124.60760309734934,2.3060800795452643
568.597293023768,126.86994673709309,99.84860534358401,63.35024623109494,129.65319387449262,29.813762978680355
573.356884351426,18.25700927875856,50.64401862051979,81.33397662370207,109.88741714674616,57.152330072382895
578.109226276065,-51.02294141310424,-1.095318109309055,60.98269584461254,65.78750071985351,40.14451465647866
582.854330840628,-31.32618230742591,-4.541824365797719,52.261810627509924,20.50802412421914,-3.399431388192383
587.592210070137,18.377028752896784,-2.1623369954346217,66.54660158415793,-1.697511878874387,-23.820456418453787
592.32287597184,70.3100091944305,-14.192991095702352,64.48008323552398,5.501443215038417,4.899157473924831
597.046340535378,74.72252752512466,3.1349782237098758,39.03707044359563,33.63217681284282,68.81776965790756
601.762615732927,53.503367627501255,54.75353535436131,49.629524596833775,67.5196827022856,123.84989188612732
606.47171351937,22.287649637932944,83.75128264921345,105.47014262403532,88.10639235045035,126.29969044475709
611.173645832432,12.93123695857568,58.88082639745262,116.38385150169282,80.29968842397673,80.81314465222925
615.868424592853,-45.19140153125115,21.123928845771204,76.64735830890031,46.521189334814096,44.4871519621979
620.556061704518,-34.971933962312754,13.007561087470219,66.52276655799945,8.298414748294356,53.849500741540865
625.236569054636,-23.32785702345103,9.09008439828673,74.410580161455,-10.791249527918737,79.05857225297254
629.909958513867,-41.220651742832096,-14.061579121297761,53.27135864056801,-2.2779093315101804,82.2383657801981
634.576241936495,51.218066429631534,-2.9349799282118276,8.113145655108195,27.18715448295769,79.77804266341279
639.235431160565,31.97689501343466,83.34993706575646,-0.5446457712999475,63.31556546459214,104.83759580234198
643.887538008037,38.45797636848788,174.6863466464839,107.97822583922698,86.94427829717827,140.87251734446968
648.532574284938,115.70838687099342,170.34143271069985,228.98596611276804,81.75177443983429,144.47950853492043
653.170551781504,83.71596312165289,72.93999901460501,167.89929083287745,52.39517605013606,115.01983966765721
657.801482272336,22.86159862582214,-13.483170471983708,23.071098614373028,27.36034585115366,92.9465530626764
662.425377516553,-58.77241920924521,-10.519037638680924,1.214124716591595,31.384015905794513,96.81759468401425
667.042249257922,-4.626957999869842,52.21565222688169,56.59740019372501,60.3760619163255,104.3182696621059
671.652109225024,75.80967175815705,110.65750552325939,91.4736979450095,90.24136499840073,105.25395096550378
676.25496913138,48.5879472175367,137.8964475719353,118.17947698186552,100.18655457265291,113.69500267840525
680.850840675623,99.52908269014826,106.75734725291542,111.75072375455169,83.06008146511807,107.87488889716602
685.439735541628,16.936099198252084,21.049879286665295,47.62812233040671,47.96886550874779,55.92755181180704
690.021665398646,-84.60684027581057,-28.705682006854637,1.190843662228243,16.96895171381332,1.6298865844955976
694.596641901473,90.85122197682054,11.647030464667372,27.569210037990516,7.1615655456709515,7.283368786710032
699.164676690576,111.08099026899936,68.58228251975974,71.82109049060185,19.28446644647054,54.49879005598666
703.725781392244,11.5081563430683,74.94360405797907,93.59791084637925,50.64417840541425,99.49924895247182
708.279967618726,83.92365831762679,61.300875120257146,134.2602552882475,101.86567831472334,138.8338512748649
712.827246968383,87.6435546214108,59.73497975915124,192.00688148480668,157.92194648576464,154.0558858781296
717.367631025822,45.75143930558739,48.940784896772456,191.68330514552596,181.8272547133065,106.24438288295809
721.901131362029,-19.50035696220246,19.958594033278995,115.11576601227505,147.2868343047433,24.959600807487544
726.427759534527,-74.16339414710168,-2.0100283985604612,55.74995596793757,71.54857575458112,-15.262244104871424
730.947527087514,45.906005109517835,-9.780778755795446,76.42962684089785,4.2506990469698955,-9.162192514385925
735.460445551988,108.01573838110471,-13.21196497904069,107.74631564518475,-14.132350307372139,-0.522004218933688
739.9665264459,53.431233270789605,-4.220776098436389,107.28675368234623,17.96118317639201,8.898774285852465
744.465781274288,75.61920015034683,19.68431097939248,117.68574813051484,67.68424540504334,31.778234348295715
748.958221529419,82.27314866152497,31.352438328738536,132.41934168669286,97.58658310260162,40.70345825858912
753.443858690927,7.901933613228472,5.950890233597002,117.96463578297168,91.27177098079974,15.613080506785833
757.922704225939,-47.98881400870735,-33.74824792658051,69.09549395249763,57.174492151475874,-11.667837910300555
762.394769589231,-40.629546343156264,-29.983557552128357,11.5551556229275,20.49810382243733,-8.626421192321585
766.860066223344,6.937975082167721,23.31453893450211,2.5334664562864475,7.171024639872735,9.77642643356802
771.318605558739,21.020887575101934,69.98039225145939,57.8968021655637,21.339213137170788,15.80532193878054
775.770399013925,74.69441965685913,84.99403506180998,148.86611874330077,41.13739338648537,8.314301036021885
780.215457995582,157.27595232220972,68.50025806994636,197.0823189366738,44.511906413267724,-0.7521589006087781
784.653793898724,70.80137036676574,15.631536256238746,107.40496122863928,35.61924350298677,3.9941568595749914
789.085418106801,-19.752545447426407,-6.849893236254612,-4.689786859980458,38.83228535868983,41.519781270283744
793.51034199186,36.1358108099475,67.24223243240203,52.725670949885455,63.593213159367956,94.87698097534187
797.928576914654,49.5057060901484,144.42223107927205,163.78928010005114,85.41643318768918,100.62429518431473
802.340134224796,-13.414202831914539,117.19549477215068,140.97764944143972,75.48834583477445,35.37408550448009
806.745025260881,-19.817878497287865,65.39908724528192,72.13828448444858,38.40695746069347,-32.48718935782798
811.143261350622,7.921253563003715,93.4361612515615,83.77492223044771,3.7167564243416056,-35.46130741225311
815.534853810976,-17.502396786533936,140.62121451280083,135.27488736521832,-8.755483464028224,0.7386081326983334
819.919813948274,7.984165453056978,135.38156442579594,141.99483143505648,-1.0739729190925136,16.124641996818745
824.298153058367,93.82910893285995,138.8383800736176,110.65763336616641,13.390564575586666,10.731830072559244
828.669882426737,155.413709886922,180.40994777532939,131.73733372254347,20.599153277857564,11.11529239424681
833.035013328634,101.24701243712826,175.39541474065143,180.63115230467162,14.551694141875661,9.520519621672051
837.393557029212,-55.815914261660865,115.24641129620682,133.36656454447336,2.1511271884925502,-0.11506946780414218
841.745524783653,41.147613892769925,89.00273822183107,70.55286361855693,-4.4237211488562345,-0.35433114334326277
846.090927837287,155.5001574217311,94.73501082896192,127.27058307826309,-0.9443720044279296,8.269607321868833
850.429777425737,-12.136624794066936,62.56950933671672,173.69984875500677,5.269014841031116,9.607358705914598
854.762084775033,-19.287624338413146,2.56661711742413,105.3472602171401,4.41504636681013,2.480924182463742
859.087861101749,43.391617732617604,-29.72366023413546,43.63036515315376,-3.082279338806398,-6.5932229331409395
863.407117613115,-26.305747804846465,-21.239917378187876,38.91691388077924,-3.575444818729597,-12.716478941068512
867.719865507161,-32.75724616208517,17.314452063495455,54.22250580836035,16.68340511553094,-9.5101399394005
872.026115972836,2.043935350939506,66.35621130013418,100.95364619421892,53.352278192901956,6.666482374144223
876.325880190128,53.278864221185415,89.4140756269085,126.5213902326143,84.17760846279846,35.25523335067565
880.619169330203,79.10117861984219,82.96410119146056,97.68245842689743,90.77323568215036,71.6621619000616
884.905994555511,50.904052860183945,81.6779511663722,99.07304090015404,72.66864330928809,100.77481087341488
889.186367019929,-2.4275638639547967,83.84227667792548,135.39569291833953,40.420165853776496,98.23559721125615
893.460297868871,-50.92938174756861,58.50831860056393,148.33100656765845,8.694032358498925,55.69664063906709
897.727798239421,-46.041096295935,13.606090359995626,147.5475133021231,-5.970386171989421,5.500732952495142
901.988879260451,-16.595980701241203,-5.884204641773341,116.67991507582437,5.163562739155634,-2.387993164115585
906.243552052747,15.86012599378602,27.10328180979594,64.17069697332053,36.06631778955595,42.246238753682114
910.491827729133,51.41787851034434,69.89008624967576,96.0125882473587,70.9668100850165,96.37076047247255
914.73371739458,124.27149350661156,52.647618556635656,190.2175274885578,93.92991773870625,122.03943499020001
918.96923214635,86.95652454900386,4.635630557696945,214.82891824303172,99.773151690432,132.6450791110562
923.198383074097,-3.898491751345773,18.927737880232137,218.93576663936057,99.9005969508068,156.37285711569567
927.421181260002,116.0334131463253,81.42073402632518,252.48669812730898,108.1410401267168,184.16025560887448
931.637637778882,131.9841623001441,105.77971566673841,213.63405687978047,120.43488387401615,184.25052920780846
935.847763698324,23.041701355541996,85.7073821712407,177.0663239895634,118.06016622580557,141.90674202430816
940.051570078787,20.118986220238817,44.94157996267856,220.00516740630667,88.57087058084376,68.58170769516735
944.249067973746,-37.61975478166728,-21.391114752777835,155.24451851122564,40.569451705383024,0.12658432785860896
948.440268429782,-26.845353916471872,-59.88095416510262,0.6105953047577444,2.203445784006007,-20.172067969048726
952.625182486719,104.84209896075582,-17.736555595939787,2.2708295115756414,-0.1968931414050843,7.391739487933123
956.803821177751,152.6465951834428,32.15102381113913,109.42012975930382,32.75643362638424,31.979808415855786
960.976195529529,37.4907270130477,22.75827044516616,132.29742087269625,75.28152331555994,36.11284054944809
965.142316562315,9.882052074786259,20.21960712240532,110.40360553144811,101.59711835596929,65.94088286502938
969.302195290067,160.38402735349754,66.39377675275881,108.94069210268023,103.4439589966845,124.79769828396715
973.455842720583,85.0301025191278,86.03232833471876,81.73167740347782,90.50160034265484,139.7746434951224
977.603269855595,4.0459869026990845,47.61426016507029,62.10674255753618,81.35582234485501,88.5693109367716
981.744487690908,90.84207901370215,17.383684378528105,75.83814788385658,86.0923508762647,34.953078576749235
985.879507216496,-20.927660084607567,26.14736620501695,37.68035407916172,92.23798653540773,15.302779002236624
990.008339416625,-37.05787169457394,30.43314383153207,-2.4623311359940345,76.43437475112574,5.078536623904148
994.130995269974,111.88974315052431,-10.190407742912782,55.828930265491266,35.135634241222526,-10.346601689006143
998.247485749738,9.481377218614796,-70.77770940437047,94.00043040182453,-3.867608144184146,-11.891272644074505
1002.35782182375,-75.9960162847184,-79.49986708127261,41.65094187398198,-8.448001989354097,13.120802084999815
1006.46201445461,68.88476070012817,-24.60315162801105,24.687010280396365,22.56729697835067,46.92023239573439
1010.56007459975,102.3087733094188,22.07013175565645,59.83335328543076,59.78104203048995,62.54565689315989
1014.65201321162,38.73090046956034,25.818619608407683,71.2820679268883,77.2515716856137,53.83806756450612
1018.73784123774,25.617507663116516,27.934051843492252,92.59453560301895,76.62614190615342,43.08646278118477
1022.81756962083,4.907811065938056,53.76951884105216,149.35760434703826,77.25033050213902,64.70649870946495
1026.89120929894,25.85053721052758,73.4283786193757,184.8872534921146,90.69876887654532,121.41611733032045
1030.95877120555,17.050470882732,58.60533144445409,191.67990859643916,108.21818465841935,160.62200662052192
1035.02026626967,41.18117092124415,27.408286869904288,175.18041950525722,112.12291940140906,132.92886825864278
1039.07570541598,40.23847107693081,13.73463884343542,105.6027332135862,97.07472347593702,62.965891328946064
1043.12509956491,-89.9181890977781,22.326224216432188,55.23975909137295,73.6232572404008,14.87463229112388
1047.16845963278,28.56901831949621,30.232845852851284,77.16147437215987,49.703949007690895,2.8311482760736046
1051.20579653188,78.73166750888521,6.5962974865823085,67.0529837735973,22.094181524989256,-7.077612252147536
1055.23712117061,-81.95834892616915,-42.1463565521388,20.59694855965423,-3.342077303873552,-21.307583781962016
1059.26244445357,21.940234507804725,-45.145634395867766,50.77148952381199,5.811174461416989,-1.0639541641081984
1063.28177728169,91.55246242060943,49.425823038488616,157.47862993783278,85.77034026296636,94.52668947715836
1067.2951305523,186.45115754168341,197.60310760812456,294.1785611366699,229.66593889374,263.9223251800095
1071.30251515928,429.4326885115157,318.29106807994464,428.7324792778269,372.9799430265094,433.94114642379975
1075.30394199316,433.8887881780128,369.1349616483988,489.9728259693388,436.49083137285044,496.7628314584394
1079.29942194122,355.56876150663095,334.1135567993714,423.9802981192487,386.69175757838065,407.70458429677285
1083.2889658876,244.59427800708008,215.90480469525957,243.69458233956897,257.643246964965,225.74586637563272
1087.27258471339,32.39811489216989,80.53940302430772,74.43598646102197,121.50703057924633,65.68466707202477
1091.25028929678,3.722832426307768,14.417917831050168,65.52602792981884,35.01766202418126,11.569406777843612
1095.22209051314,107.38896706742148,9.818001338824665,133.5201907127108,4.555252184076156,38.924664077840106
1099.18799923511,117.93862655327858,-0.09900975223141018,93.86356837794565,1.1049109581789907,51.5476542499521
1103.14802633276,80.9611376663416,-19.73955547540672,1.382738209695006,4.777894024952957,15.007673100809857
1107.10218267365,6.405983195082676,-12.678720755907124,1.019494984352093,21.720905272375536,-15.375197750807466
1111.05047912293,-26.510011987803473,13.087777311456733,76.17305257592658,56.91535514767041,2.2776205738760433
1114.99292654349,108.53172722064019,19.077965799885263,142.23552829482628,91.78411899529733,38.24198858275121
1118.92953579604,222.65952937770697,-6.064116669642132,156.20567116430044,105.46119151296772,41.93210980211666
1122.86031773919,171.43235228943456,-27.513736410060407,133.5129935691936,110.7594141583196,26.353644395719762
1126.78528322963,168.08299596330517,19.3032495094003,160.56838286972868,154.11816164868355,81.92083153737079
1130.70444312213,310.5066732148611,174.08623127800269,311.3484151354884,272.0325114278422,272.14364760545476
1134.61780826975,515.7645777810707,393.5762914956882,524.0818084088755,442.1714862612753,527.0961671983827
1138.52538952386,710.1787906039808,567.5364528890718,654.458252809175,581.8511868304398,693.173221926733
1142.4271977343,631.0479709551113,592.278398119528,643.328863262404,607.3042343713454,676.5613507063371
1146.32324374946,434.7337675901132,447.1082587937729,523.067689991246,500.0881218915707,501.8769125392803
1150.21353841636,345.5309487209196,229.22577798207686,352.03605286750803,318.58019339940364,269.4447701987798
1154.09809258082,140.99359314365805,73.44628408395184,218.37055593354353,149.0653012609808,86.5619951823541
1157.97691708748,92.06749079149421,20.001807904319598,162.16449180388537,43.83082046148326,1.5705359924807034
1161.85002277999,175.6492787228919,12.709319496809696,137.21881603326943,0.8912280958799315,-12.66080617585633
1165.71742050103,28.120276416087947,3.8134125715765235,106.53325868319463,-8.072652453243322,-5.0541891279588675
1169.57912109245,-50.33544021287498,-9.113638339327983,54.33136877993829,-5.133780256974468,-0.4714911790465557
1173.4351353954,-33.024609436767335,-16.439190923110814,-3.8663848134209218,1.9238034934077533,0.8330005580298483
1177.28547425036,-34.62416534508686,-14.996483706157122,0.5711148487689854,13.286925225575594,13.269702415943296
1181.13014849732,44.425344376188136,-12.506051117515053,73.62856760334067,30.325368067823398,44.33755174800383
1184.96916897582,30.35298475645289,-8.605892179529874,146.08518019927195,49.973685430881325,77.12038530064271
1188.80254652508,22.849600143211582,17.677530399964887,180.9759920616566,63.71733415754362,88.31837645826901
1192.63029198411,135.93565304747017,63.95342113805451,174.70533086233274,65.55457223722011,73.49339412406619
1196.45241619177,111.11726642834272,93.5059969086539,152.75431187097496,58.297147411843596,57.22611851815747
1200.26892998692,41.362136029665216,87.968576961309,147.45868113469507,45.93163183128613,70.27018544289015
1204.07984420847,59.849374377944606,53.28594327203558,119.73794039863824,26.888861903149586,94.5569709238665
1207.88516969552,-15.469661471207104,8.506133741598617,49.88551595968518,4.517669132230857,82.53032884253487
1211.68491728744,-71.6713202229724,7.176061561416262,42.38635038166602,-5.991046264288649,49.24801502459824
1215.47909782397,45.336547648117076,69.61608703266364,122.82998137329656,6.013463360272073,46.36987383070564
1219.26772214532,88.21603119554572,106.69460331061003,147.81797960750987,31.11345086191559,56.18939129745936
1223.05080109227,-1.0360467517824334,55.61660653107556,85.79841790216645,50.57048389858693,31.810742501118483
1226.82834550628,-13.303196547866943,-4.384500364070316,46.18234793779435,57.1945741026899,-3.0842511784785813
1230.60036622956,0.9068492073033276,-7.497230501240402,43.24770905575924,58.005785363266625,2.4000075607209794
1234.36687410517,-7.863318108356957,-0.537512010958217,42.52585015799007,60.917355557404775,43.70027257032959
1238.12787997717,2.5772671900501334,-0.748097779721018,69.32513200370201,64.97180248046757,86.74336454059365
1241.88339469065,31.142101156692952,44.85798062392041,109.08157604776758,62.71146835455797,120.24552323777908
1245.63342909184,103.21063755331436,114.68872391138794,102.75018419765932,50.761380969577445,140.23342753997252
1249.37799402826,77.07987540088675,118.1789368868996,75.91650734397362,37.88772016697837,131.59273874261777
1253.11710034875,-16.797212052334373,54.934333871792376,74.85860937341238,37.569252410870114,102.12041937114249
1256.85075890361,-10.387914943030008,6.614725373926655,60.06882855562611,49.67292616970525,90.51406342147466
1260.57898054467,21.077394709198153,3.9598871951427768,38.244619278226914,55.78254873802743,107.93721133046179
1264.30177612539,80.73988440954368,11.301456494202636,65.81840262611675,38.53495481670433,110.4706421529209
1268.01915650098,74.92002892190918,-0.21979027281410168,85.89785562281186,5.268117751963423,63.84041145613387
1271.73113252845,-18.06947692987935,-10.13238465456283,42.09719613655944,-13.057644001595843,13.124025045325013
1275.43771506677,19.649783836557145,19.6736893653706,9.086414088106388,6.246281957988803,32.58458187257848
1279.13891497689,37.38145833880929,69.56768138389859,47.67129430530793,50.64704477107799,103.83353463937365
1282.83474312188,-14.391965303347071,65.57265238082736,93.64578104971565,85.36364004608514,123.06016186128214
1286.52521036704,-24.77323864096035,-5.587861498332401,57.81028250737267,89.72395292014724,51.143453011655765
1290.21032757994,-80.82358743693518,-47.0354867395522,2.7092898977077127,73.6055754640177,-22.19980096741405
1293.89010563055,1.07516396588181,3.62941908717373,45.27280923904416,61.62791271964429,-2.901331518125488
1297.56455539135,130.4276236517827,63.726666760962914,93.65594923142362,68.46700448688233,82.30831490765277
1301.23368773736,28.66991350840807,57.37555181397296,45.10251484834269,91.14380563735288,141.4158280877419
1304.89751354631,28.189728910023756,49.101903388033094,23.454811136913865,115.47320927398648,143.70443600624765
1308.55604369869,143.5665219567189,97.51542952370359,77.45418338970376,122.66300972387432,123.91772012631499
1312.20928907783,69.83068106058194,135.20450471432514,95.28270606563203,100.8108042482919,107.44374861165947
1315.85726057005,22.76340755171062,98.67450417408169,73.03426859916293,58.62205918407536,89.33987157399963
1319.49996906467,52.60501149853994,30.215952629037023,56.91426599483705,19.560947314701497,58.54185952445343
1323.13742545418,-1.980493417548491,-4.40549966672736,40.467020678499935,0.51617920753311,16.306851588880633
1326.76964063429,-65.67745382347589,18.069374687828454,58.63205600899053,2.333735676629928,-14.612744810550232
1330.39662550403,-58.988681846127896,81.49390397176973,127.15030707772291,15.48223716444811,-11.100644874827758
1334.01839096585,30.698898676669593,122.97635123582081,158.45820923707683,28.914500928526202,16.944990446709625
1337.63494792569,54.42824905547553,104.80727009983212,101.73317900357097,38.774665962615394,47.7062352091052
1341.24630729309,-17.823992242755796,91.86895565690173,55.38840861611385,47.828562218223475,78.78642877829019
1344.85247998128,-1.965890089422885,130.34789323831546,92.43393929979156,54.32110742078949,103.40557843362862
1348.45347690727,20.90848478193647,140.27432191355365,130.57646314274962,53.1351052359279,101.88915384735655
1352.04930899194,-54.311756094335934,64.4304252713491,124.83660793461247,49.61344809477404,72.61720250717676
1355.63998716011,-25.602603844619374,-15.352009843437855,122.55722059390726,55.96498293202774,32.49146733753
1359.22552234065,46.15175687882332,-9.408593070839228,113.2907625000461,74.50045213794337,3.8401810020949085
1362.80592546659,-27.946485583327167,58.91395430840326,100.83921685344302,96.89149796472341,12.663789486097361
1366.38120747517,43.663025081621996,108.85250849755869,141.36666948560062,114.90307231849393,59.54070808050783
1369.95137930794,141.1945648615371,115.9487906021883,197.8136977053676,127.11541706822987,111.1098544553536
1373.51645191088,23.017466836323226,136.86651190582796,225.2218944352946,142.60280412039597,155.92726033262483
1377.07643623443,106.92738218078948,202.01999617041906,266.1110604031637,174.9494391403851,212.77371645855695
1380.63134323364,271.09550418963147,265.1016016325443,309.8165673604051,225.21961097201313,273.23592356377185
1384.18118386824,274.2491290065044,299.4286225665337,337.5319601455715,274.9941947621809,309.759781247643
1387.72596910269,302.94332217311984,304.0510381986093,359.70705041483757,298.5850302273278,321.6353257113094
1391.26570990633,227.42496461303975,247.6517441585353,306.04774220961485,280.08169039124897,321.5027988136421
1394.8004172534,162.4259502791086,143.7960938537962,207.57665997782786,222.27677872628195,305.4087540383374
1398.33010212321,223.8171892588892,64.40798413408169,176.7051382598982,143.12532849040534,249.05915788410516
1401.85477550016,122.34664455932499,23.490474081252238,131.55216394561347,64.47970546199103,136.44170166079775
1405.37444837383,-21.120117044245575,-12.886138558755615,22.889247596558533,5.59950247046374,12.49961920638654
1408.88913173912,-34.85216299601525,-28.315850833855237,-2.579198473421215,-17.03397030061862,-33.24678663754639
1412.3988365963,-0.9916597796436264,15.536223817824762,99.19490825722188,6.0507898189335805,36.17557969910141
1415.90357395108,145.35521118136612,97.99045241851604,201.05983688585746,71.37426480660581,171.7474497877705
1419.40335481474,238.10826710306097,175.543095774217,246.3719252555872,163.66465191366592,305.6901496854073
1422.89819020419,243.0205334357418,245.5444224168929,327.50152220909536,261.4073831959148,407.93517577825276
1426.38809114204,418.9093630909964,305.56160146712847,434.8958154380291,340.87710334976134,474.89058670020336
1429.87306865673,436.1100212891265,335.7224821604552,435.27030110644677,383.7147232710424,498.9853701422713
1433.35313378259,283.74738482567113,342.31521356725733,393.82716046741746,384.08529918072793,468.60731543197676
1436.82829755992,322.70117110333774,323.56206613727846,407.7914940728573,344.2473407156857,389.22841289692246
1440.29857103509,232.82064377085052,247.2772005679562,359.88089877614846,268.4997984345996,291.64292294379516
1443.76396526062,117.70036559872605,124.5280619471505,239.2321602071405,170.6634816013971,209.20143935732514
1447.22449129526,134.63592425800817,22.947574128032837,164.19035758856813,81.84858751577538,149.94423743564965
1450.68016020407,22.220913499378494,-9.698809415899087,124.47854652057083,36.89773765686586,109.36959526592965
1454.13098305854,19.828861844730884,9.775448165238837,119.55427845882606,45.72460444356858,93.7607168582154
1457.57697093663,22.53601784218657,42.40427084900868,182.7221755379391,80.84361590354709,104.88049265221268
1461.01813492287,-26.450769588821526,80.12877147559732,227.32322121147877,100.01058085104357,118.4346582954959
1464.45448610846,134.90904289011388,100.8465249745961,182.77526417242416,82.2766923742121,97.0968018881519
1467.88603559133,116.43672911983975,56.54816090894938,101.74235298585984,41.386166375210465,37.308814667234834
1471.31279447625,-11.733516909417915,-14.868124493406588,60.67290111838641,8.171932309873679,-8.98828440199447
1474.73477387488,24.728568387697756,-20.174046488453477,75.47848194571053,1.5356375721417894,-3.5296093142179465
1478.15198490587,-16.437218548309097,27.802030381139254,98.3755126377784,14.297992584579706,17.188274174696787
1481.56443869498,17.344056611297006,47.41365433797013,108.67002106694322,26.760031020062897,11.261538460428344
1484.9721463751,70.37580868504966,19.529509436991535,106.33687486935268,30.142029308403693,1.1495770567282477
1488.37511908635,-1.3191453268108422,-20.929822378652993,56.84175971390927,30.129926318458832,11.214842694318119
1491.77336797621,8.801838091566058,-28.29790345357502,1.7007199574920975,30.259610271357296,15.446870066194364
1495.16690419953,-24.01304572426994,22.205331412181877,22.78764196175584,23.79588165913038,-0.7802669703803709
1498.55573891868,-42.29038289707219,86.9904903427808,91.36379145914765,6.159227168670231,-10.89854365902844
1501.93988330358,29.188953781095933,106.96486149245254,122.54721683830711,-11.699554044367758,-8.582663538026122
1505.31934853181,-2.9326125289297345,90.26436654798968,75.69943135928969,-8.216671471092653,-15.068560785696075
1508.69414578869,0.5067270918393056,70.86519953043049,10.141321435175314,28.433164860034633,-19.51266056490296
1512.06428626736,88.18594812580827,65.51175061787784,23.83809286636715,82.45167421564928,7.976465716479126
1515.42978116883,84.72967561746567,80.85004597779015,94.896471989971,116.62040086605576,49.843548089122834
1518.79064170212,16.012834904142835,87.12190313002174,123.43192187730162,103.66325462826507,54.41754560632522
1522.14687908431,-21.908947064524977,46.67841651571158,83.23193444693898,52.82421225756904,15.244630822819751
1525.49850454061,-12.716991468633719,-9.474367580128934,38.37615359743817,5.3307890421614275,-16.704352947472497
1528.84552930444,11.146705272831,-21.106072907420845,42.48893813306429,4.999256978874321,-10.597327434128811
1532.18796461755,14.662232883012567,13.196443294313767,62.512909539916194,64.39922334941383,9.764897334431918
1535.52582173005,25.411814884238403,58.92225938644209,80.96797408225574,148.27226300479168,22.506746347926473
1538.85911190053,86.47729394265585,95.29737619044512,143.5184551591599,196.2105268579397,33.98423744060926
1542.18784639611,103.89011624449964,96.53934583278757,192.67918146677295,174.7368230363324,42.77587511324079
1545.51203649256,-4.675909733615622,47.64867795842592,140.55398247803979,107.67609088222221,35.784749157530136
1548.83169347431,-26.609980923157288,-2.6407662825930167,93.32143141699005,50.43405438799388,15.748958487462572
1552.1468286346,89.50327242304174,-2.3673137193831906,138.02535108475735,36.87808118407649,1.167586070982459
1555.45745327553,68.54141150973643,14.11187543181235,144.0111837391956,57.42236989818175,6.591011934203879
1558.76357870814,-9.788791491436,6.358097879764156,90.8871943458463,85.12644650683315,32.2386857354239
1562.06521625249,5.072785527440005,19.65409820690645,135.540755942621,107.99031380164638,63.625188450859326
1565.36237723772,-30.21880805584327,81.4149750312688,210.54625338273718,131.21630445644786,82.17091590360488
1568.65507300218,-58.86088962807649,129.6649862777196,150.51652377733018,162.31337517153173,90.92520616693865
1571.94331489346,26.181404483175235,139.7491189523976,97.5357067289684,201.23574517379626,110.3979086674602
1575.22711426846,79.92741905701195,164.07846056468298,207.6110315647556,237.76748715955466,133.6682360350584
1578.50648249354,40.54807089903194,192.5436336746247,313.39173913952186,258.90101619891067,135.9317186400748
1581.78143094452,16.44673364820104,160.62938078819812,269.43853471967674,263.15454380650516,127.64166564358344
1585.05197100678,31.014878958214446,107.0340522825926,210.11687953864708,261.32233867678235,136.9955386386201
1588.31811407537,28.83569981356399,122.06896999210615,260.8087521336903,259.871104658303,164.57838320321736
1591.57987155504,2.9984157659409156,177.01379064062303,315.3287233038261,251.40528148947277,193.3507255256947
1594.83725486036,26.825592117664566,187.7667445721375,260.08555562862625,226.11747898576067,207.4384743071875
1598.09027541576,44.408611783908995,164.2570215699343,189.34908780052535,186.8437345364736,199.98989089847475
1601.33894465563,4.942640741850752,149.64332053185834,212.22869841690684,144.68783345167571,179.31330192273748
1604.5832740244,53.7208345737523,118.31382488731413,242.38725109918295,103.42372978196649,140.4687235923231
1607.82327497659,3.9215619658434093,49.1182614878228,162.19106848614672,59.841525703332245,65.3140001242574
1611.05895897692,-168.82823553087783,-10.592117750764402,42.0776134183138,17.67584090773839,-9.45430004327821
1614.29033750034,-136.16039087986434,-27.888170782159705,-0.727698484914427,-7.916599490656608,-5.755578458036354
1617.51742203218,-35.99310254755391,-17.693891583163634,17.959469783674308,1.3821072790611026,83.43097042811118
1620.74022406815,33.502895213655286,18.753429278121764,80.73119108257026,50.993770293846026,179.3614056490846
1623.95875511445,53.05480822044869,78.59974228219977,166.1956220168474,117.93064496243817,218.43170158816798
1627.17302668785,-17.886218812622687,126.70311492564967,164.66879469415642,162.8757313284083,212.97641437736564
1630.38305031575,4.9151572110767265,145.33806375790257,96.49927486995416,167.3711056130735,215.80448324713802
1633.58883753627,37.23805170572889,137.00452579363704,97.19300944483103,148.28446977155528,240.08458449444043
1636.79039989833,46.814240269792805,100.16426579900386,138.76617737172518,133.87397491764327,243.6249747919048
1639.98774896167,39.49884824608593,69.19692279659795,122.92168865465189,136.58810259847982,216.29230340800922
1643.18089629702,-29.653530148536156,79.27692413135779,92.41850160966828,146.3965350410444,209.92317898082854
1646.36985348609,28.611446546190546,78.51245920938244,109.43705075955796,142.23639339114573,232.15574698125755
1649.55463212167,47.018768416033495,19.281913575263598,118.32819419399247,113.08497562724011,217.7155095531222
1652.73524380773,-50.87093263436083,-21.903845727823075,85.99050929448896,71.65353786909955,158.9247243862811
1655.91170015948,-34.559414011130535,24.459735787768608,70.69654466445297,43.21037761468527,133.87793484137464
1659.0840128034,6.2328159622871055,84.7644261875454,93.46159249143776,40.61309715308284,164.98143734420856
1662.2521933774,77.17194347890978,69.86467164864928,121.22590680775559,55.93000367480666,186.89130255673078
1665.4162535308,109.04320385815517,10.989254781931052,121.36343965106545,73.06940880679369,168.9724600982239
1668.57620492447,3.554724356746732,-13.896094845268022,90.41979950405113,80.35267013910453,143.28504027762025
1671.73205923088,12.323342317274756,13.365571205385331,76.66211166266137,74.1302273295301,126.50323996614799
1674.88382813418,14.157652803375944,58.787702566023874,109.6501598373265,58.0070998692877,117.28793788114962
1678.03152333025,-34.17421335328055,80.31086726945169,135.98657708982776,38.17483160129917,124.07424626344249
1681.1751565268,78.00745020065635,54.22612575650612,84.73030912401947,18.289119076838478,131.19115393174906
1684.31473944342,24.81084425872733,9.359091357466935,1.4701880645192773,2.19916967238969,109.58812290209018
1687.45028381168,-77.51393996478012,-4.726546863886821,15.148638734166255,-3.231434719899795,68.29900621265048
1690.58180137517,53.044831459107776,-3.630718848677236,86.9492056266309,2.1223912462291032,30.6195406919808
1693.7093038896,11.22774128973473,-18.371171754709742,70.59698405160142,6.578374208485291,6.2490112820981665
1696.83280312285,-71.56337909261416,-9.957189594753222,12.721628186571273,3.1556628114433316,8.151040979628071
1699.95231085505,33.42589968261187,40.00648983651266,28.199910483743103,2.225969687256825,34.033071255891045
1703.06783887865,34.98096842198846,64.15126791364389,87.6723628082215,16.671446396448584,53.929370154180205
1706.17939899851,-4.561721882514764,31.274564547446282,126.76247260672504,42.4614151677111,56.69122780961883
1709.28700303192,10.888269263176888,14.336906698180869,135.0570970628009,63.87455107105327,68.84881654790692
1712.39066280873,4.790072435616459,66.17340307755398,118.26922432725738,72.68724486910517,104.13305271317151
1715.49039017139,34.974274278303795,116.30974106227741,71.27842688867926,72.88870880052303,125.48841078947501
1718.58619697503,68.75187179781213,74.16901748690572,15.446352182470264,69.80656551510262,87.3696939445513
1721.67809508751,5.996031155443694,-21.93378903467893,-3.717400186157583,63.94208290767891,9.583890069254235
1724.76609638951,-57.64198814877623,-62.02577667404597,12.225081555038493,53.34952686388412,-32.48179891476967
1727.8502127746,-32.53518624674279,-24.573851545010676,40.61337455439776,34.8321604488769,-12.011055904600841
1730.93045614931,-23.83349733533924,20.51141709634431,56.92695796141956,7.744238584365839,12.765360136972959
1734.00683843318,-34.12637812620858,25.0570953860063,27.273996058740487,-15.3020962936803,2.9364954768476537
1737.07937155886,-6.274606491819286,5.333805058600827,1.058194636546446,-9.965492734080442,0.15865414866541272
1740.14806747214,40.090597937409385,-1.4816409569746298,51.34612090059535,34.49864601680857,40.19156059683585
1743.21293813207,43.85949028813939,15.002873026605407,118.15686878321694,95.7258184394404,90.39725816032666
1746.27399551097,23.610678670099485,31.298534292867835,128.44964708245584,136.09625004153332,106.1563976147177
1749.33125159455,43.87584773997603,20.179528139994517,106.23176227027403,138.1978098557556,81.45142029038674
1752.38471838195,-16.232586168994548,-11.76392459563434,65.57967779348357,116.9415072683088,38.06710514961759
1755.43440788582,-60.27322522430611,-19.22083160745315,39.649177554875465,97.99062762707052,9.36151858464046
1758.48033213237,23.596871041008935,18.592264933265362,79.94633030062305,88.05419851028822,16.13710233683319
1761.52250316147,40.865702355162284,45.00808160912684,111.87445709568549,73.47627385580196,36.65032724830811
1764.56093302669,-12.25916757330432,9.36913361794321,67.02691470207674,48.214950678573025,30.653185325814295
1767.59563379537,-34.585718075900715,-34.65406143975087,23.060341981963266,27.113488967855208,2.242561451380662
1770.6266175487,13.30973286251821,-8.429645157141579,38.167511881958504,23.25397806063416,-2.1516993549522496
1773.65389638178,63.38848115905924,64.9180854430379,72.66062110625855,27.095983140362144,24.957061028428434
1776.67748240369,33.44086121324015,89.67262380582244,58.132378719636634,21.177446063871916,30.680732361117645
1779.69738773755,-8.251208665986299,31.705893854835494,2.4120410877090563,7.459236865178479,-3.8554117965650967
1782.71362452058,-44.641885896496774,-30.9927551279666,34.22011680054524,5.426278767261426,-23.55876178736515
1785.72620490421,-1.4220354267206012,-19.85575135209001,137.63274264688474,23.63888735185826,3.0950223441889975
1788.73514105409,68.67934585770004,38.66228672302566,107.77380208062604,47.33202062053873,37.28673457266571
1791.74044515016,-10.084947930653126,73.09566527643652,-0.9875971507881225,57.82538114284229,55.74205891554851
1794.74212938678,-7.894884939617462,61.16870478024145,36.1617203342129,51.49806650584564,78.55375025066044
1797.74020597271,139.91026358132999,22.9401574563353,115.51956130322125,35.27910375718298,91.68847431036043
1800.73468713124,99.69399581025708,-4.4099350871395835,62.072521590926115,15.891231635107546,58.89229267370102
1803.72558510022,-13.223142643562023,7.670233935461713,2.674003925797578,-0.49015914423707496,9.77753704164207
1806.71291213214,43.16696698366987,27.145232755635668,30.00354611057272,-7.361650000514313,5.118884872700264
1809.69668049419,51.666372091926306,7.630061748378463,57.21073238463778,-3.296345995159756,38.811308801143355
1812.67690246833,-24.854879532975794,-12.0109695637926,81.077292696591,4.758829358946532,58.610484016819235
1815.65359035133,-13.270976524028779,17.838374622621927,108.23055263568894,6.745835483962605,41.97474220290058
1818.62675645488,-9.213052699857943,45.19648710665841,68.37317602235771,0.5053471644426732,6.167583010174916
1821.59641310562,-27.58122767417483,11.133758615697804,1.6007664658085687,-2.980807617471271,-14.807635103229845
1824.5625726452,0.20016346356915626,-44.57208952532883,-2.816906223711321,8.529421523002298,-0.14801614291158316
1827.52524743036,1.8312989486142541,-52.09589419819565,31.73151640302067,31.838321254266056,28.267966528985347
1830.48444983299,-8.867284299118072,1.3713443186287044,53.96720066389762,49.669615369820924,36.275104788290854
1833.44019224021,17.04012040578913,68.60496086885212,60.946006169839684,46.38655992754923,35.347181347441676
1836.39248705439,18.787956269773183,93.31124288865831,80.73668410139778,21.01866755045682,56.667304601446
1839.34134669323,-17.310079801438956,65.99074937681635,108.44269176077091,-7.351227219156414,82.06670139209498
1842.28678358987,3.509371297399099,22.617586281147034,85.63114153053489,-9.922184967332178,73.50847643021595
1845.22881019287,27.507576746961462,4.161403482272367,55.43858124545382,23.42080544077282,53.88868613896773
1848.16743896635,-16.63322636640747,22.875235779877308,109.43119753384462,67.04809993577797,64.12060960575778
1851.10268238998,-15.935852640745395,43.74072813944419,154.979947867803,84.57955077054558,72.95417032263202
1854.03455295912,-2.813330831945632,25.310033406193412,100.47199430041147,71.61611822404771,38.363485574014184
1856.9630631848,16.015728786002526,-4.9226239863352,55.22987952340367,57.90091842167547,-2.601239626700247
1859.88822559386,77.48408297758256,12.858209706704928,87.68104756120874,65.11588828442909,-0.3411680030832702
1862.81005272893,38.509080891034806,59.21713204263112,125.01631487415561,80.62999168551262,27.216816636600683
1865.72855714858,-18.46737606172718,55.46170263239627,130.36290899604157,79.09773881970098,36.09444693417841
1868.64375142729,8.639512753641396,-7.115734027314797,111.48787657906506,55.47825847902208,16.39826485328266
1871.55564815559,19.71767577601149,-49.45319533647661,53.85143240014696,27.57288641733466,-7.689583743211928
1874.46425994007,-37.42486219235026,-26.177783661459127,-3.2701800302704243,12.269257041799381,-12.202516300076795
1877.36959940344,-62.98214133740724,12.008531725598914,15.45539380029463,8.097348343563329,-1.7810252405735545
1880.27167918464,48.70802290857829,12.088997567886159,74.01950200349356,3.3227403081020412,5.9407767585448354
1883.17051193883,67.49597208540972,-0.5026150220327281,97.52413289566556,-4.535686210492102,12.62647351497122
1886.06611033752,-13.43973669597019,7.2764257518392075,100.7223648695947,-5.231250095811202,21.266448959294216
1888.95848706855,12.824642674868219,11.556628294805272,90.98888323791657,8.667512971174578,12.125875138248826
1891.84765483623,-12.081498633035606,-1.444395650654938,60.5823458794503,30.391116129205,-14.83477096907544
1894.73362636134,-40.95730080614999,-0.40261135681554183,56.71411974253838,44.86572816616865,-17.61671666773723
1897.61641438122,40.45439145630909,14.801146623707856,81.79374829905287,43.91886106711884,13.20445203710083
1900.49603164981,26.156802974633614,2.0708456377041733,87.64966778144769,35.00902421813722,25.459016954934896
1903.37249093773,-41.86502681736387,-29.84982004991994,95.97105755492962,32.64221593128964,2.4413753426540215
1906.24580503231,3.692514475723737,-21.35601424419971,131.8009642703407,41.192269809985675,-7.2873561433366785
1909.11598673767,25.04294647507942,28.672064686346523,130.2641745149818,52.863173847988904,11.845781336831683
1911.98304887476,-25.753917042613523,58.790322023278094,79.2600897481848,62.27387812849828,26.9734157135544
1914.84700428143,8.82818349671436,47.137273412216096,69.25044064151064,71.98652135424817,36.87826724416037
1917.7078658125,78.09905946056911,24.014042929518624,93.3703127505034,80.70199474422269,60.43570181434282
1920.56564633978,50.90076478884916,12.16160125299549,58.610560095367894,77.43623685954461,71.98088004644507
1923.42035875214,20.11664056752713,13.4143270307618,2.3270533862011646,54.65441057991929,39.35677083679623
1926.2720159556,24.016785624111222,10.55425817319047,15.662343570286545,21.119529783404694,-8.911752681950212
1929.12063087335,-28.27503502194647,-14.830062846077986,52.15506568973522,-3.560792116687189,-22.476508140215063
1931.96621644581,-47.50620682449059,-38.376760931102766,49.78646775392683,-4.6374691487107,-1.2655742229392608
1934.80878563067,-7.22677070866937,-22.29569509343274,35.022271781315226,18.156847347227735,15.402208550740067
1937.64835140301,-9.465887287966751,20.339998469788704,33.30465170315867,53.549707521019485,8.373350154038825
1940.48492675528,20.900579093553763,50.05843777503405,68.31922130367978,89.33295934659304,-1.3102129685105979
1943.3185246974,97.61026167765422,56.107276263323925,108.29396108743698,118.28398961640792,11.60792768550968
1946.14915825678,114.02746532746744,59.153328744868546,72.80320012150989,133.6811596917501,45.87898553424522
1948.97684047843,103.88330534370627,79.5008542329051,26.28202812857574,124.84448526597595,83.91327132213311
1951.80158442494,80.376764812446,95.62648813058007,52.33422920469655,86.3142497508567,102.49657914207958
1954.62340317661,-4.599402456405578,61.38952206282451,65.4253188866106,34.80061563194895,80.83034610171752
1957.44230983144,-45.58646327428479,-2.9787505573233446,31.13057155491083,5.400429999285802,30.634168089617177
1960.25831750522,29.11777691951606,-21.738086997558035,38.01686870482189,17.379811324994087,-7.35135400375183
1963.07143933158,96.86333259164746,8.992316988914764,70.01217334067138,49.954745502622465,-13.561610354360909
1965.88168846202,75.67038174857291,24.179181737323766,40.66473656626156,64.49923765577296,-2.878456647287482
1968.689078066,22.743996104995315,7.382941953968626,-0.4380482701196655,43.55616426056976,6.066809178313401
1971.49362133094,-7.412353211369421,-12.30615635839287,30.836217964519165,-1.2211457970752413,8.551611285832186
