Wavelength,HS_AAB_P2_750_5_5_H_S1_I1,HS_AAB_P2_750_5_5_H_S1_I2,HS_AAB_P2_750_5_5_H_S1_I3,HS_AAB_P2_750_5_5_H_S1_I4,HS_AAB_P2_750_5_5_H_S1_I5
341.5534792,-37.2105107,-6.233696598,-37.30937703,1.874552637,19.96592335
346.659906,9.669867596,77.96041321,13.61286132,39.73733454,-49.43063254
351.7585072,10.65520952,76.8278094,67.22805916,50.1146451,37.51282347
356.8492959,-1.032750413,25.97914489,43.8337606,43.77944664,56.02928918
361.932285,40.05163792,-0.287144964,-18.3974425,22.55103971,33.77964666
367.0074876,11.01762038,-48.39768164,-24.27412558,-15.34218877,141.5979863
372.0749167,12.37583986,7.691616468,2.354390789,-14.04636517,-109.5178147
377.1345851,-95.03715081,83.93088088,21.91632828,56.00514535,-58.66772245
382.1865058,52.3632015,22.83981674,25.57819521,92.24814227,164.6617496
387.2306918,3.43555119,-2.176019384,8.170102355,22.11407836,62.85742813
392.2671558,-12.04450639,-6.713790573,-0.164669067,-39.83397103,107.5814947
397.2959107,41.31385973,23.16403215,65.26114273,10.03054666,-14.43104887
402.3169694,244.0026123,97.61720576,160.1176617,86.66607186,200.0408579
407.3303446,191.35902,57.18674838,118.1996991,85.55487341,179.7944583
412.3360492,-7.129593979,1.159511108,-3.115675044,38.66794941,-19.45549223
417.3340958,-2.378923811,-1.040480933,-32.26038684,12.35522689,32.5143522
422.3244971,9.988790628,15.89343351,-2.210360285,3.664049268,-2.808647731
427.307266,113.2372056,2.219992199,6.63735403,-4.485442528,136.0274122
432.2824151,-19.1362145,-54.08346029,-11.31286458,13.13771148,64.80471068
437.2499569,88.10522692,73.72407576,19.94536901,55.85937556,34.67278651
442.2099043,132.3930849,187.3496013,44.47948695,56.14164275,150.0581657
447.1622697,26.77702986,20.29701347,-55.44649104,0.051564789,-56.24047204
452.1070657,-170.4647121,-12.66966337,-100.9141052,-12.71126501,-143.4063628
457.044305,123.5275183,121.6965998,-22.08879484,76.87775052,54.98063319
461.9740001,-3.172470569,114.7485947,29.75266737,181.1336783,-38.8590802
466.8961635,120.0212789,134.9732485,49.73802012,190.1319344,121.8138042
471.8108076,54.19173868,127.5474985,24.4711721,130.3982174,57.34662331
476.717945,67.2284599,12.97655339,-2.785843222,125.9774107,96.49187446
481.6175882,141.9856566,144.7754273,102.1963669,213.5767037,11.64436159
486.5097495,338.447881,262.243828,185.0213368,289.0718089,205.2229402
491.3944414,55.76156967,124.0130411,100.7301363,266.0712951,53.76968087
496.2716763,67.22666092,80.7448111,46.45775891,181.3420924,49.37854835
501.1414665,-12.66353501,25.32046845,45.87873222,107.1124698,24.03391699
506.0038244,-35.55698946,27.51028315,3.104862587,54.0561978,-11.26235127
510.8587623,177.8643074,100.6794802,-3.646071394,5.282687602,44.84603558
515.7062925,-74.13098514,-52.21098668,-46.68893908,-16.39667304,-146.9574056
520.5464274,121.7363395,-21.07852742,-77.08180018,12.2242385,17.28430227
525.3791792,35.94948937,144.6901226,29.41705737,47.11977781,-87.55022064
530.2045601,22.11918024,14.77255119,32.25769058,46.51441709,67.91405557
535.0225824,-54.38456672,-13.10485311,-35.03275533,51.38656027,-12.86873432
539.8332583,119.5802549,154.5607353,33.64485734,86.05418593,165.3344705
544.6366,196.1703131,138.7758021,49.48126161,83.87198513,45.20357957
549.4326196,7.934000865,13.14111231,13.01752644,17.69745343,15.0382093
554.2213293,-1.681049479,-20.73368236,9.919742729,-31.94686152,33.71764781
559.0027413,-50.87096559,0.839885093,-62.55908547,-15.40561642,-62.57771609
563.7768676,-42.08764251,7.110415612,-58.97081401,12.98882488,23.42283245
568.5437204,47.69958463,38.19183933,14.00539663,2.839234307,98.43565984
573.3033118,35.77845482,-3.222283245,-21.27147008,-12.55551609,-44.21310342
578.0556537,15.93833393,-68.74340057,27.38403183,7.914211759,-71.99053685
582.8007583,188.368086,42.32685878,147.4171785,29.5031185,150.7211074
587.5386375,100.5374751,42.8019814,79.98151909,15.61106873,44.38613127
592.2693034,-18.11228936,-48.59251129,21.40994917,2.633403188,-7.963628445
596.9927679,130.3082769,46.85598683,114.3960629,14.99411384,46.49138467
601.7090431,88.75342449,60.9436676,110.7165156,24.89399785,20.8441832
606.4181409,150.1965909,1.980973661,19.23966392,19.1478885,31.47791817
611.1200732,20.63143096,43.72466241,11.86241524,-2.229808351,12.03436668
615.814852,23.91436724,10.68483575,7.60607547,-35.14155125,-5.375269884
620.5024891,-7.454841421,-101.2080509,-48.09461211,-38.44666983,-40.51409871
625.1829965,116.1082079,-100.4767552,-8.362259927,16.02260081,17.28698458
629.8563859,4.227724883,32.86541262,127.3518954,81.64224089,-51.18239949
634.5226693,165.2144842,36.46184354,136.9442786,105.6122189,-10.2609458
639.1818586,-30.07387505,38.25126659,89.43925083,112.2579574,54.52116263
643.8339654,314.5293293,182.2594325,176.0313433,142.8219566,231.3869148
648.4790017,241.3314125,91.7492221,200.4349738,168.9682644,175.2540841
653.1169792,100.1282035,1.188977147,120.4585846,136.8277901,-69.24307875
657.7479097,160.5268521,76.31353976,135.9300161,53.08121358,113.8585355
662.3718049,6.682488911,72.66740075,143.736667,-12.98926469,15.68032189
666.9886767,222.7403895,46.38255558,31.79164466,-8.78119492,107.8886298
671.5985366,-36.0536837,-23.6182251,-35.17992105,34.1898311,13.78771003
676.2013965,86.55718576,-8.295766228,49.30979306,51.30585792,32.67450302
680.7972681,105.7765805,15.40993179,97.51675487,35.73971981,36.74960496
685.386163,61.62211663,-21.38928391,26.04707573,17.52561515,21.1671375
689.9680928,-40.40452437,72.64588411,-0.937904741,3.541002234,-41.98318228
694.5430693,-9.00758335,89.53251016,-27.60162258,-7.356177032,-58.49721891
699.1111041,-41.56996369,-20.14498751,-69.30535652,-4.36816023,-21.59983965
703.6722088,22.68502136,6.621880146,16.73489731,9.677804878,56.14346957
708.226395,114.9156949,176.5024959,125.8402394,24.05886199,-3.830405938
712.7736744,-0.14007903,155.4840494,144.4182822,46.94882558,118.5938377
717.3140584,93.01498617,28.03542848,107.6033343,72.47975573,141.0699971
721.8475588,56.33643945,73.09045172,35.00955463,59.42182198,-90.21803778
726.3741869,-61.9955224,16.90724497,-25.21922083,2.470116951,23.83188861
730.8939545,53.95363822,-36.00951906,-25.10660755,-23.51334562,45.65777805
735.406873,16.92101752,98.22692318,42.37629324,42.10037887,-7.709453275
739.9129539,120.0590259,134.8963207,114.2118611,137.5029471,57.84560804
744.4122087,63.22406616,146.3300976,129.561958,142.4934141,54.0942009
748.9046489,18.45006065,133.5377892,50.81858103,49.8563213,51.9071084
753.3902861,-19.12476422,0.203770173,-58.84142109,-18.10729344,-27.89069176
757.8691316,-97.47304421,18.500495,7.908134067,9.897395817,-134.4635351
762.341197,85.94442105,19.20532383,87.42043381,65.59589919,156.2803108
766.8064936,-52.24100538,-40.81924907,1.629838688,85.66877253,-22.32156168
771.265033,172.360947,125.659517,41.67363849,108.7671756,179.4375084
775.7168264,56.01052971,199.6803587,141.9987295,156.6220931,115.6647355
780.1618854,0.788494457,100.8598755,70.81140803,162.4348909,70.16640997
784.6002213,30.59513588,13.78687985,-8.675966901,87.25931965,30.874945
789.0318455,-94.13305824,-47.70117252,-46.36045847,4.487969939,-100.2514596
793.4567694,-1.640207053,-25.87410754,-62.80787976,11.0793931,71.22488022
797.8750043,-10.34001962,2.404436892,3.855545757,102.731859,-97.39615276
802.2865616,27.39194456,10.77861843,51.87800482,187.3425056,86.54587097
806.6914527,49.86217304,35.98645028,17.79889567,205.2592553,67.54506637
811.0896888,63.44386605,41.74307635,-9.386994326,180.7423552,28.63273306
815.4812812,-84.81006103,-34.57049425,-16.57047458,159.4468881,-66.70664087
819.8662414,21.7607471,-6.932964786,-22.83011306,158.3112048,-25.50747557
824.2445805,108.3959583,79.48093229,25.10190152,177.9400123,63.71247745
828.6163098,110.6164392,18.18291896,110.0814702,210.6643069,28.43787549
832.9814407,258.3289028,32.85240809,106.9493988,236.9584047,109.0926075
837.3399844,52.22898623,44.45727384,41.76161294,236.086272,74.10542231
841.6919522,-16.93069332,30.28399897,49.47802741,198.5591602,146.7871712
846.0373552,48.74142414,-14.26597407,40.007999,136.9186858,110.023233
850.3762048,-11.02826528,-93.66179064,-6.762276012,74.34828438,-40.26957488
854.7085122,-62.06155634,19.57000624,14.1618806,15.84553683,-41.96691958
859.0342885,-10.24953694,-33.50805274,-47.91299458,-26.48180166,-7.193288023
863.353545,-76.83099046,-86.55373079,-133.4345863,-8.127769425,-103.2687226
867.6662929,49.43427859,38.56465008,10.31471586,73.60980298,2.514610252
871.9725434,189.3226886,41.48618578,182.2544523,149.6059403,98.87710286
876.2723076,160.7547843,149.6644045,168.8139685,197.9730641,126.1089508
880.5655967,287.6375977,181.2954779,159.3372922,282.2711035,71.65350173
884.852422,270.8838801,221.3494846,296.9661822,402.2403138,245.4832944
889.1327944,313.43873,340.6209205,422.5118962,440.0330021,391.2855997
893.4067253,232.5424313,160.8392778,299.8121146,337.9730627,107.5450811
897.6742257,27.85092968,9.441129417,46.61498662,200.8643397,54.56335132
901.9353067,167.6514612,-2.872453322,32.11698863,131.4259814,0.845891027
906.1899795,167.5840085,70.25241059,144.4485482,93.93480181,62.10607239
910.4382551,19.07269693,111.9402189,48.88754881,34.28664938,-19.43455645
914.6801448,-31.94160504,8.485087216,-50.65623813,-6.224744399,-106.0130033
918.9156596,-5.072907197,73.70747248,4.96281191,4.502761828,130.0114511
923.1448105,30.35556863,87.44524297,-9.891841095,18.04328431,-13.51519831
927.3676087,-34.09313968,5.702526963,-48.984225,18.93490408,7.866290595
931.5840652,115.5808936,16.33511485,13.31254081,49.2768178,43.16012362
935.7941911,-39.67900911,0.302804975,64.2389997,80.83231683,15.32795002
939.9979975,65.65656511,25.11144882,54.91360018,45.93489897,58.88541942
944.1954954,-7.076696616,-17.90560237,-2.994649337,-10.32247247,-73.54804606
948.3866958,34.78043421,-10.93398938,-29.04828495,1.656548205,-33.95626865
952.5716099,18.34727667,68.61771326,52.02936645,51.42252364,92.56441436
956.7502486,-19.9806568,17.45169236,122.4108007,62.86216218,21.02700737
960.9226229,61.72427022,18.81947863,88.79252668,44.73515046,56.1160539
965.088744,-43.21219473,-37.03637708,-21.04737106,21.34112189,3.320006327
969.2486227,-67.19854922,-54.03646087,-76.29683052,-18.95909122,-38.79535047
973.4022701,85.53500306,72.95532934,4.037369521,-49.98194686,123.1595149
977.5496973,36.2621472,14.69267993,69.43206995,-30.58670607,93.68789139
981.6909151,-7.745622248,1.721399631,50.2362921,9.455524857,-22.74432788
985.8259346,113.1878402,59.19769876,12.45240437,20.92425943,68.71920176
989.9547668,-10.01071069,-27.61961408,-8.149954851,17.42554755,-41.3033111
994.0774227,-11.21936722,45.31400352,-1.036486194,18.52400789,-95.80059063
998.1939132,137.0606739,118.6168575,-37.38339118,3.407716326,31.36572371
1002.304249,-46.00035138,-15.02339148,-73.51350816,-0.396377091,-122.566289
1006.408442,-29.26273334,14.44533729,-7.937261258,69.68410371,-16.04798925
1010.506502,108.2470266,143.1380652,52.09470469,160.5677229,70.75228087
1014.598441,102.3111752,80.60993721,21.92105162,160.7631917,72.65911513
1018.684269,41.29770812,27.01479355,-22.43503437,93.38679814,-43.18311168
1022.763997,29.66204841,115.9538003,-11.59683613,67.31233727,60.84577098
1026.837637,111.649994,143.6764115,47.47483439,108.7264621,61.83135562
1030.905199,48.84472191,168.5686661,90.35094939,163.3897316,24.7326249
1034.966694,100.9685313,228.36582,53.84403388,183.4077713,109.9026503
1039.022133,-21.10175626,132.5953107,9.629905916,160.3151184,49.94625703
1043.071527,55.38723456,65.6799175,53.65445251,116.7515013,8.099160284
1047.114887,24.33960316,89.46469539,45.66005205,71.35359265,17.77616344
1051.152224,-68.74718029,-13.05521194,-73.79039325,18.18327553,-52.42396809
1055.183549,-97.47289735,-57.15921846,-86.46849347,-29.73685981,-108.7355415
1059.208872,26.6220425,24.38339191,12.34925222,4.98785337,2.837345062
1063.228205,63.38172375,118.3259864,114.2882802,202.6669475,193.9079338
1067.241558,415.9231596,456.8080769,350.0122611,513.8285405,460.4975543
1071.248943,779.816499,764.4949039,636.6419259,757.9024744,812.3628582
1075.250369,694.0368827,711.1398041,691.4567408,806.3331852,739.9991677
1079.245849,646.9487448,618.6423357,570.2516349,689.5515996,658.3342523
1083.235393,490.6890242,408.1513842,445.0348361,490.748811,466.7319676
1087.219012,241.103543,123.8056996,302.9984846,261.7444132,175.7260851
1091.196717,-49.59462527,37.83653338,107.9341279,67.49540157,20.68588431
1095.168518,-58.39400629,-11.43587855,-35.6970844,-17.97064981,-97.15672496
1099.134427,42.62324173,-11.24063006,-21.21116387,13.07326449,51.97652013
1103.094454,28.42334925,43.01856327,41.6137985,84.11415043,4.078899842
1107.04861,42.65974697,57.57741187,42.80823663,100.2874932,50.85720618
1110.996907,31.2368453,-3.010662181,-6.687448704,46.09179078,-40.33922552
1114.939354,-52.1449233,-24.53666094,-48.37012487,-2.626499087,23.5843988
1118.875963,142.7972596,140.0827609,23.55158021,11.51451309,21.75225964
1122.806745,243.0253195,223.628557,131.5825825,88.65999721,120.3441599
1126.731711,298.6519726,323.8879141,224.5015597,262.4395742,251.1560884
1130.650871,670.3254769,638.6410214,501.0471853,583.0368234,500.2326615
1134.564236,1000.508199,977.0990998,874.3094767,965.8651092,923.8983718
1138.471817,1221.463178,1256.844528,1061.198844,1193.895153,1130.414214
1142.373625,1212.873204,1249.050204,1042.734762,1134.997329,1171.511783
1146.269671,893.5459956,971.4666693,829.3456822,876.1981675,899.0510123
1150.159966,574.8543109,669.3332602,516.9612173,594.8114767,582.1304579
1154.04452,449.6814429,406.0637884,328.4463833,377.152154,333.5042933
1157.923344,315.758906,221.6255053,199.5207227,219.0678451,211.0891301
1161.79645,186.9769682,142.3543622,46.7459137,108.9470695,-36.86506631
1165.663848,113.6944417,90.17574811,-4.616053837,38.82912801,47.52274605
1169.525549,28.53995056,-24.6852779,16.11290325,-2.887869683,-16.77432007
1173.381563,-12.03155977,-15.81320923,-14.74578987,-15.09240027,-71.97000993
1177.231902,-49.07369969,9.214896097,-67.87422651,13.46113998,-13.87578413
1181.076576,129.653926,9.277616642,3.765551382,86.887871,5.303901111
1184.915596,311.7883327,210.6394937,169.9555173,183.1267513,176.6620178
1188.748974,265.5276747,311.4963274,234.4019477,251.4988689,164.7018288
1192.576719,211.0356839,200.7732928,200.9975635,256.1313934,132.5183891
1196.398844,213.2207191,108.5634777,136.3748287,211.353668,18.2335564
1200.215357,159.8986833,110.085564,101.8998647,147.8714722,62.0294831
1204.026272,104.5641908,98.96717054,119.2995672,81.60972043,70.12988174
1207.831597,49.60755618,2.201699498,47.24396022,42.47419335,10.52059011
1211.631345,-45.61067128,-17.01214808,7.406690113,60.97044985,-61.19462825
1215.425525,-1.73137134,10.96442509,78.51277317,91.15254658,18.30148911
1219.21415,66.19170328,2.400352021,19.02909757,53.34639898,59.33205582
1222.997229,-66.13364675,30.74338857,-54.03939987,-15.90646032,-118.0203832
1226.774773,45.4347938,17.07622078,2.412239345,4.907503932,-2.629872867
1230.546794,47.37180843,0.625450506,91.97001823,115.9303866,27.90572462
1234.313302,101.2690186,107.3754617,224.3111313,171.6654217,139.1204656
1238.074307,96.95627624,80.28424965,199.8686118,103.5818019,140.1039633
1241.829822,-138.0251437,-37.70934005,38.22399464,20.66338832,-137.0292273
1245.579857,65.45964274,72.03395267,99.02979808,19.53127488,107.134647
1249.324421,10.78420579,135.6629595,137.5677621,41.35679107,74.26648513
1253.063528,-24.96012506,32.11605246,-50.11747143,11.01866232,58.39920728
1256.797186,-39.61399188,8.634973803,-58.81839513,-28.78855451,4.589777194
1260.525408,53.55387057,-7.503830849,67.1222614,-13.80129801,28.9849521
1264.248204,28.41039274,9.291792168,48.64559612,35.85518954,66.94143879
1267.965584,66.61704882,102.9577021,31.13214125,60.79256543,14.56353802
1271.67756,-7.918283144,-8.23025671,15.18142557,39.94428092,-129.5744136
1275.384142,-42.66175958,-71.59904331,-27.92964848,7.458498368,-95.62874971
1279.085342,-2.742678253,91.94592705,47.66664896,3.617787462,65.55843792
1282.781171,112.9350374,84.17973453,99.75159086,13.65979016,70.04048821
1286.471638,-96.33132198,28.49265272,12.02114237,-0.239123919,16.23988783
1290.156755,5.322140985,-10.49277187,-10.81185375,-24.38628306,-100.8800486
1293.836533,-55.82061949,3.570013436,91.45668449,-22.52540595,-37.96614343
1297.510983,66.45185629,117.2112672,68.96777328,1.00772315,21.00505423
1301.180115,16.73479997,20.87732912,-82.67424484,37.67408054,13.33927034
1304.843941,87.91392376,37.82848599,0.676458402,93.94334446,53.65157842
1308.502471,245.0345558,202.6536026,209.1174151,127.0858794,177.8237227
1312.155716,37.56006992,104.6618874,143.9654493,87.77442325,36.61954835
1315.803688,59.25479493,-53.43347794,-3.418818275,23.36005092,-22.5762233
1319.446396,-40.68659275,-49.4316578,4.929062609,2.459130912,-43.71180001
1323.083853,111.0302053,14.18518864,24.87619549,7.924848553,24.38409532
1326.716068,-15.31966815,34.45098817,7.420986212,5.845942361,-30.4920535
1330.343053,102.1123268,46.20456114,-3.80730562,2.454321697,34.42848825
1333.964818,6.078548692,-18.07676224,3.360056858,-4.921760084,-33.5801544
1337.581375,-25.27082666,-36.11279183,13.01836891,-9.449799109,-14.52044785
1341.192735,-85.71825041,27.77509609,-12.97397941,37.35909844,48.55112646
1344.798907,66.71772765,7.988059495,-5.947259477,124.4080073,123.657125
1348.399904,104.3890026,59.81823801,27.22167113,140.0089519,0.426967711
1351.995736,-0.648404964,47.12539667,13.15330319,44.76726254,26.9786873
1355.586415,-17.16655181,-64.81419347,-4.871797429,-32.34301556,-12.85487112
1359.17195,17.90491399,-61.34008604,-14.1817686,17.90181053,36.73206829
1362.752353,120.3477168,29.82956043,67.87775159,117.1821268,160.4626135
1366.327635,56.33052452,118.4799409,189.5254227,124.8398633,99.07370984
1369.897807,35.18889791,37.88823652,91.05836786,47.18471072,15.8343411
1373.462879,-30.41816123,16.11649451,1.051755405,19.7828873,-72.50313358
1377.022864,163.0517258,164.6689412,150.1427282,121.4923305,208.0954396
1380.577771,309.4094746,222.365494,278.413321,303.6323692,365.3191885
1384.127611,516.013133,328.2173671,418.3678809,474.318999,563.3844652
1387.672397,685.4275501,528.7617705,600.1448351,558.4737326,540.2977733
1391.212137,432.3016718,500.5036563,548.3806478,519.7974014,532.718911
1394.746845,399.4617077,302.5445414,378.7283824,396.9523087,383.6039316
1398.27653,290.1463138,206.0464434,277.1098019,271.3689328,300.3114867
1401.801203,155.1371586,97.44034794,145.2487158,169.8984046,216.013746
1405.320876,34.57646856,31.12253621,18.39860813,64.99024351,20.77032393
1408.835559,11.37796637,-2.219550579,-43.77346534,-15.87700781,-53.69246051
1412.345264,-144.3235201,-55.33971408,2.135552633,11.27619688,-9.146600134
1415.850001,168.7099569,191.126705,228.4291595,152.3896547,268.9993722
1419.349782,369.733448,454.5878916,411.6868032,336.2323034,433.4325955
1422.844618,425.5494333,569.0926308,497.1304552,548.2483462,438.8443162
1426.334519,739.0724777,805.8118396,746.366853,784.180338,766.3877856
1429.819496,882.8339787,925.8591409,945.6753787,923.4257815,778.8454581
1433.299561,676.927764,867.6499817,812.7096121,852.607097,688.9285988
1436.774725,446.1898444,676.9193433,588.0027568,647.1257405,458.6083335
1440.244998,347.7338497,437.6365103,466.6495186,473.7331464,308.0627338
1443.710393,245.0429482,383.6583969,370.0773938,389.3390594,191.3395873
1447.170919,40.12559556,321.9322566,256.4410922,338.9327857,111.9978171
1450.626588,44.6189048,301.2673772,209.957861,278.0721106,56.24476053
1454.07741,111.3395548,292.4671542,187.7284642,219.6895709,7.543842759
1457.523398,33.68498253,155.505635,114.923015,199.0223132,34.02265124
1460.964562,-8.633815271,204.3194063,127.1971437,215.0934041,38.40927995
1464.400914,131.9157021,166.0070876,148.5519989,209.9832368,203.7448986
1467.832463,-45.05604017,6.319721451,52.8916901,154.6042726,-56.04907582
1471.259222,95.68602354,94.58989044,26.18208105,110.1712555,31.72196437
1474.681201,22.52489313,114.7700437,96.29204967,126.0979808,-63.70898933
1478.098412,88.06309809,38.04766778,156.5952733,152.087305,108.0391101
1481.510866,53.01597023,77.0857787,147.8249535,118.6326458,61.46989072
1484.918574,19.62058506,15.4376618,-4.696649559,39.55474751,30.25101873
1488.321546,-94.46024845,-87.51933619,-112.4730791,-15.50706793,-153.2886915
1491.719795,-14.21487509,17.3055693,-14.97819692,-17.99798429,12.90870886
1495.113332,148.703421,17.33392528,50.77138006,-0.963051073,65.10233135
1498.502166,3.671539027,-60.42361673,1.58549268,6.89250318,-39.78314318
1501.886311,107.0801613,45.58266041,-18.17539068,17.50677458,120.8035677
1505.265776,93.05176354,39.03058462,-4.248923707,47.86861496,27.09306751
1508.640573,238.162157,55.93313416,85.42003185,76.27412081,203.7113162
1512.010714,30.44510712,127.7400297,147.0456952,63.69479533,163.0665984
1515.376209,170.5704467,5.16900895,41.40925596,20.88858538,151.855907
1518.737069,3.561446911,14.04160808,24.96754372,-4.837585678,36.50981988
1522.093306,179.0269934,95.76760606,51.5384496,-10.67135651,129.7559327
1525.444932,-62.00370309,-18.40300437,-85.06161094,-20.94769184,-89.55837796
1528.791957,3.154733348,-45.24296804,-72.89865095,-20.98273746,-3.839280513
1532.134392,154.8505108,18.73757817,50.38481184,5.151950856,26.76850069
1535.472249,-19.47163372,4.293936071,-9.002240657,24.76669031,-16.03150217
1538.805539,18.28457107,63.12110506,-48.96005794,12.02640149,6.002460744
1542.134274,36.08434785,64.9212936,23.65464191,-0.873628473,26.85459076
1545.458464,6.374742561,-29.98579528,50.51801064,17.95205834,13.69894475
1548.778121,-4.164211422,-13.03719798,24.57789984,37.7709034,3.458705434
1552.093256,83.31635026,0.236427758,30.45300901,18.61398062,33.4886543
1555.403881,-41.27594304,-4.552579801,38.35211067,-14.10695294,-27.68328858
1558.710006,-41.53585457,13.92089604,-31.21875563,-5.78201173,-40.57938449
1562.011644,-21.05458201,39.86749626,-32.59662096,56.81365427,-108.8379582
1565.308805,28.37927242,83.22153209,116.9121454,149.1128516,-34.91067801
1568.6015,15.86512659,134.5778809,261.7201316,240.9406707,68.60240544
1571.889742,61.11047616,179.7660718,297.4278127,309.9429245,148.2784009
1575.173542,143.7307924,113.4113985,270.8637846,357.3618552,66.08070415
1578.45291,104.7434604,168.4453212,325.4835006,387.9497579,61.72095555
1581.727858,243.9884705,255.7264581,352.1583655,372.887274,181.0003595
1584.998398,9.033045279,128.5245519,250.5348051,305.5892508,-3.808978449
1588.264541,16.03000312,145.3565566,253.3878602,247.0339742,38.06212519
1591.526299,94.05764385,198.2009838,286.877111,233.5958654,12.58009635
1594.783682,37.39482232,121.3556089,210.8573702,234.1552851,-59.23327763
1598.036703,20.4170608,66.21679664,210.9881456,230.5772965,62.83557398
1601.285372,56.50066456,13.03301728,226.4587371,223.6003863,48.77911943
1604.529701,23.95703463,41.8037492,141.2415138,182.1196655,75.55565002
1607.769702,-45.82730455,37.85273859,81.32595405,88.35006172,17.46096486
1611.005386,-27.75077037,-51.19704467,14.81692209,-8.319934055,-83.88094673
1614.236765,-80.5879655,-74.16982883,-81.19806131,-43.45113895,-131.2158359
1617.463849,-115.0831935,-39.59855857,-26.24777476,-11.70769957,-156.0976966
1620.686651,-12.96344588,45.31866702,76.25570734,39.54208927,14.08232586
1623.905183,-21.35002476,36.40413452,27.31876669,70.8092552,18.37381226
1627.119454,-1.71408988,-26.68682011,25.23795766,72.8650675,24.20213329
1630.329478,64.91213043,86.81625235,102.682968,47.67026185,164.4896483
1633.535265,56.1106813,79.76070896,20.37210487,18.93910445,0.434395484
1636.736827,-55.14088848,5.491586482,-42.04941923,24.32205658,48.26256349
1639.934176,68.00057689,200.0755566,77.01949243,59.71352541,167.5687491
1643.127324,88.67003389,190.9432808,89.29986128,92.89115961,129.4787437
1646.316281,-11.96160926,98.46304498,17.08183238,111.1507909,-3.170120657
1649.50106,118.3572448,223.1560716,71.32645251,95.98743345,50.50070654
1652.681671,-14.06402712,86.75543947,42.47830718,41.16868206,24.44299233
1655.858128,20.85128626,-0.576443649,-63.36563783,7.945606893,31.07775383
1659.03044,39.39445227,186.6862422,37.14427593,33.61329329,91.18055186
1662.198621,111.1487185,227.4675544,139.9282044,50.09526421,110.3272237
1665.362681,11.85470365,124.5378922,46.12910883,14.91792488,27.39142347
1668.522632,1.736248753,85.61482015,33.92433025,-8.673356454,-30.53126351
1671.678487,122.968763,141.785566,85.83186871,12.66643147,159.9881598
1674.830256,40.48532626,32.43445157,-2.51618142,23.20005284,-15.69121352
1677.977951,4.056796509,-33.68703462,-29.12046298,-2.970395133,-91.87472854
1681.121584,112.4831985,35.02879488,5.296689058,-20.66993036,122.7467006
1684.261167,-96.27698316,-32.11910702,-39.97262391,0.460083079,-27.94112562
1687.396711,86.49281031,61.98058704,-2.041368612,36.92369212,49.05222872
1690.528229,99.12897693,105.6158694,26.51556263,44.23763142,67.33574446
1693.655731,-102.3713196,-32.68124835,-47.12583889,5.08438541,-85.92954417
1696.779231,33.40252091,3.326987043,-14.68495837,-32.38962228,-19.1340672
1699.898738,-33.29159861,37.31222304,74.26231324,3.137974008,60.58293845
1703.014266,68.54377256,63.45119199,89.14961743,97.31354334,40.28915436
1706.125826,92.44072549,112.2462192,50.81120225,150.2165259,-0.629120555
1709.23343,32.17349896,37.56488107,-2.247016306,119.0879067,-47.00605028
1712.33709,47.96834589,-28.23453898,30.01776092,77.81021526,65.01699205
1715.436818,12.50712295,31.61924309,98.97743325,96.12467988,-0.542525713
1718.532624,98.21489446,59.62094222,77.05321471,131.2451653,119.504916
1721.624522,22.0330778,5.423598772,11.49140048,96.18145157,-9.850459231
1724.712524,-47.84023496,-27.33896488,-77.20839534,4.30737165,-50.43491153
1727.79664,-101.2008607,-46.59756699,-94.66318186,-39.86812852,-24.33078665
1730.876884,27.39981314,69.02969071,28.21660226,-6.062411575,32.97912079
1733.953266,123.9397133,105.378207,41.31815619,24.24310549,97.89851311
1737.025799,39.20561504,-44.29970172,-27.84510232,20.75823793,-47.72477972
1740.094495,138.8361831,28.43777034,29.94111238,51.36237799,122.4023817
1743.159366,119.6058059,121.9111102,50.55217124,124.3762286,48.68205975
1746.220423,17.38174995,61.57958157,5.542810941,157.3209937,103.1028408
1749.277679,140.5226094,39.6136366,7.705283278,127.1335182,-19.91257555
1752.331146,47.72750945,1.456872135,-1.933938924,92.98597345,39.77796439
1755.380835,-58.40404474,44.39965016,2.163392833,77.11698019,-37.33356222
1758.42676,61.13161299,79.73953358,39.5988953,47.55624833,43.5885378
1761.468931,12.9088627,-10.54794784,32.65512575,-0.121828288,-54.62078199
1764.50736,-82.24869702,-33.11014118,-38.06363086,-24.34872779,49.94874994
1767.542061,-49.81083221,-29.22309898,-85.22306998,4.790969407,28.64989924
1770.573045,89.31633062,24.96487619,-0.79311879,57.92600702,-65.62838929
1773.600324,43.87333539,90.39421782,82.92289708,69.30404733,162.2107477
1776.62391,34.82859742,21.16778553,7.186803852,24.96611295,0.720254969
1779.643815,-31.44746438,-22.39320599,-42.20410201,-6.274730973,-7.435264692
1782.660052,-11.81485173,10.37334412,32.44542079,24.82328688,28.08406724
1785.672632,19.04154213,73.22172108,41.63602248,69.27257214,2.121198528
1788.681568,86.05675891,35.71536559,-22.34422661,68.48153561,8.791504541
1791.686873,-39.90693121,-67.04462256,-14.47410269,62.02423655,-70.36023969
1794.688557,18.70707772,18.05173432,55.44561657,110.2698942,-3.277582647
1797.686633,188.2619032,98.31433622,94.8696733,172.0020331,171.0417042
1800.681115,46.94718353,80.95115787,87.12234963,182.6516545,40.16646459
1803.672013,-29.63511448,83.75279235,89.107396,167.5880158,55.27548937
1806.65934,65.43997261,31.28593605,84.98511599,160.2894017,57.82353012
1809.643108,23.79015912,19.34397348,32.36153128,126.8347538,66.97274654
1812.62333,60.40644119,6.847539788,9.673039775,47.50326411,92.77354162
1815.600018,-110.8410024,-78.57244153,-2.96426476,-29.89979955,-107.7832141
1818.573184,-136.5937129,-39.17426581,-73.45886973,-44.81106099,-65.626347
1821.542841,-16.09490584,41.83833969,-39.88454565,6.926163957,-59.5245152
1824.509,51.13471975,70.99210413,93.61273757,57.1104082,-11.42723865
1827.471675,63.47965243,65.83332097,91.23723247,44.84385641,122.8246816
1830.430877,6.075445771,-9.647289866,9.994609449,7.61293257,-15.75378797
1833.38662,31.35156614,39.70575367,-10.05643826,18.40132432,15.1929888
1836.338914,-27.95932985,76.97772233,10.87722957,61.52459851,14.79568598
1839.287774,23.28191114,3.452726856,82.01839492,70.26452743,47.36659161
1842.233211,147.9184195,43.19502352,107.9555094,42.97010709,107.5097892
1845.175238,44.63193268,5.803830063,41.69346369,22.43494152,68.46715027
1848.113866,-37.16728621,-26.75656034,27.53947352,10.71056387,13.4799199
1851.04911,11.52964298,13.03961202,13.03828176,-6.280570654,47.65808262
1853.98098,-82.92396495,-65.9221579,-38.69773697,-4.76219303,-35.32491124
1856.909491,2.56050545,19.82006596,22.89579931,24.27583806,-51.42100744
1859.834653,103.4612422,169.1130617,77.56782225,37.71601685,135.0390276
1862.75648,38.08722324,68.24224312,-7.292757479,19.07975232,-1.797754065
1865.674985,30.69225722,-49.86215112,-33.84970962,4.826001674,-14.69574452
1868.590179,84.81329248,-5.336080218,21.8810356,1.020651674,152.5716467
1871.502076,-26.31646254,32.8822963,-15.9921822,-19.09123322,-29.24510005
1874.410687,-76.56294871,-2.332517234,-37.64580893,-42.67071709,-57.00400916
1877.316027,114.6252339,29.00838984,39.90868326,-35.47496669,49.45732396
1880.218107,56.23354146,22.15284614,26.30289243,6.708133542,-60.91666359
1883.116939,-21.52295838,-28.24448876,-18.92514104,65.90123165,16.81705404
1886.012538,67.11205047,43.97925032,67.39000469,104.08378,68.06470956
1888.904914,43.87614017,72.49457301,96.11964537,79.42026131,52.6764852
1891.794082,-6.854987394,-21.29945907,-2.923613189,14.90139849,3.033878202
1894.680054,-69.6663742,-47.7428692,-23.77118802,-13.95542982,-42.26138363
1897.562842,-12.06210137,21.92044132,13.81815821,7.469497054,-10.83740023
1900.442459,-33.3444173,63.72764201,12.8641549,23.59403547,-32.82255094
1903.318918,42.37433048,21.16709918,7.285263106,12.1034054,38.61229492
1906.192232,-13.80123469,-39.2007314,-19.78003303,0.329945811,52.13031374
1909.062414,-27.61746296,-8.25695714,-30.87893634,2.105830509,-1.2766946
1911.929476,15.12556835,32.80263098,6.398056783,8.1167457,-36.1091187
1914.793432,-24.18905203,7.652051423,23.3419275,18.34254526,-34.16598901
1917.654293,43.79475938,0.77392325,26.89968329,47.02583258,-14.72148578
1920.512074,41.22587237,10.50540676,25.4431662,79.89005636,45.3138685
1923.366786,37.83729503,36.60920141,-9.606723214,63.74600672,53.56437773
1926.218443,0.753632843,0.489348476,-31.32295083,-4.042248611,0.07521532
1929.067058,-43.68353905,-48.41789777,10.28725254,-44.51790087,-79.04723415
1931.912644,-1.366530419,27.26960315,37.15744159,-21.38477292,41.60389349
1934.755213,-45.38990476,-21.61606192,-35.1552206,10.17090945,-53.50565437
1937.594779,-36.70692372,-73.29595652,-70.29792841,17.42702988,-6.586833334
1940.431354,22.44496338,82.03164235,12.06537634,35.78026495,-6.778289899
1943.264952,49.17138812,72.73780818,51.56525309,89.99224865,-17.4502225
1946.095586,4.055324792,41.28504128,77.74503082,150.0158234,211.827541
1948.923268,149.1315089,130.1482674,162.7341206,164.6033549,156.1463201
1951.748012,6.662449561,28.44486146,115.9261286,120.3303048,68.69109173
1954.569831,82.76938457,10.28178666,-13.26330072,58.00179096,-45.41782639
1957.388737,104.6253455,114.6749906,-28.71013879,17.57647813,21.72755661
1960.204745,-25.66887223,38.8417078,2.244883026,-0.227961681,63.28032976
1963.017867,-57.01252304,-29.48507355,40.43681917,-8.234903869,21.67097274
1965.828116,62.53713073,-33.06152793,32.16146968,-9.783778943,-42.79628255
1968.635505,-30.60218696,-40.3522427,-37.47607286,-3.360380245,-45.78960598
1971.440049,26.30857799,45.0356927,-2.989056234,9.903647294,13.88686343
