Ramanshift[cm-1],Intensity
-93.47115107,13859.2
-87.69374369,12593
-81.9253076,12400.2
-76.16582701,12493.2
-70.41528615,12557.4
-64.67366933,12324.8
-58.94096086,12340
-53.21714512,12469
-47.50220652,12623.2
-41.79612954,12693
-36.09889866,13099.2
-30.41049843,13210.2
-24.73091343,12777
-19.0601283,12868.6
-13.39812769,12645
-7.744896327,12369.4
-2.100418946,12152.6
3.535319659,12783.6
9.162334658,12158
14.78064118,12561.2
20.39025432,12231
25.99118913,12316.2
31.58346061,12674.8
37.16708375,12520.4
42.74207347,12130.8
48.30844468,12197
53.86621222,12168.6
59.41539093,11857.8
64.95599558,11742.4
70.48804091,12181.2
76.01154164,12350
81.52651243,11685.4
87.03296792,12149.4
92.5309227,12491.8
98.02039134,11842
103.5013884,12089.2
108.9739282,11873.6
114.4380255,12025.2
119.8936944,12181.8
125.3409495,13055.4
130.779805,11942.2
136.2102753,11714.2
141.6323747,11736.6
147.0461174,12328
152.4515176,11877
157.8485895,11783.4
163.2373472,11716
168.6178049,12045.8
173.9899766,12308.8
179.3538764,11792.8
184.7095182,11910.2
190.0569161,12174
195.396084,12342.8
200.7270358,11692.6
206.0497854,11893.8
211.3643466,11561.4
216.6707333,11994.8
221.9689593,11521.8
227.2590382,11789.4
232.5409839,11732.8
237.8148101,11628.8
243.0805303,11674.6
248.3381582,11717.2
253.5877075,11614.2
258.8291917,11681.8
264.0626244,11774
269.288019,11934.4
274.5053891,12013.8
279.7147481,11803.6
284.9161094,11662.2
290.1094865,12015
295.2948927,13231.6
300.4723414,16290.4
305.6418459,19330.8
310.8034194,22157.4
315.9570752,24289.4
321.1028267,24770.6
326.2406869,25060.4
331.370669,25271.6
336.4927863,25632.4
341.6070517,25862
346.7134786,26096.8
351.8120798,26471.8
356.9028684,26250.8
361.9858576,26206
367.0610602,26547.2
372.1284892,26286.4
377.1881577,26999
382.2400784,27642
387.2842644,28807.8
392.3207284,29684.8
397.3494833,29020.2
402.370542,28455
407.3839172,27222.6
412.3896217,26190
417.3876683,25559.8
422.3780697,25276.6
427.3608386,25013.6
432.3359876,25312.4
437.3035295,25346.2
442.2634769,25309.6
447.2158423,24368.8
452.1606383,24475.8
457.0978776,24523.4
462.0275727,23998.8
466.9497361,24480.2
471.8643802,24036.8
476.7715176,24438.6
481.6711608,24439.4
486.5633221,24744.6
491.448014,24602.6
496.3252488,24481.4
501.195039,24419.2
506.0573969,24678.6
510.9123349,24118.6
515.7598651,23653.4
520.6,24072.4
525.4327518,23872.6
530.2581327,23840
535.076155,23174.8
539.8868309,23576
544.6901726,23718.6
549.4861922,23161
554.2749019,24120.8
559.0563139,23300.8
563.8304402,22937.4
568.597293,23949
573.3568844,23646.2
578.1092263,23122.8
582.8543308,23637
587.5922101,23526.2
592.322876,23136.8
597.0463405,23313
601.7626157,23756
606.4717135,23207.4
611.1736458,23141.4
615.8684246,23040.8
620.5560617,23497
625.2365691,23092
629.9099585,23592.6
634.5762419,23638.4
639.2354312,22862.2
643.887538,23137.2
648.5325743,23033.2
653.1705518,22724.2
657.8014823,23008.4
662.4253775,22348.2
667.0422493,22667
671.6521092,22741.6
676.2549691,22824
680.8508407,22751
685.4397355,22617.8
690.0216654,22761.8
694.5966419,22381.2
699.1646767,22990
703.7257814,22719.8
708.2799676,22792.8
712.827247,22890
717.367631,22639
721.9011314,22512.2
726.4277595,21746
730.9475271,22320.6
735.4604456,22080.8
739.9665264,22709.6
744.4657813,22189
748.9582215,22029.8
753.4438587,21458.8
757.9227042,21269.2
762.3947696,21979.6
766.8600662,21325.4
771.3186056,22663.6
775.770399,21629.6
780.215458,21945
784.6537939,21198.2
789.0854181,21080.8
793.510342,21152.8
797.9285769,21946
802.3401342,21215.6
806.7450253,21282.8
811.1432614,21197.8
815.5348538,21047.2
819.9198139,20641
824.2981531,20820.8
828.6698824,20940.6
833.0350133,20560
837.393557,20388.8
841.7455248,20755
846.0909278,20458
850.4297774,20387.4
854.7620848,20495.2
859.0878611,20749.4
863.4071176,20106.8
867.7198655,20455.2
872.026116,20803.2
876.3258802,21253.6
880.6191693,20735
884.9059946,20753.2
889.186367,21173.8
893.4602979,19970.4
897.7277982,19997.4
901.9888793,20301.8
906.2435521,20746
910.4918277,20243.8
914.7337174,20350
918.9692321,20063.8
923.1983831,20822
927.4211813,20371.4
931.6376378,20986.4
935.8477637,20529.4
940.0515701,20636.2
944.249068,20815.2
948.4402684,19912.4
952.6251825,20694.2
956.8038212,20356.2
960.9761955,21103.2
965.1423166,20537
969.3021953,20545.6
973.4558427,20557.2
977.6032699,20333.8
981.7444877,20492.6
985.8795072,20398.6
990.0083394,20548.2
994.1309953,20109.8
998.2474857,20495.4
1002.357822,19650.6
1006.462014,20410
1010.560075,20070.6
1014.652013,20336.8
1018.737841,20565
1022.81757,20008.2
1026.891209,19981.6
1030.958771,19714.4
1035.020266,20139.2
1039.075705,19782
1043.1251,19528
1047.16846,19884.2
1051.205797,19765
1055.237121,19499.4
1059.262444,19589.8
1063.281777,19687.4
1067.295131,20358.6
1071.302515,22180.4
1075.303942,22439
1079.299422,23396
1083.288966,22438
1087.272585,21336
1091.250289,20474
1095.222091,20065.2
1099.187999,19445.4
1103.148026,19417
1107.102183,19469.8
1111.050479,19628.6
1114.992927,19374.6
1118.929536,19289.6
1122.860318,19738.8
1126.785283,19143.4
1130.704443,19282.8
1134.617808,20183.6
1138.52539,20319.2
1142.427198,20107.2
1146.323244,19926.2
1150.213538,19367
1154.098093,19757.2
1157.976917,19139.6
1161.850023,19182.2
1165.717421,19675.4
1169.579121,19318.6
1173.435135,19913.4
1177.285474,19101.6
1181.130148,19423.6
1184.969169,19709.2
1188.802547,19309.4
1192.630292,18859.4
1196.452416,18504
1200.26893,18419.2
1204.079844,18221.8
1207.88517,17671.6
1211.684917,18397.8
1215.479098,17988.6
1219.267722,19574.8
1223.050801,18189.4
1226.828346,18122.4
1230.600366,18445.2
1234.366874,18300.4
1238.12788,18165.2
1241.883395,18300
1245.633429,18583.8
1249.377994,18473
1253.1171,17675.6
1256.850759,18248.4
1260.578981,17895.2
1264.301776,18140.4
1268.019157,17995.4
1271.731133,17707.2
1275.437715,17530.6
1279.138915,18126.8
1282.834743,18236.4
1286.52521,17764.8
1290.210328,17723.8
1293.890106,17792
1297.564555,18339.4
1301.233688,17594.4
1304.897514,17893.8
1308.556044,18150.6
1312.209289,18103.4
1315.857261,17406.8
1319.499969,17626.6
1323.137425,18412.2
1326.769641,17893
1330.396626,18644.4
1334.018391,17959.6
1337.634948,18119.6
1341.246307,17783.6
1344.85248,17737.6
1348.453477,17594.6
1352.049309,17500
1355.639987,17511
1359.225522,18197.4
1362.805925,17693
1366.381207,17624.4
1369.951379,17653
1373.516452,17714.8
1377.076436,17975.8
1380.631343,17824.4
1384.181184,17680.2
1387.725969,17793.6
1391.26571,17490
1394.800417,17365.8
1398.330102,17296.6
1401.854776,17517.8
1405.374448,17358.2
1408.889132,16891
1412.398837,16612
1415.903574,16824.6
1419.403355,17524
1422.89819,17134.2
1426.388091,17268.4
1429.873069,17657
1433.353134,17104.6
1436.828298,17053.4
1440.298571,17012.6
1443.763965,16764.2
1447.224491,16584
1450.68016,16468.4
1454.130983,16923.4
1457.576971,16868
1461.018135,16888.6
1464.454486,16953.8
1467.886036,16371.4
1471.312794,16410.8
1474.734774,16107.6
1478.151985,16860.2
1481.564439,16492.6
1484.972146,16260
1488.375119,15831
1491.773368,16306.2
1495.166904,16888.6
1498.555739,16098
1501.939883,16298
1505.319349,15662.6
1508.694146,16015
1512.064286,16086.2
1515.429781,16092.4
1518.790642,15929.6
1522.146879,16095.6
1525.498505,15580
1528.845529,15502.6
1532.187965,16308.4
1535.525822,15943.2
1538.859112,15969.6
1542.187846,16573.2
1545.512036,15663
1548.831693,16846.8
1552.146829,16319.4
1555.457453,15869.6
1558.763579,15510.8
1562.065216,16142.6
1565.362377,16467.2
1568.655073,16703.2
1571.943315,16601.2
1575.227114,16692.6
1578.506482,16669.2
1581.781431,17264.2
1585.051971,16870.6
1588.318114,16957.4
1591.579872,16715.2
1594.837255,16302.8
1598.090275,15809.8
1601.338945,15597.6
1604.583274,15928.2
1607.823275,15441.2
1611.058959,14952.4
1614.290338,15691.4
1617.517422,14754.8
1620.740224,15194.2
1623.958755,14793.8
1627.173027,14840.8
1630.38305,14400.6
1633.588838,14862.4
1636.7904,14571.2
1639.987749,14781.6
1643.180896,14846.4
1646.369853,14176.6
1649.554632,15123.2
1652.735244,14363.2
1655.9117,13963.8
1659.084013,14343.6
1662.252193,15013.6
1665.416254,13911.8
1668.576205,14267.4
1671.732059,14550.2
1674.883828,14443.4
1678.031523,13975
1681.175157,14039.4
1684.314739,14062.8
1687.450284,13911.4
1690.581801,13833.2
1693.709304,13624
1696.832803,13631
1699.952311,13924.6
1703.067839,13822.2
1706.179399,13838.2
1709.287003,14215.6
1712.390663,13725.2
1715.49039,13860.4
1718.586197,14057.8
1721.678095,13904.8
1724.766096,13913
1727.850213,13333.4
1730.930456,13708.2
1734.006838,13496.8
1737.079372,13734.8
1740.148067,13307.6
1743.212938,14439.8
1746.273996,13586.2
1749.331252,13489.2
1752.384718,13505.8
1755.434408,13505.6
1758.480332,13533.2
1761.522503,13627
1764.560933,13320.4
1767.595634,13090.8
1770.626618,13673.4
1773.653896,13771.8
1776.677482,13213.2
1779.697388,13239.4
1782.713625,13877.2
1785.726205,13730.2
1788.735141,13693.2
1791.740445,13251.4
1794.742129,13140.8
1797.740206,13733.8
1800.734687,13692.8
1803.725585,13440
1806.712912,13362.4
1809.69668,13098.4
1812.676902,13186.8
1815.65359,12932.6
1818.626756,13045.8
1821.596413,13154.4
1824.562573,12769.6
1827.525247,13207.8
1830.48445,13003.2
1833.440192,13143.2
1836.392487,12955.2
1839.341347,13242.2
1842.286784,13303.4
1845.22881,12681.4
1848.167439,13264.4
1851.102682,13071.4
1854.034553,13030.6
1856.963063,12860.6
1859.888226,13706.6
1862.810053,13260.2
1865.728557,13072.4
1868.643751,12831
1871.555648,12825.8
1874.46426,12497.8
1877.369599,13129.2
1880.271679,12914.6
1883.170512,12746.4
1886.06611,13338.2
1888.958487,12895.8
1891.847655,12984
1894.733626,13102.4
1897.616414,13029.4
1900.496032,12601.8
1903.372491,12963.8
1906.245805,13165.8
1909.115987,13248.6
1911.983049,13210
1914.847004,13019.8
1917.707866,13244
1920.565646,13161
1923.420359,12724.6
1926.272016,12977.4
1929.120631,12718
1931.966216,12913.6
1934.808786,12852.4
1937.648351,13061.8
1940.484927,12969
1943.318525,13039
1946.149158,13284.6
1948.97684,14285.4
1951.801584,13211.2
1954.623403,12999.4
1957.44231,13154
1960.258318,12690.6
1963.071439,12654
1965.881688,12841.6
1968.689078,12999
1971.493621,12828.6
