Ramanshift[cm-1],Intensity
-93.47115107,13617.4
-87.69374369,12404.4
-81.9253076,12195.6
-76.16582701,12275.8
-70.41528615,12264.4
-64.67366933,12071.8
-58.94096086,12094.8
-53.21714512,12231
-47.50220652,12311.2
-41.79612954,12316.4
-36.09889866,12892.8
-30.41049843,12927.8
-24.73091343,12496.6
-19.0601283,12537
-13.39812769,12395
-7.744896327,12098
-2.100418946,11938.8
3.535319659,12574.6
9.162334658,11942.6
14.78064118,12267.2
20.39025432,11919.2
25.99118913,11951.8
31.58346061,12467.2
37.16708375,12202.4
42.74207347,11853.2
48.30844468,11959.2
53.86621222,11902.6
59.41539093,11434.8
64.95599558,11520.8
70.48804091,11902.6
76.01154164,12050
81.52651243,11371.4
87.03296792,11781
92.5309227,12203.2
98.02039134,11521.2
103.5013884,11851
108.9739282,11631.2
114.4380255,11685.2
119.8936944,11846.6
125.3409495,12769.6
130.779805,11625.4
136.2102753,11294.6
141.6323747,11329.4
147.0461174,11888
152.4515176,11647.4
157.8485895,11535.4
163.2373472,11371.6
168.6178049,11798.2
173.9899766,12029.2
179.3538764,11523.6
184.7095182,11665.8
190.0569161,11797.8
195.396084,12019.8
200.7270358,11389
206.0497854,11497.2
211.3643466,11200
216.6707333,11555.2
221.9689593,11224.8
227.2590382,11406.6
232.5409839,11353.8
237.8148101,11223.6
243.0805303,11421
248.3381582,11311.2
253.5877075,11232.4
258.8291917,11376.8
264.0626244,11491.2
269.288019,11588.2
274.5053891,11754.4
279.7147481,11452
284.9161094,11173
290.1094865,11316.4
295.2948927,11772.4
300.4723414,12847.6
305.6418459,13225.6
310.8034194,13836.2
315.9570752,14818.2
321.1028267,15032
326.2406869,14927.6
331.370669,15217
336.4927863,15185.8
341.6070517,15228.6
346.7134786,15116
351.8120798,15378.4
356.9028684,15155.4
361.9858576,15245.8
367.0610602,15592.4
372.1284892,15324.8
377.1881577,15762.6
382.2400784,15987.8
387.2842644,16579.2
392.3207284,17088.8
397.3494833,16670
402.370542,16556.8
407.3839172,15760.4
412.3896217,15242.2
417.3876683,14861
422.3780697,14787
427.3608386,14882.2
432.3359876,14991.4
437.3035295,15346
442.2634769,15399.8
447.2158423,14541.6
452.1606383,14642.8
457.0978776,14885
462.0275727,14235.6
466.9497361,14791.8
471.8643802,14274.6
476.7715176,14662.4
481.6711608,14621.6
486.5633221,14767.4
491.448014,14529.8
496.3252488,14628.8
501.195039,14570.6
506.0573969,14876.2
510.9123349,14629.6
515.7598651,14156.6
520.6,14655
525.4327518,14699
530.2581327,14679.6
535.076155,14114.4
539.8868309,14576.2
544.6901726,14725.2
549.4861922,14373.4
554.2749019,15320.8
559.0563139,14339.6
563.8304402,14065
568.597293,15141.6
573.3568844,14898
578.1092263,14339
582.8543308,14797
587.5922101,14597.6
592.322876,14406.4
597.0463405,14458.8
601.7626157,14649.4
606.4717135,14245
611.1736458,14246.2
615.8684246,14425.8
620.5560617,14595
625.2365691,14302.8
629.9099585,14853.2
634.5762419,15067
639.2354312,14324.4
643.887538,14623
648.5325743,14246
653.1705518,14205.2
657.8014823,14449.4
662.4253775,13815.8
667.0422493,14141.4
671.6521092,14208
676.2549691,14382.2
680.8508407,14375.2
685.4397355,14191.2
690.0216654,14436.2
694.5966419,14196.6
699.1646767,14691.8
703.7257814,14372.2
708.2799676,14507.6
712.827247,14571.8
717.367631,14363
721.9011314,14311
726.4277595,13683.4
730.9475271,14403.6
735.4604456,14228.4
739.9665264,14706.4
744.4657813,14180
748.9582215,14277.2
753.4438587,13863
757.9227042,13670.8
762.3947696,14159.2
766.8600662,13854.4
771.3186056,15231.4
775.770399,14246
780.215458,14557.4
784.6537939,13802.2
789.0854181,13712.8
793.510342,13837.8
797.9285769,14472.8
802.3401342,13889.2
806.7450253,14021.2
811.1432614,14029.6
815.5348538,13853
819.9198139,13599.4
824.2981531,13839
828.6698824,14006
833.0350133,13840.4
837.393557,13547
841.7455248,13849.2
846.0909278,13677.4
850.4297774,13659.2
854.7620848,13675.4
859.0878611,13977.4
863.4071176,13395
867.7198655,13770.2
872.026116,14096.2
876.3258802,14473
880.6191693,14061.6
884.9059946,14092
889.186367,14555.2
893.4602979,13382.6
897.7277982,13319.6
901.9888793,13800.4
906.2435521,14203.4
910.4918277,13572
914.7337174,13563.8
918.9692321,13438.6
923.1983831,14068.8
927.4211813,13750.6
931.6376378,14415.8
935.8477637,13927
940.0515701,14095.2
944.249068,14125
948.4402684,13331.8
952.6251825,14165.4
956.8038212,13709.6
960.9761955,14414
965.1423166,13889
969.3021953,14018.6
973.4558427,13881.4
977.6032699,13636.2
981.7444877,13868.2
985.8795072,13784.4
990.0083394,13804.8
994.1309953,13540.2
998.2474857,13988.2
1002.357822,13107
1006.462014,13786
1010.560075,13512
1014.652013,13808
1018.737841,14121.6
1022.81757,13662.6
1026.891209,13653.2
1030.958771,13446
1035.020266,13678.8
1039.075705,13505.8
1043.1251,13255.2
1047.16846,13482.2
1051.205797,13382.6
1055.237121,13108.4
1059.262444,13169.4
1063.281777,12960.6
1067.295131,13003
1071.302515,14319.4
1075.303942,13948.4
1079.299422,15072
1083.288966,14414.6
1087.272585,13881.2
1091.250289,13721.8
1095.222091,13557.2
1099.187999,13308.6
1103.148026,13364.6
1107.102183,13218
1111.050479,13376.8
1114.992927,13344
1118.929536,13177.4
1122.860318,13515
1126.785283,12951.4
1130.704443,12887
1134.617808,13666.8
1138.52539,13531.8
1142.427198,13404.4
1146.323244,13512.2
1150.213538,13124.6
1154.098093,13647.8
1157.976917,12969.4
1161.850023,12990.8
1165.717421,13454
1169.579121,13174.2
1173.435135,13598
1177.285474,12752
1181.130148,13062.6
1184.969169,13278.6
1188.802547,13343.2
1192.630292,12891.6
1196.452416,12627.4
1200.26893,12717.2
1204.079844,12469.4
1207.88517,12152.8
1211.684917,12867.6
1215.479098,12397.8
1219.267722,13903.6
1223.050801,12523.4
1226.828346,12610.2
1230.600366,12804.8
1234.366874,12961
1238.12788,12512.2
1241.883395,12757.6
1245.633429,12930.2
1249.377994,12911
1253.1171,12175.8
1256.850759,12611.8
1260.578981,12417
1264.301776,12566.8
1268.019157,12547.2
1271.731133,12334.4
1275.437715,12141.2
1279.138915,12672.2
1282.834743,12864.4
1286.52521,12538
1290.210328,12246.4
1293.890106,12503
1297.564555,12905.6
1301.233688,12274.4
1304.897514,12596.4
1308.556044,12690
1312.209289,12659
1315.857261,12137.6
1319.499969,12346.4
1323.137425,13027.2
1326.769641,12555.6
1330.396626,13213
1334.018391,12506.8
1337.634948,12670.6
1341.246307,12325.6
1344.85248,12269
1348.453477,12204.2
1352.049309,12238.6
1355.639987,12283.6
1359.225522,12791.2
1362.805925,12430.4
1366.381207,12536.8
1369.951379,12544.6
1373.516452,12555.4
1377.076436,12692.6
1380.631343,12506
1384.181184,12363.2
1387.725969,12458.6
1391.26571,12248.8
1394.800417,12100.8
1398.330102,12330.2
1401.854776,12550.2
1405.374448,12411
1408.889132,11917.2
1412.398837,11601.2
1415.903574,11988.8
1419.403355,12566.2
1422.89819,12250.6
1426.388091,12146
1429.873069,12689.4
1433.353134,11997.4
1436.828298,12124.2
1440.298571,12289.2
1443.763965,12037.4
1447.224491,11966.2
1450.68016,11893.2
1454.130983,12407.8
1457.576971,12363.6
1461.018135,12518.4
1464.454486,12617.4
1467.886036,12162.6
1471.312794,12224.4
1474.734774,11924.4
1478.151985,12516
1481.564439,12382.6
1484.972146,12290.6
1488.375119,11931.2
1491.773368,12250.2
1495.166904,12888.2
1498.555739,12084.6
1501.939883,12282.4
1505.319349,11747.2
1508.694146,12148
1512.064286,12220
1515.429781,12135.8
1518.790642,11956.6
1522.146879,12187.4
1525.498505,11723.6
1528.845529,11756
1532.187965,12401
1535.525822,12133.6
1538.859112,12046.6
1542.187846,12644.8
1545.512036,11748.8
1548.831693,13084.6
1552.146829,12388.8
1555.457453,11747.2
1558.763579,11414.4
1562.065216,11921
1565.362377,12146.2
1568.655073,12526.2
1571.943315,12184
1575.227114,12282.4
1578.506482,12273.6
1581.781431,12781
1585.051971,12431.2
1588.318114,12538.4
1591.579872,12597.8
1594.837255,12300.6
1598.090275,12152.6
1601.338945,12079.4
1604.583274,12374.8
1607.823275,12099
1611.058959,11636.8
1614.290338,12842.4
1617.517422,11446.8
1620.740224,11908
1623.958755,11527.8
1627.173027,11699.2
1630.38305,11403.6
1633.588838,11851.8
1636.7904,11597.4
1639.987749,11756.4
1643.180896,11973
1646.369853,11375
1649.554632,12137.8
1652.735244,11590.2
1655.9117,11247
1659.084013,11584.2
1662.252193,12159.4
1665.416254,11398.8
1668.576205,11667
1671.732059,11860.2
1674.883828,12000.2
1678.031523,11478.2
1681.175157,11554.8
1684.314739,11655.2
1687.450284,11448.4
1690.581801,11510.8
1693.709304,11311.6
1696.832803,11290.2
1699.952311,11502
1703.067839,11604.4
1706.179399,11441.4
1709.287003,11949.8
1712.390663,11420.6
1715.49039,11537.2
1718.586197,11982.4
1721.678095,11680
1724.766096,11654.8
1727.850213,11249.2
1730.930456,11553.4
1734.006838,11369
1737.079372,11662
1740.148067,11266.2
1743.212938,12354.8
1746.273996,11541.6
1749.331252,11492.4
1752.384718,11614.6
1755.434408,11508
1758.480332,11540.8
1761.522503,11572.8
1764.560933,11359
1767.595634,11053.4
1770.626618,11739.2
1773.653896,11769.6
1776.677482,11427.4
1779.697388,11445.6
1782.713625,11931.4
1785.726205,11964.2
1788.735141,11830
1791.740445,11384
1794.742129,11294.6
1797.740206,11886.2
1800.734687,11788.8
1803.725585,11731.8
1806.712912,11648.4
1809.69668,11339.4
1812.676902,11407.2
1815.65359,11117.4
1818.626756,11308
1821.596413,11416.6
1824.562573,11072.4
1827.525247,11370.4
1830.48445,11226.4
1833.440192,11348
1836.392487,11256.6
1839.341347,11466
1842.286784,11585.6
1845.22881,11034.2
1848.167439,11594.6
1851.102682,11350
1854.034553,11357.8
1856.963063,11191.2
1859.888226,12122.2
1862.810053,11512.4
1865.728557,11346.2
1868.643751,11162.6
1871.555648,11236.8
1874.46426,10868.2
1877.369599,11504
1880.271679,11276.2
1883.170512,11174
1886.06611,11699.4
1888.958487,11335.2
1891.847655,11298.8
1894.733626,11434.8
1897.616414,11499.6
1900.496032,11121.2
1903.372491,11348.4
1906.245805,11614.4
1909.115987,11746.4
1911.983049,11617.6
1914.847004,11601.8
1917.707866,11668.4
1920.565646,11713
1923.420359,11317
1926.272016,11645
1929.120631,11269.6
1931.966216,11454
1934.808786,11320.6
1937.648351,11645
1940.484927,11513.8
1943.318525,11668.8
1946.149158,11826.4
1948.97684,12919.2
1951.801584,11766
1954.623403,11574.4
1957.44231,11752.8
1960.258318,11170.2
1963.071439,11266.4
1965.881688,11459
1968.689078,11661
1971.493621,11409.2
