Ramanshift[cm-1],Intensity
-93.47115107,13687.6
-87.69374369,12445.4
-81.9253076,12246.8
-76.16582701,12353.8
-70.41528615,12378.8
-64.67366933,12081.6
-58.94096086,12067.4
-53.21714512,12221.6
-47.50220652,12380.2
-41.79612954,12444.4
-36.09889866,12878.8
-30.41049843,12975
-24.73091343,12551.4
-19.0601283,12604
-13.39812769,12281.2
-7.744896327,12209.2
-2.100418946,11959.4
3.535319659,12601.4
9.162334658,11974.2
14.78064118,12287.2
20.39025432,11985.2
25.99118913,12094.6
31.58346061,12529.8
37.16708375,12248.8
42.74207347,12025.8
48.30844468,12033.6
53.86621222,11921.2
59.41539093,11560
64.95599558,11536.4
70.48804091,11958
76.01154164,12175
81.52651243,11423.2
87.03296792,11939.2
92.5309227,12210.8
98.02039134,11623
103.5013884,11829.6
108.9739282,11732.8
114.4380255,11708.6
119.8936944,11854.2
125.3409495,12805.2
130.779805,11642
136.2102753,11374
141.6323747,11475.8
147.0461174,12091.4
152.4515176,11511
157.8485895,11605
163.2373472,11530.4
168.6178049,11817
173.9899766,12099
179.3538764,11603.6
184.7095182,11663.2
190.0569161,11922.4
195.396084,12119.6
200.7270358,11418.2
206.0497854,11571.2
211.3643466,11197.8
216.6707333,11669.2
221.9689593,11241.8
227.2590382,11442.6
232.5409839,11491.2
237.8148101,11282.6
243.0805303,11359.2
248.3381582,11465.8
253.5877075,11235.8
258.8291917,11387.2
264.0626244,11385.8
269.288019,11666.6
274.5053891,11745
279.7147481,11476
284.9161094,11291
290.1094865,11436.6
295.2948927,11816.8
300.4723414,12988.6
305.6418459,13558.4
310.8034194,14007.2
315.9570752,15200.2
321.1028267,15315.8
326.2406869,15514.8
331.370669,15642.2
336.4927863,15614.6
341.6070517,15698.6
346.7134786,15649.2
351.8120798,15893
356.9028684,15543.2
361.9858576,15642.2
367.0610602,16001.6
372.1284892,15844.8
377.1881577,16456.2
382.2400784,16773.6
387.2842644,17613.2
392.3207284,18422
397.3494833,17721.8
402.370542,17517.4
407.3839172,16383.8
412.3896217,15786.2
417.3876683,15159.2
422.3780697,15117.6
427.3608386,15149.2
432.3359876,15525.2
437.3035295,15658.8
442.2634769,15680.4
447.2158423,14956.4
452.1606383,15029.8
457.0978776,15262.4
462.0275727,14498
466.9497361,15025
471.8643802,14533.8
476.7715176,15056.8
481.6711608,14924
486.5633221,15246.2
491.448014,15005.4
496.3252488,14913.8
501.195039,14930
506.0573969,15303.8
510.9123349,15029
515.7598651,14474.4
520.6,14951.6
525.4327518,14974.2
530.2581327,14929
535.076155,14430.6
539.8868309,14811.6
544.6901726,14992.4
549.4861922,14670.6
554.2749019,15640
559.0563139,14706
563.8304402,14361.8
568.597293,15546.2
573.3568844,15161
578.1092263,14601.2
582.8543308,15070.2
587.5922101,14915
592.322876,14692.6
597.0463405,14731.4
601.7626157,14998
606.4717135,14512.2
611.1736458,14561.4
615.8684246,14679.4
620.5560617,14992
625.2365691,14732.4
629.9099585,15029.6
634.5762419,15446.2
639.2354312,14662.6
643.887538,14968
648.5325743,14539.4
653.1705518,14590
657.8014823,14832.2
662.4253775,14179.8
667.0422493,14514.4
671.6521092,14464
676.2549691,14792.8
680.8508407,14586.4
685.4397355,14481.4
690.0216654,14595.8
694.5966419,14471.6
699.1646767,14887.6
703.7257814,14799.2
708.2799676,14853.6
712.827247,14757.6
717.367631,14502.2
721.9011314,14452.4
726.4277595,13864.4
730.9475271,14664.6
735.4604456,14468.6
739.9665264,15068
744.4657813,14541.8
748.9582215,14475.4
753.4438587,14038.4
757.9227042,13940.8
762.3947696,14395.2
766.8600662,14014.6
771.3186056,15469.2
775.770399,14413.6
780.215458,14815.4
784.6537939,14108
789.0854181,14051.8
793.510342,14205.4
797.9285769,14798.2
802.3401342,14220.8
806.7450253,14462
811.1432614,14300
815.5348538,14117.8
819.9198139,13872.8
824.2981531,14116
828.6698824,14219.2
833.0350133,14039.2
837.393557,13688.2
841.7455248,14143
846.0909278,13880.6
850.4297774,13727
854.7620848,13894.8
859.0878611,14129.2
863.4071176,13499.4
867.7198655,14100.4
872.026116,14371.8
876.3258802,14757.4
880.6191693,14352.8
884.9059946,14306.4
889.186367,14762.6
893.4602979,13610.4
897.7277982,13701.8
901.9888793,14034.2
906.2435521,14410.8
910.4918277,13958.2
914.7337174,13726.4
918.9692321,13681.6
923.1983831,14429
927.4211813,14033.2
931.6376378,14739.8
935.8477637,14175.6
940.0515701,14282
944.249068,14354
948.4402684,13621.4
952.6251825,14550
956.8038212,14032.6
960.9761955,14696.4
965.1423166,14189.6
969.3021953,14209.6
973.4558427,14325.2
977.6032699,13983.8
981.7444877,14255
985.8795072,14048
990.0083394,14239
994.1309953,13848.2
998.2474857,14268.2
1002.357822,13449.2
1006.462014,14004.8
1010.560075,13797.2
1014.652013,14048.6
1018.737841,14309.4
1022.81757,13898.4
1026.891209,13727.8
1030.958771,13591.2
1035.020266,13971
1039.075705,13704.4
1043.1251,13543.2
1047.16846,13778
1051.205797,13688.4
1055.237121,13312.6
1059.262444,13405.4
1063.281777,13174
1067.295131,13328
1071.302515,14713.8
1075.303942,14630.4
1079.299422,15696.4
1083.288966,14964.6
1087.272585,14283.6
1091.250289,14001.6
1095.222091,13864.6
1099.187999,13445.6
1103.148026,13618.4
1107.102183,13470.8
1111.050479,13702.2
1114.992927,13484.4
1118.929536,13368
1122.860318,13643.6
1126.785283,13168.4
1130.704443,13022.2
1134.617808,13817.8
1138.52539,13721
1142.427198,13639
1146.323244,13746.6
1150.213538,13345.4
1154.098093,13834.8
1157.976917,13144.8
1161.850023,13177.4
1165.717421,13669
1169.579121,13478.8
1173.435135,13868.4
1177.285474,13048.2
1181.130148,13255.6
1184.969169,13614.2
1188.802547,13558.2
1192.630292,13064.6
1196.452416,12803
1200.26893,12979.2
1204.079844,12643.6
1207.88517,12325.8
1211.684917,13040
1215.479098,12644.8
1219.267722,14168.4
1223.050801,12635.4
1226.828346,12797.8
1230.600366,13085.8
1234.366874,13150.6
1238.12788,12724.6
1241.883395,12854.6
1245.633429,13218.2
1249.377994,13149.2
1253.1171,12382
1256.850759,12900
1260.578981,12712.8
1264.301776,12885.4
1268.019157,12750.2
1271.731133,12442.8
1275.437715,12381.2
1279.138915,12814
1282.834743,13081.2
1286.52521,12651.2
1290.210328,12503
1293.890106,12634.6
1297.564555,13035.6
1301.233688,12480.4
1304.897514,12789.2
1308.556044,12948
1312.209289,12882
1315.857261,12348.8
1319.499969,12483
1323.137425,13238.4
1326.769641,12832.6
1330.396626,13220.8
1334.018391,12690.4
1337.634948,12922.8
1341.246307,12543.6
1344.85248,12541.2
1348.453477,12344.6
1352.049309,12378.4
1355.639987,12395
1359.225522,13013.6
1362.805925,12547.4
1366.381207,12622.4
1369.951379,12676.2
1373.516452,12755.2
1377.076436,12911
1380.631343,12775.2
1384.181184,12507.4
1387.725969,12614.4
1391.26571,12302.8
1394.800417,12207.8
1398.330102,12486.8
1401.854776,12734.8
1405.374448,12508.6
1408.889132,12159.8
1412.398837,11699.2
1415.903574,12172.6
1419.403355,12750.4
1422.89819,12379.6
1426.388091,12354
1429.873069,12740.4
1433.353134,12205.6
1436.828298,12304.2
1440.298571,12484.4
1443.763965,12212.4
1447.224491,12038
1450.68016,12207
1454.130983,12542.2
1457.576971,12510.8
1461.018135,12730.8
1464.454486,12864.2
1467.886036,12214.6
1471.312794,12424.6
1474.734774,12114.4
1478.151985,12812
1481.564439,12526.8
1484.972146,12441.2
1488.375119,11967.6
1491.773368,12432.8
1495.166904,12999.2
1498.555739,12290.6
1501.939883,12379.4
1505.319349,11987.8
1508.694146,12285
1512.064286,12323.4
1515.429781,12289.4
1518.790642,12102.2
1522.146879,12331.6
1525.498505,11951.6
1528.845529,11935.4
1532.187965,12625.8
1535.525822,12149.8
1538.859112,12128
1542.187846,12900
1545.512036,11857.2
1548.831693,13243
1552.146829,12613.4
1555.457453,11897.8
1558.763579,11634.2
1562.065216,12076.2
1565.362377,12316.2
1568.655073,12647.6
1571.943315,12519.6
1575.227114,12563.4
1578.506482,12508.2
1581.781431,13106.4
1585.051971,12835.2
1588.318114,12972.4
1591.579872,12882.4
1594.837255,12626.6
1598.090275,12368
1601.338945,12225.4
1604.583274,12534
1607.823275,12271.8
1611.058959,11785.2
1614.290338,12940.6
1617.517422,11765.4
1620.740224,12115
1623.958755,11760
1627.173027,11891
1630.38305,11479.6
1633.588838,11982
1636.7904,11697
1639.987749,11895.6
1643.180896,12167
1646.369853,11396
1649.554632,12315.2
1652.735244,11776.6
1655.9117,11311.2
1659.084013,11688.6
1662.252193,12391.2
1665.416254,11480.2
1668.576205,11796.2
1671.732059,12026.6
1674.883828,12056
1678.031523,11659.6
1681.175157,11658
1684.314739,11701.8
1687.450284,11471.6
1690.581801,11588.2
1693.709304,11454.8
1696.832803,11433.2
1699.952311,11662.8
1703.067839,11685.8
1706.179399,11652
1709.287003,11964.6
1712.390663,11680
1715.49039,11674
1718.586197,12106.4
1721.678095,11873.8
1724.766096,11897.2
1727.850213,11289
1730.930456,11705.4
1734.006838,11517
1737.079372,11735.8
1740.148067,11410.6
1743.212938,12495.8
1746.273996,11665.2
1749.331252,11563.4
1752.384718,11728
1755.434408,11688.4
1758.480332,11642.6
1761.522503,11791.8
1764.560933,11443.6
1767.595634,11248
1770.626618,11832.4
1773.653896,11851
1776.677482,11496.8
1779.697388,11511.4
1782.713625,11998
1785.726205,12013.2
1788.735141,12001.2
1791.740445,11551.8
1794.742129,11436.4
1797.740206,11825.8
1800.734687,11992
1803.725585,11744
1806.712912,11736.6
1809.69668,11493.8
1812.676902,11519
1815.65359,11230.6
1818.626756,11336
1821.596413,11467
1824.562573,11212
1827.525247,11582.2
1830.48445,11387.4
1833.440192,11515.4
1836.392487,11428.6
1839.341347,11689
1842.286784,11712
1845.22881,11133.6
1848.167439,11707.2
1851.102682,11469
1854.034553,11349
1856.963063,11197
1859.888226,12200.2
1862.810053,11591.8
1865.728557,11433.2
1868.643751,11239.8
1871.555648,11289.2
1874.46426,11028.2
1877.369599,11597.4
1880.271679,11424.8
1883.170512,11382.8
1886.06611,11787.6
1888.958487,11449
1891.847655,11358.8
1894.733626,11540
1897.616414,11661.2
1900.496032,11142.2
1903.372491,11507.8
1906.245805,11800
1909.115987,11874.4
1911.983049,11829.6
1914.847004,11645.8
1917.707866,11837.4
1920.565646,11780.4
1923.420359,11391.4
1926.272016,11636.6
1929.120631,11337.6
1931.966216,11476.2
1934.808786,11391.8
1937.648351,11723.8
1940.484927,11626.8
1943.318525,11774
1946.149158,11964.2
1948.97684,12986.2
1951.801584,11966.8
1954.623403,11662.4
1957.44231,11853.2
1960.258318,11350.2
1963.071439,11395.4
1965.881688,11531.6
1968.689078,11713.4
1971.493621,11546.2
