Ramanshift[cm-1],Intensity
-93.47115107,12255
-87.69374369,11168.2
-81.9253076,11031
-76.16582701,11053.4
-70.41528615,11069
-64.67366933,10837.6
-58.94096086,10835.6
-53.21714512,11142
-47.50220652,11148.4
-41.79612954,11111.6
-36.09889866,11496.2
-30.41049843,11669.2
-24.73091343,11310.6
-19.0601283,11346.8
-13.39812769,11106.4
-7.744896327,10880.4
-2.100418946,10752.4
3.535319659,11283
9.162334658,10791.8
14.78064118,11096.4
20.39025432,10715.4
25.99118913,10781.2
31.58346061,11177.4
37.16708375,11017
42.74207347,10822.8
48.30844468,10862.8
53.86621222,10670.8
59.41539093,10352.6
64.95599558,10278.6
70.48804091,10704
76.01154164,10825.4
81.52651243,10203.8
87.03296792,10648.6
92.5309227,10968
98.02039134,10339.6
103.5013884,10701
108.9739282,10449.8
114.4380255,10443.6
119.8936944,10660.6
125.3409495,11429.8
130.779805,10452.2
136.2102753,10243
141.6323747,10254.6
147.0461174,10835.8
152.4515176,10494.4
157.8485895,10389.6
163.2373472,10282
168.6178049,10548.6
173.9899766,10920.4
179.3538764,10481.8
184.7095182,10478
190.0569161,10574
195.396084,10781.4
200.7270358,10331.8
206.0497854,10346.6
211.3643466,10134.8
216.6707333,10468.2
221.9689593,10208.4
227.2590382,10297.2
232.5409839,10270.4
237.8148101,10238.4
243.0805303,10346
248.3381582,10272.8
253.5877075,10106.8
258.8291917,10220.8
264.0626244,10332.6
269.288019,10523
274.5053891,10645.8
279.7147481,10317.8
284.9161094,10144.8
290.1094865,10340.2
295.2948927,11060.6
300.4723414,12850.6
305.6418459,14357.4
310.8034194,15935.6
315.9570752,17354
321.1028267,17832
326.2406869,18237.6
331.370669,18722.6
336.4927863,18966
341.6070517,19159.8
346.7134786,19187.8
351.8120798,19416.8
356.9028684,19288.8
361.9858576,19443.2
367.0610602,20147.4
372.1284892,21163
377.1881577,24704
382.2400784,30758.2
387.2842644,37789.2
392.3207284,39137.4
397.3494833,33889
402.370542,28107.2
407.3839172,23753.8
412.3896217,20942.8
417.3876683,19290.6
422.3780697,18569
427.3608386,17799
432.3359876,17831.2
437.3035295,17810
442.2634769,17684.8
447.2158423,16955.4
452.1606383,16815
457.0978776,16964.8
462.0275727,16415.6
466.9497361,17026
471.8643802,16454
476.7715176,17014.6
481.6711608,17324.4
486.5633221,17910.6
491.448014,17497.4
496.3252488,17438
501.195039,17362.6
506.0573969,17603
510.9123349,17354.6
515.7598651,16608.6
520.6,16827.4
525.4327518,16750.2
530.2581327,16727
535.076155,16230.6
539.8868309,16686.6
544.6901726,16795.8
549.4861922,16329.2
554.2749019,16933.6
559.0563139,15953.6
563.8304402,15731.6
568.597293,16601
573.3568844,16334.4
578.1092263,15768.8
582.8543308,16243.6
587.5922101,16255
592.322876,15837.4
597.0463405,15967
601.7626157,16192.8
606.4717135,15988.2
611.1736458,15845.4
615.8684246,15987.2
620.5560617,16379.8
625.2365691,16491.6
629.9099585,17622.8
634.5762419,18634.6
639.2354312,18177.8
643.887538,17949.8
648.5325743,16964
653.1705518,16568.6
657.8014823,16567.8
662.4253775,15872.2
667.0422493,16126.4
671.6521092,16077.8
676.2549691,16182.8
680.8508407,16315.6
685.4397355,16111
690.0216654,16403.2
694.5966419,16517
699.1646767,17526.6
703.7257814,17224.6
708.2799676,17085.8
712.827247,17237.8
717.367631,16931
721.9011314,16557.6
726.4277595,15679.2
730.9475271,16075
735.4604456,15882.2
739.9665264,16394.8
744.4657813,15896.6
748.9582215,15821.4
753.4438587,15397.2
757.9227042,15193.2
762.3947696,15750.8
766.8600662,15255.2
771.3186056,16570.4
775.770399,15635
780.215458,16091
784.6537939,15470.8
789.0854181,15533.4
793.510342,15883.6
797.9285769,16794.2
802.3401342,16743.4
806.7450253,17058.4
811.1432614,16931.8
815.5348538,16676.4
819.9198139,16229.4
824.2981531,16284.2
828.6698824,16026.2
833.0350133,15545.2
837.393557,15063
841.7455248,15376.6
846.0909278,15006.8
850.4297774,14783.4
854.7620848,14912
859.0878611,15158.4
863.4071176,14410.6
867.7198655,14982.2
872.026116,15185.6
876.3258802,15762
880.6191693,15225.4
884.9059946,15200.6
889.186367,15726.4
893.4602979,14770.6
897.7277982,14812.6
901.9888793,15300.6
906.2435521,15804.8
910.4918277,15483
914.7337174,15601.4
918.9692321,15841.4
923.1983831,16438.6
927.4211813,16065
931.6376378,16668
935.8477637,16245.4
940.0515701,16636
944.249068,16964.4
948.4402684,16254
952.6251825,17115
956.8038212,16988.2
960.9761955,17671.6
965.1423166,17126
969.3021953,17283.2
973.4558427,17345
977.6032699,17130.6
981.7444877,17302.6
985.8795072,17061.4
990.0083394,17304.8
994.1309953,17290
998.2474857,18526.6
1002.357822,19206
1006.462014,20166
1010.560075,18247.4
1014.652013,16916.6
1018.737841,16305.4
1022.81757,15592.2
1026.891209,15351.8
1030.958771,15222.4
1035.020266,15630.8
1039.075705,15408
1043.1251,15235.6
1047.16846,15616
1051.205797,15905.2
1055.237121,16386
1059.262444,17742.8
1063.281777,20234
1067.295131,24872
1071.302515,32791.6
1075.303942,39509
1079.299422,43419.8
1083.288966,37808.8
1087.272585,28814.8
1091.250289,21843
1095.222091,18065.6
1099.187999,16161.8
1103.148026,15800.8
1107.102183,15482.2
1111.050479,15720
1114.992927,15769.2
1118.929536,16336.4
1122.860318,17533
1126.785283,18745
1130.704443,21468
1134.617808,26069.2
1138.52539,29507.4
1142.427198,29831.2
1146.323244,26405.4
1150.213538,21994
1154.098093,19548.6
1157.976917,17798.2
1161.850023,16993.8
1165.717421,17331.2
1169.579121,17098.4
1173.435135,17904.2
1177.285474,17803.4
1181.130148,18329.4
1184.969169,18648.8
1188.802547,17845.4
1192.630292,16760.6
1196.452416,15480.4
1200.26893,14895
1204.079844,14300.4
1207.88517,13747.8
1211.684917,14355.2
1215.479098,14002.4
1219.267722,15572.6
1223.050801,14126.2
1226.828346,14129.2
1230.600366,14474.2
1234.366874,14495.4
1238.12788,14352.4
1241.883395,14301.2
1245.633429,14569.6
1249.377994,14453.2
1253.1171,13717
1256.850759,13976.2
1260.578981,13815.8
1264.301776,14059
1268.019157,13847.4
1271.731133,13623
1275.437715,13591
1279.138915,14190.8
1282.834743,14298.8
1286.52521,14036.4
1290.210328,13814.8
1293.890106,14312.4
1297.564555,14980.6
1301.233688,14470
1304.897514,14856.2
1308.556044,14609.2
1312.209289,14466.8
1315.857261,13840.8
1319.499969,13861.8
1323.137425,14385.2
1326.769641,13924.8
1330.396626,14449.6
1334.018391,13930
1337.634948,14116.4
1341.246307,13939.8
1344.85248,14061.6
1348.453477,14039.6
1352.049309,14252
1355.639987,14599.8
1359.225522,15341.4
1362.805925,14948.6
1366.381207,15142.4
1369.951379,15519.4
1373.516452,15836.4
1377.076436,16484.8
1380.631343,17334
1384.181184,18638
1387.725969,20033.2
1391.26571,19961.8
1394.800417,18371.2
1398.330102,16469.8
1401.854776,15249.8
1405.374448,14532.4
1408.889132,13971.4
1412.398837,13916.4
1415.903574,14986.4
1419.403355,16625.2
1422.89819,18029
1426.388091,20066
1429.873069,22500
1433.353134,23029
1436.828298,22770
1440.298571,21377
1443.763965,19253.6
1447.224491,17243.2
1450.68016,15782.6
1454.130983,15283.2
1457.576971,14635
1461.018135,14698.6
1464.454486,14637
1467.886036,14440
1471.312794,14682
1474.734774,14355.8
1478.151985,14611.6
1481.564439,14244.8
1484.972146,14616.2
1488.375119,14595
1491.773368,14874
1495.166904,14838.8
1498.555739,13573.8
1501.939883,13318
1505.319349,12820
1508.694146,13084.6
1512.064286,13114.8
1515.429781,12930
1518.790642,12793.4
1522.146879,13042.2
1525.498505,12742
1528.845529,12834.8
1532.187965,13576.2
1535.525822,13497
1538.859112,13629.6
1542.187846,14407.4
1545.512036,13818.4
1548.831693,15269.8
1552.146829,15143.6
1555.457453,14763.4
1558.763579,14884
1562.065216,15723.8
1565.362377,16450.8
1568.655073,17423.8
1571.943315,17967.6
1575.227114,18749
1578.506482,19269
1581.781431,20269.6
1585.051971,20786
1588.318114,21516.4
1591.579872,21591.8
1594.837255,20535
1598.090275,18849.4
1601.338945,17030.8
1604.583274,15673.8
1607.823275,14398
1611.058959,13456.4
1614.290338,14258.4
1617.517422,12766
1620.740224,13075
1623.958755,12399.2
1627.173027,12457.6
1630.38305,12141.4
1633.588838,12275.2
1636.7904,11900
1639.987749,12073.4
1643.180896,12088
1646.369853,11437.6
1649.554632,12132.4
1652.735244,11534.2
1655.9117,11140.4
1659.084013,11476.6
1662.252193,11942.2
1665.416254,11205
1668.576205,11458
1671.732059,11705
1674.883828,11706.4
1678.031523,11288.6
1681.175157,11271.2
1684.314739,11321.4
1687.450284,11272
1690.581801,11236
1693.709304,11038
1696.832803,11097.4
1699.952311,11373
1703.067839,11352.6
1706.179399,11214.8
1709.287003,11664.4
1712.390663,11305.8
1715.49039,11346.8
1718.586197,11546.4
1721.678095,11353.8
1724.766096,11407
1727.850213,10868.6
1730.930456,11161.2
1734.006838,10953.4
1737.079372,11220.6
1740.148067,10906.4
1743.212938,11874.8
1746.273996,11105
1749.331252,11081.4
1752.384718,11141.6
1755.434408,11072.4
1758.480332,11022.8
1761.522503,11069.4
1764.560933,10918.6
1767.595634,10739.4
1770.626618,11309.4
1773.653896,11275
1776.677482,10953.4
1779.697388,10875.2
1782.713625,11398
1785.726205,11347
1788.735141,11256.4
1791.740445,10982
1794.742129,10852.4
1797.740206,11301.2
1800.734687,11315
1803.725585,11068.8
1806.712912,11099.2
1809.69668,10823.4
1812.676902,10876.4
1815.65359,10674.8
1818.626756,10786.4
1821.596413,10879.2
1824.562573,10534
1827.525247,10849.4
1830.48445,10636.4
1833.440192,10911
1836.392487,10783.2
1839.341347,10926.2
1842.286784,10921.8
1845.22881,10532.2
1848.167439,11025
1851.102682,10849.6
1854.034553,10754.6
1856.963063,10636.4
1859.888226,11439.2
1862.810053,10963
1865.728557,10808.4
1868.643751,10597.8
1871.555648,10555.8
1874.46426,10405.2
1877.369599,10841.8
1880.271679,10715.6
1883.170512,10630.6
1886.06611,11058.4
1888.958487,10769.8
1891.847655,10690
1894.733626,10868
1897.616414,10975
1900.496032,10521
1903.372491,10832.4
1906.245805,11049.8
1909.115987,11173.4
1911.983049,11014.2
1914.847004,10954
1917.707866,11164.2
1920.565646,11004.2
1923.420359,10722.2
1926.272016,10981.2
1929.120631,10657.2
1931.966216,10760.8
1934.808786,10736
1937.648351,11055
1940.484927,10875.4
1943.318525,10932.4
1946.149158,11166.8
1948.97684,12153
1951.801584,11154.4
1954.623403,10968.8
1957.44231,11081
1960.258318,10698.8
1963.071439,10657.2
1965.881688,10835.8
1968.689078,10937.4
1971.493621,10803.4
