Ramanshift[cm-1],Intensity
-93.47115107,13445.4
-87.69374369,12114
-81.9253076,12049
-76.16582701,12098.4
-70.41528615,12189.6
-64.67366933,11816.6
-58.94096086,11819
-53.21714512,12004.2
-47.50220652,12154
-41.79612954,12161.4
-36.09889866,12538
-30.41049843,12646.8
-24.73091343,12326.6
-19.0601283,12330.2
-13.39812769,12135.4
-7.744896327,11958
-2.100418946,11781.8
3.535319659,12384.6
9.162334658,11765.8
14.78064118,12110
20.39025432,11774.8
25.99118913,11847.6
31.58346061,12252.2
37.16708375,12045
42.74207347,11770.6
48.30844468,11730.8
53.86621222,11701.4
59.41539093,11314.8
64.95599558,11322.8
70.48804091,11717
76.01154164,11831
81.52651243,11189.2
87.03296792,11633.6
92.5309227,11970
98.02039134,11355.6
103.5013884,11639.4
108.9739282,11472
114.4380255,11424.8
119.8936944,11623.8
125.3409495,12486.2
130.779805,11397
136.2102753,11169.4
141.6323747,11241
147.0461174,11759
152.4515176,11433.2
157.8485895,11322.6
163.2373472,11251.4
168.6178049,11537.2
173.9899766,11784.2
179.3538764,11365.2
184.7095182,11395
190.0569161,11693.4
195.396084,11877.8
200.7270358,11180.4
206.0497854,11325.8
211.3643466,11027
216.6707333,11421.6
221.9689593,11082
227.2590382,11257.6
232.5409839,11235.4
237.8148101,11079
243.0805303,11303.6
248.3381582,11301.2
253.5877075,11163.4
258.8291917,11228.2
264.0626244,11142.4
269.288019,11470.6
274.5053891,11578
279.7147481,11236
284.9161094,11044.2
290.1094865,11182
295.2948927,11548.8
300.4723414,12732
305.6418459,13178.4
310.8034194,13717.4
315.9570752,14707.8
321.1028267,14851
326.2406869,14768
331.370669,15030.2
336.4927863,15001.4
341.6070517,15058.4
346.7134786,14920.4
351.8120798,15207.4
356.9028684,14812
361.9858576,14981
367.0610602,15401.8
372.1284892,14977.4
377.1881577,15452.8
382.2400784,15478.4
387.2842644,15614.2
392.3207284,15892.6
397.3494833,15482.2
402.370542,15627.4
407.3839172,15165
412.3896217,14734.8
417.3876683,14349.4
422.3780697,14500.8
427.3608386,14613.2
432.3359876,14868.6
437.3035295,15079.6
442.2634769,15103.8
447.2158423,14438.2
452.1606383,14465
457.0978776,14807.4
462.0275727,13945.2
466.9497361,14606.6
471.8643802,13938.8
476.7715176,14407.2
481.6711608,14398.4
486.5633221,14582.6
491.448014,14444.4
496.3252488,14441.6
501.195039,14442.4
506.0573969,14675.2
510.9123349,14413.4
515.7598651,13992
520.6,14374.4
525.4327518,14324.8
530.2581327,14498.6
535.076155,13985.8
539.8868309,14296.8
544.6901726,14348.4
549.4861922,14151.2
554.2749019,15105.4
559.0563139,14066.2
563.8304402,13985
568.597293,14928
573.3568844,14618.4
578.1092263,14077
582.8543308,14592.4
587.5922101,14468.4
592.322876,14097.2
597.0463405,14311
601.7626157,14510.6
606.4717135,14046
611.1736458,14135.2
615.8684246,14188.6
620.5560617,14457.8
625.2365691,14104
629.9099585,14525.6
634.5762419,14784.6
639.2354312,14179.6
643.887538,14387.2
648.5325743,14016
653.1705518,14054.4
657.8014823,14228.4
662.4253775,13652.6
667.0422493,14059.6
671.6521092,14020.8
676.2549691,14255
680.8508407,14084.4
685.4397355,13999
690.0216654,14151.2
694.5966419,13920
699.1646767,14390.4
703.7257814,14002.2
708.2799676,14221.4
712.827247,14322.4
717.367631,14048.4
721.9011314,14107.4
726.4277595,13511.6
730.9475271,14030.8
735.4604456,13949.6
739.9665264,14551.4
744.4657813,14035
748.9582215,14022.4
753.4438587,13547
757.9227042,13444.8
762.3947696,14016.8
766.8600662,13542.6
771.3186056,14880.4
775.770399,13848.4
780.215458,14263.6
784.6537939,13549.2
789.0854181,13544.2
793.510342,13601
797.9285769,14085.2
802.3401342,13460.8
806.7450253,13763.4
811.1432614,13639.8
815.5348538,13555.4
819.9198139,13328.4
824.2981531,13572.6
828.6698824,13673.6
833.0350133,13604
837.393557,13198.2
841.7455248,13617.6
846.0909278,13324.8
850.4297774,13392.2
854.7620848,13468.6
859.0878611,13656
863.4071176,13010.6
867.7198655,13516.8
872.026116,13805
876.3258802,14258.2
880.6191693,13838.6
884.9059946,13741
889.186367,14189.6
893.4602979,13107.8
897.7277982,13105.2
901.9888793,13558.2
906.2435521,13859.6
910.4918277,13285.8
914.7337174,13208.6
918.9692321,13078.4
923.1983831,13776
927.4211813,13362.4
931.6376378,14044.2
935.8477637,13493.6
940.0515701,13724.2
944.249068,13645.4
948.4402684,12953.4
952.6251825,13761
956.8038212,13351.8
960.9761955,14006.6
965.1423166,13403
969.3021953,13505.8
973.4558427,13546.8
977.6032699,13297.8
981.7444877,13408.8
985.8795072,13388.6
990.0083394,13510.2
994.1309953,13164.6
998.2474857,13549.6
1002.357822,12759.8
1006.462014,13305.2
1010.560075,13102
1014.652013,13489.6
1018.737841,13727.8
1022.81757,13377
1026.891209,13216
1030.958771,13098.4
1035.020266,13428.8
1039.075705,13240.6
1043.1251,12881.4
1047.16846,13222.6
1051.205797,13204.4
1055.237121,12798.6
1059.262444,12818.8
1063.281777,12563.4
1067.295131,12567
1071.302515,13727.4
1075.303942,13185.4
1079.299422,14042.4
1083.288966,13654.4
1087.272585,13319.2
1091.250289,13315.4
1095.222091,13292
1099.187999,13059.2
1103.148026,13141.2
1107.102183,13045.8
1111.050479,13185
1114.992927,13052.8
1118.929536,13015.4
1122.860318,13232.8
1126.785283,12763.8
1130.704443,12621.4
1134.617808,13360.6
1138.52539,13162.2
1142.427198,13162
1146.323244,13237.2
1150.213538,12876.4
1154.098093,13310.4
1157.976917,12696.4
1161.850023,12655.8
1165.717421,13227.6
1169.579121,12892.4
1173.435135,13288.8
1177.285474,12439.8
1181.130148,12551.6
1184.969169,12973.2
1188.802547,12931.2
1192.630292,12583
1196.452416,12292
1200.26893,12467.6
1204.079844,12335.2
1207.88517,11910.4
1211.684917,12453.2
1215.479098,12275.4
1219.267722,13632
1223.050801,12289.2
1226.828346,12222
1230.600366,12523
1234.366874,12673.4
1238.12788,12380
1241.883395,12345.8
1245.633429,12628.4
1249.377994,12663.2
1253.1171,12001
1256.850759,12357.8
1260.578981,12227.2
1264.301776,12365.2
1268.019157,12288.6
1271.731133,11983.8
1275.437715,11875.4
1279.138915,12361.8
1282.834743,12654
1286.52521,12253.4
1290.210328,12032.8
1293.890106,12214.2
1297.564555,12667
1301.233688,12060.2
1304.897514,12332
1308.556044,12525.8
1312.209289,12453
1315.857261,11862.8
1319.499969,12043.2
1323.137425,12733.8
1326.769641,12328.6
1330.396626,12924.4
1334.018391,12323
1337.634948,12466.6
1341.246307,12240.6
1344.85248,12073
1348.453477,12008.8
1352.049309,11969.6
1355.639987,12045
1359.225522,12569.2
1362.805925,12147.6
1366.381207,12202.6
1369.951379,12371.8
1373.516452,12385.8
1377.076436,12493.2
1380.631343,12293.8
1384.181184,12135
1387.725969,12240.6
1391.26571,11947.2
1394.800417,11823.2
1398.330102,12070.8
1401.854776,12214.8
1405.374448,12144.2
1408.889132,11735.6
1412.398837,11462.6
1415.903574,11792.6
1419.403355,12394.6
1422.89819,11942.4
1426.388091,11836.4
1429.873069,12321.4
1433.353134,11845
1436.828298,11814.6
1440.298571,12049.6
1443.763965,11739.6
1447.224491,11628.4
1450.68016,11762.8
1454.130983,12184.4
1457.576971,12119
1461.018135,12236
1464.454486,12340.4
1467.886036,11911.4
1471.312794,11929.4
1474.734774,11680
1478.151985,12339.8
1481.564439,12103.8
1484.972146,12041.4
1488.375119,11605
1491.773368,12022.8
1495.166904,12594.6
1498.555739,11909.6
1501.939883,11987
1505.319349,11532
1508.694146,11982.4
1512.064286,11963.4
1515.429781,11893.2
1518.790642,11706
1522.146879,11951
1525.498505,11612
1528.845529,11548.4
1532.187965,12204.4
1535.525822,11838.6
1538.859112,11908.2
1542.187846,12413.2
1545.512036,11528.2
1548.831693,12825
1552.146829,12321.8
1555.457453,11527.8
1558.763579,11172.6
1562.065216,11645.8
1565.362377,11892.6
1568.655073,12152
1571.943315,11941.8
1575.227114,11838.8
1578.506482,11866.8
1581.781431,12371
1585.051971,11958.6
1588.318114,11919.6
1591.579872,11993.2
1594.837255,11828.2
1598.090275,11725.2
1601.338945,11675.6
1604.583274,12078.6
1607.823275,11843.2
1611.058959,11433.6
1614.290338,12515
1617.517422,11312
1620.740224,11699.2
1623.958755,11376.2
1627.173027,11418.2
1630.38305,11115
1633.588838,11631.4
1636.7904,11361.8
1639.987749,11543.2
1643.180896,11787.6
1646.369853,11122
1649.554632,11901.4
1652.735244,11385.4
1655.9117,11088.6
1659.084013,11486.8
1662.252193,12119.8
1665.416254,11113.2
1668.576205,11447.8
1671.732059,11755.8
1674.883828,11804.6
1678.031523,11254
1681.175157,11376.4
1684.314739,11423.2
1687.450284,11314.4
1690.581801,11267
1693.709304,11133.8
1696.832803,11173.8
1699.952311,11312.4
1703.067839,11390.2
1706.179399,11299.2
1709.287003,11791.6
1712.390663,11223.2
1715.49039,11336
1718.586197,11722.2
1721.678095,11507.2
1724.766096,11507
1727.850213,10963
1730.930456,11300.8
1734.006838,11125
1737.079372,11440.4
1740.148067,11100.6
1743.212938,12200.2
1746.273996,11316.8
1749.331252,11256.6
1752.384718,11369.4
1755.434408,11469
1758.480332,11343
1761.522503,11401.6
1764.560933,11208.6
1767.595634,10980
1770.626618,11556
1773.653896,11615.4
1776.677482,11239
1779.697388,11242.6
1782.713625,11793.2
1785.726205,11707.4
1788.735141,11584.4
1791.740445,11212.2
1794.742129,11079.4
1797.740206,11603.6
1800.734687,11647.8
1803.725585,11367.2
1806.712912,11538.8
1809.69668,11203.2
1812.676902,11254.6
1815.65359,11016
1818.626756,11023
1821.596413,11268.2
1824.562573,10866.8
1827.525247,11330.6
1830.48445,11005.4
1833.440192,11214.8
1836.392487,11199.8
1839.341347,11284
1842.286784,11340.6
1845.22881,10918.8
1848.167439,11428.6
1851.102682,11217
1854.034553,11163.6
1856.963063,11018.6
1859.888226,11890.2
1862.810053,11353
1865.728557,11260.8
1868.643751,10922.2
1871.555648,11008.6
1874.46426,10800.4
1877.369599,11328.8
1880.271679,11197.6
1883.170512,11025.4
1886.06611,11479
1888.958487,11176.4
1891.847655,11131.4
1894.733626,11246.4
1897.616414,11391
1900.496032,10897
1903.372491,11173
1906.245805,11536.2
1909.115987,11529.4
1911.983049,11447.6
1914.847004,11409.4
1917.707866,11536.6
1920.565646,11375
1923.420359,11110.8
1926.272016,11382.2
1929.120631,11081
1931.966216,11280.4
1934.808786,11160.8
1937.648351,11440.6
1940.484927,11327.2
1943.318525,11509.6
1946.149158,11641.8
1948.97684,12783.4
1951.801584,11699
1954.623403,11496.4
1957.44231,11624
1960.258318,11029.4
1963.071439,11110
1965.881688,11346.6
1968.689078,11482.6
1971.493621,11162.8
