Ramanshift[cm-1],Intensity
-93.47115107,13712
-87.69374369,12398.8
-81.9253076,12224.6
-76.16582701,12387.4
-70.41528615,12475.2
-64.67366933,12126
-58.94096086,12035.4
-53.21714512,12242.8
-47.50220652,12330.8
-41.79612954,12425.8
-36.09889866,12879.2
-30.41049843,12944
-24.73091343,12521.8
-19.0601283,12540
-13.39812769,12366.4
-7.744896327,12073.2
-2.100418946,11999.8
3.535319659,12613.4
9.162334658,11991.4
14.78064118,12271.2
20.39025432,11987
25.99118913,11992.8
31.58346061,12482
37.16708375,12231.8
42.74207347,11943.6
48.30844468,11988.2
53.86621222,11879.8
59.41539093,11550.2
64.95599558,11521.6
70.48804091,11904.8
76.01154164,12011
81.52651243,11415.6
87.03296792,11912
92.5309227,12271.4
98.02039134,11570.2
103.5013884,11762.2
108.9739282,11725
114.4380255,11651.4
119.8936944,11858.2
125.3409495,12806.8
130.779805,11601.4
136.2102753,11409.6
141.6323747,11446.6
147.0461174,12009.6
152.4515176,11690
157.8485895,11515.6
163.2373472,11487.6
168.6178049,11731.4
173.9899766,12007.6
179.3538764,11469.8
184.7095182,11631.8
190.0569161,11900.2
195.396084,12009.8
200.7270358,11500
206.0497854,11542.6
211.3643466,11215.4
216.6707333,11652.8
221.9689593,11240.2
227.2590382,11478.2
232.5409839,11370.4
237.8148101,11298.2
243.0805303,11469.4
248.3381582,11436.2
253.5877075,11191
258.8291917,11497.4
264.0626244,11578.2
269.288019,11738.6
274.5053891,11786.8
279.7147481,11370.4
284.9161094,11261.6
290.1094865,11427.2
295.2948927,11970
300.4723414,13315.6
305.6418459,14120.8
310.8034194,15193.2
315.9570752,16236.2
321.1028267,16375.8
326.2406869,16576
331.370669,16652.4
336.4927863,16614.4
341.6070517,16816.6
346.7134786,16762
351.8120798,17114.6
356.9028684,16839.6
361.9858576,16989.4
367.0610602,17295.4
372.1284892,17142.6
377.1881577,17909
382.2400784,18651.6
387.2842644,19594
392.3207284,20093.8
397.3494833,19222.8
402.370542,18811.4
407.3839172,17747.4
412.3896217,17026.2
417.3876683,16449.6
422.3780697,16344.2
427.3608386,16331.4
432.3359876,16612.2
437.3035295,16761.2
442.2634769,16767.8
447.2158423,15997
452.1606383,16057.4
457.0978776,16304.2
462.0275727,15654.8
466.9497361,16165.8
471.8643802,15615.2
476.7715176,16176.6
481.6711608,16128.6
486.5633221,16369.2
491.448014,16218.8
496.3252488,16000
501.195039,15990.2
506.0573969,16238.2
510.9123349,16119.2
515.7598651,15470.2
520.6,15970.4
525.4327518,15995.8
530.2581327,16029.8
535.076155,15458.2
539.8868309,15797.6
544.6901726,16011.6
549.4861922,15624.6
554.2749019,16551.4
559.0563139,15563.4
563.8304402,15345.8
568.597293,16355.8
573.3568844,15959.6
578.1092263,15618.8
582.8543308,16015.8
587.5922101,15902.2
592.322876,15486.6
597.0463405,15667.4
601.7626157,15990.8
606.4717135,15559.2
611.1736458,15539.8
615.8684246,15700.2
620.5560617,15926.8
625.2365691,15502.8
629.9099585,16009
634.5762419,16212.4
639.2354312,15681.2
643.887538,15765.4
648.5325743,15481
653.1705518,15442
657.8014823,15727
662.4253775,15080.8
667.0422493,15466.8
671.6521092,15350.2
676.2549691,15650.8
680.8508407,15498.6
685.4397355,15352.8
690.0216654,15452.2
694.5966419,15267.2
699.1646767,15830.8
703.7257814,15558
708.2799676,15761.2
712.827247,15849.8
717.367631,15463
721.9011314,15431.4
726.4277595,14798
730.9475271,15451.6
735.4604456,15350
739.9665264,15856.4
744.4657813,15402
748.9582215,15173.8
753.4438587,14834.6
757.9227042,14618.6
762.3947696,15192.4
766.8600662,14731.4
771.3186056,16098.4
775.770399,15261
780.215458,15601.4
784.6537939,14828
789.0854181,14651
793.510342,14864.2
797.9285769,15574.4
802.3401342,14991.8
806.7450253,15086.2
811.1432614,14894.2
815.5348538,14719.4
819.9198139,14491.2
824.2981531,14745
828.6698824,14890.6
833.0350133,14634
837.393557,14309
841.7455248,14721.4
846.0909278,14415.4
850.4297774,14288.8
854.7620848,14475.2
859.0878611,14703.8
863.4071176,14159.4
867.7198655,14607.4
872.026116,14959.6
876.3258802,15301.8
880.6191693,14806.6
884.9059946,14934
889.186367,15315.6
893.4602979,14251.8
897.7277982,14318.8
901.9888793,14676.6
906.2435521,15069.4
910.4918277,14526.4
914.7337174,14389
918.9692321,14423.2
923.1983831,15023
927.4211813,14677
931.6376378,15341
935.8477637,14795.8
940.0515701,14912.2
944.249068,15012.2
948.4402684,14119.2
952.6251825,15115.8
956.8038212,14717
960.9761955,15297.4
965.1423166,14821
969.3021953,14855.6
973.4558427,14904.4
977.6032699,14647.2
981.7444877,14677
985.8795072,14644.4
990.0083394,14782.2
994.1309953,14397.8
998.2474857,14802.4
1002.357822,14100.4
1006.462014,14556.4
1010.560075,14362.4
1014.652013,14532.4
1018.737841,14886
1022.81757,14373
1026.891209,14281.8
1030.958771,14225
1035.020266,14573
1039.075705,14305.8
1043.1251,13933.6
1047.16846,14286
1051.205797,14257.8
1055.237121,14089
1059.262444,14123.8
1063.281777,14180
1067.295131,14697.2
1071.302515,16309.8
1075.303942,16329.8
1079.299422,17108.6
1083.288966,15994.2
1087.272585,15125.8
1091.250289,14498.8
1095.222091,14507.2
1099.187999,14089.6
1103.148026,14170.8
1107.102183,13933.6
1111.050479,14162.4
1114.992927,14116.6
1118.929536,13996.4
1122.860318,14409.4
1126.785283,13990.8
1130.704443,14152.6
1134.617808,15053
1138.52539,15092.4
1142.427198,14903
1146.323244,14812.8
1150.213538,14253.6
1154.098093,14511.2
1157.976917,13875.4
1161.850023,13788
1165.717421,14274.6
1169.579121,13979.6
1173.435135,14505
1177.285474,13682.4
1181.130148,13887
1184.969169,14334.4
1188.802547,14162
1192.630292,13760.4
1196.452416,13470.4
1200.26893,13455.2
1204.079844,13286.6
1207.88517,12821.6
1211.684917,13469
1215.479098,13040
1219.267722,14709.8
1223.050801,13225.6
1226.828346,13253.2
1230.600366,13526.8
1234.366874,13699.6
1238.12788,13262.6
1241.883395,13381.6
1245.633429,13560.4
1249.377994,13698.4
1253.1171,12912.2
1256.850759,13382.2
1260.578981,13172.2
1264.301776,13265.4
1268.019157,13231.8
1271.731133,13003.6
1275.437715,12826
1279.138915,13424.2
1282.834743,13676.6
1286.52521,13217.6
1290.210328,13082.4
1293.890106,13199.4
1297.564555,13612
1301.233688,13091
1304.897514,13415.6
1308.556044,13468.6
1312.209289,13516.4
1315.857261,12992.6
1319.499969,13062
1323.137425,13802.2
1326.769641,13236.2
1330.396626,13858.6
1334.018391,13187.4
1337.634948,13387.2
1341.246307,13023.4
1344.85248,12986.6
1348.453477,12814.2
1352.049309,12962.2
1355.639987,12952.6
1359.225522,13593.8
1362.805925,13145.6
1366.381207,13166
1369.951379,13320.6
1373.516452,13262.2
1377.076436,13486.2
1380.631343,13440.2
1384.181184,13267
1387.725969,13523.8
1391.26571,13201.4
1394.800417,12937.4
1398.330102,13118.6
1401.854776,13297.4
1405.374448,13106.8
1408.889132,12586.2
1412.398837,12283
1415.903574,12880.6
1419.403355,13554
1422.89819,13112.2
1426.388091,13140
1429.873069,13654.2
1433.353134,13003.8
1436.828298,13052.6
1440.298571,13092.6
1443.763965,12757.6
1447.224491,12653
1450.68016,12595
1454.130983,13112.4
1457.576971,12898.6
1461.018135,13019
1464.454486,13138.2
1467.886036,12731.8
1471.312794,12755.4
1474.734774,12470.2
1478.151985,13208.6
1481.564439,12911.2
1484.972146,12846.2
1488.375119,12400.2
1491.773368,12757.4
1495.166904,13329.2
1498.555739,12595.4
1501.939883,12724
1505.319349,12318.8
1508.694146,12707
1512.064286,12690.2
1515.429781,12636
1518.790642,12421.4
1522.146879,12726.2
1525.498505,12168.4
1528.845529,12209.4
1532.187965,12936.2
1535.525822,12616.4
1538.859112,12558.8
1542.187846,13110.8
1545.512036,12232.8
1548.831693,13571
1552.146829,13130
1555.457453,12283.8
1558.763579,12095
1562.065216,12623
1565.362377,12858.6
1568.655073,13218.6
1571.943315,13040.8
1575.227114,13113.2
1578.506482,13099.2
1581.781431,13603
1585.051971,13388
1588.318114,13519.8
1591.579872,13425
1594.837255,12956.2
1598.090275,12709.2
1601.338945,12518.4
1604.583274,12840.4
1607.823275,12481.6
1611.058959,12089.2
1614.290338,13214.4
1617.517422,11924
1620.740224,12318.2
1623.958755,11939.4
1627.173027,11939.4
1630.38305,11643.6
1633.588838,12179.6
1636.7904,11861.2
1639.987749,12138.4
1643.180896,12237.4
1646.369853,11663.8
1649.554632,12473.2
1652.735244,11744.6
1655.9117,11518.4
1659.084013,11886.4
1662.252193,12452.6
1665.416254,11634
1668.576205,11937
1671.732059,12202.8
1674.883828,12232.6
1678.031523,11740.4
1681.175157,11853.2
1684.314739,11788.6
1687.450284,11828.2
1690.581801,11649.6
1693.709304,11513.6
1696.832803,11481
1699.952311,11713
1703.067839,11759
1706.179399,11716.8
1709.287003,12173.2
1712.390663,11698.4
1715.49039,11715.6
1718.586197,12154.4
1721.678095,11972
1724.766096,11920.8
1727.850213,11466.6
1730.930456,11772.8
1734.006838,11579.4
1737.079372,11873.4
1740.148067,11382.6
1743.212938,12480
1746.273996,11719
1749.331252,11723.8
1752.384718,11702.4
1755.434408,11807
1758.480332,11707.2
1761.522503,11821.8
1764.560933,11556.6
1767.595634,11290.8
1770.626618,11912.6
1773.653896,11936.6
1776.677482,11671.8
1779.697388,11550.8
1782.713625,12073
1785.726205,12040.4
1788.735141,11951.4
1791.740445,11623.2
1794.742129,11455.2
1797.740206,12030.6
1800.734687,12063.6
1803.725585,11803
1806.712912,11838.2
1809.69668,11419.2
1812.676902,11519.4
1815.65359,11241.2
1818.626756,11352.4
1821.596413,11460.4
1824.562573,11206.4
1827.525247,11523.6
1830.48445,11304
1833.440192,11521.6
1836.392487,11377.8
1839.341347,11641.2
1842.286784,11624.8
1845.22881,11133.6
1848.167439,11720.4
1851.102682,11475.8
1854.034553,11487.6
1856.963063,11233.2
1859.888226,12161.6
1862.810053,11706
1865.728557,11440.4
1868.643751,11247.6
1871.555648,11232
1874.46426,11059.6
1877.369599,11622.4
1880.271679,11482.8
1883.170512,11265.4
1886.06611,11758
1888.958487,11389.8
1891.847655,11436.6
1894.733626,11567.6
1897.616414,11682.6
1900.496032,11166.4
1903.372491,11520
1906.245805,11798
1909.115987,11857.2
1911.983049,11844.2
1914.847004,11724.6
1917.707866,11810.4
1920.565646,11792.8
1923.420359,11383.2
1926.272016,11572.4
1929.120631,11335.8
1931.966216,11509.8
1934.808786,11487.4
1937.648351,11750.6
1940.484927,11587.8
1943.318525,11776.6
1946.149158,11974.6
1948.97684,13041
1951.801584,11904
1954.623403,11706.8
1957.44231,11842.2
1960.258318,11416.8
1963.071439,11459.2
1965.881688,11602.2
1968.689078,11733.2
1971.493621,11421.8
