Ramanshift[cm-1],Intensity
-93.47115107,12270.4
-87.69374369,11134.2
-81.9253076,10968.2
-76.16582701,11068.4
-70.41528615,11024.6
-64.67366933,10834
-58.94096086,10753.8
-53.21714512,11050
-47.50220652,11153.4
-41.79612954,11051.6
-36.09889866,11574.4
-30.41049843,11620.2
-24.73091343,11242.6
-19.0601283,11315.2
-13.39812769,11186.2
-7.744896327,10895.4
-2.100418946,10730.8
3.535319659,11298
9.162334658,10802.6
14.78064118,11096.8
20.39025432,10693
25.99118913,10804.6
31.58346061,11233
37.16708375,11043.8
42.74207347,10822.6
48.30844468,10744.6
53.86621222,10673.6
59.41539093,10279.4
64.95599558,10379.8
70.48804091,10705.8
76.01154164,10770.4
81.52651243,10232.2
87.03296792,10671.2
92.5309227,10946.2
98.02039134,10380.2
103.5013884,10693.4
108.9739282,10491
114.4380255,10493.4
119.8936944,10647.6
125.3409495,11477.2
130.779805,10499.2
136.2102753,10241.8
141.6323747,10349.8
147.0461174,10749.2
152.4515176,10464.6
157.8485895,10417.2
163.2373472,10323.6
168.6178049,10597.2
173.9899766,10786.4
179.3538764,10432
184.7095182,10511.8
190.0569161,10655.6
195.396084,10878.8
200.7270358,10291.8
206.0497854,10377.6
211.3643466,10116.8
216.6707333,10480
221.9689593,10100.2
227.2590382,10324.6
232.5409839,10269.2
237.8148101,10234.2
243.0805303,10310.2
248.3381582,10366
253.5877075,10073.6
258.8291917,10256.8
264.0626244,10366
269.288019,10445.2
274.5053891,10620.8
279.7147481,10380.2
284.9161094,10204.8
290.1094865,10373
295.2948927,11041.8
300.4723414,12660.2
305.6418459,14036.4
310.8034194,15381.4
315.9570752,16868.2
321.1028267,17085.2
326.2406869,17494.2
331.370669,17996.8
336.4927863,18303.2
341.6070517,18463.8
346.7134786,18327.6
351.8120798,18670.2
356.9028684,18455.2
361.9858576,18743.8
367.0610602,19406
372.1284892,20094.6
377.1881577,23188.6
382.2400784,28218
387.2842644,34425.6
392.3207284,36494.6
397.3494833,32625
402.370542,27773
407.3839172,23196.8
412.3896217,20315.6
417.3876683,18751.2
422.3780697,17877.2
427.3608386,17319.6
432.3359876,17177
437.3035295,17071.2
442.2634769,17113.4
447.2158423,16288.2
452.1606383,16220.8
457.0978776,16425.4
462.0275727,15737.6
466.9497361,16283
471.8643802,15860.8
476.7715176,16365
481.6711608,16374
486.5633221,16962.8
491.448014,16614.2
496.3252488,16726.8
501.195039,16765.8
506.0573969,17067.6
510.9123349,16792.6
515.7598651,16114.2
520.6,16201
525.4327518,16083.8
530.2581327,16118.8
535.076155,15720.8
539.8868309,15976.4
544.6901726,16239.2
549.4861922,15818.6
554.2749019,16524.2
559.0563139,15512.8
563.8304402,15446.8
568.597293,16259.4
573.3568844,15929.2
578.1092263,15455.6
582.8543308,15849.4
587.5922101,15770.6
592.322876,15494
597.0463405,15563
601.7626157,15818.2
606.4717135,15479.6
611.1736458,15511.6
615.8684246,15536.4
620.5560617,15813.2
625.2365691,15982.8
629.9099585,17114
634.5762419,17867
639.2354312,17549.8
643.887538,17587.8
648.5325743,16560.4
653.1705518,16225.6
657.8014823,16059.2
662.4253775,15440
667.0422493,15797.6
671.6521092,15651.6
676.2549691,15918.2
680.8508407,15958.8
685.4397355,15743
690.0216654,15943.6
694.5966419,16122.8
699.1646767,16761.8
703.7257814,16621.4
708.2799676,16704.6
712.827247,16626.4
717.367631,16279
721.9011314,16069.4
726.4277595,15269
730.9475271,15803
735.4604456,15537.8
739.9665264,16083.4
744.4657813,15501.8
748.9582215,15398
753.4438587,15007.6
757.9227042,14844.8
762.3947696,15384.6
766.8600662,14928.4
771.3186056,16190
775.770399,15248.2
780.215458,15663
784.6537939,15062.2
789.0854181,15197.8
793.510342,15557.4
797.9285769,16286
802.3401342,16063.2
806.7450253,16309.6
811.1432614,16391.6
815.5348538,16174.8
819.9198139,15679.6
824.2981531,15680
828.6698824,15620.8
833.0350133,15255
837.393557,14657.8
841.7455248,14990.6
846.0909278,14616.2
850.4297774,14577
854.7620848,14548.2
859.0878611,14710.8
863.4071176,14178.6
867.7198655,14799
872.026116,14928.6
876.3258802,15499.4
880.6191693,14898
884.9059946,14893.4
889.186367,15422.2
893.4602979,14339.8
897.7277982,14413.4
901.9888793,14891.2
906.2435521,15381.6
910.4918277,14962.2
914.7337174,15204.4
918.9692321,15279.6
923.1983831,15852.2
927.4211813,15540.4
931.6376378,16162.6
935.8477637,15796.4
940.0515701,16061.2
944.249068,16234.4
948.4402684,15648.2
952.6251825,16503.4
956.8038212,16292
960.9761955,16863.4
965.1423166,16511.8
969.3021953,16662.6
973.4558427,16555.8
977.6032699,16447.4
981.7444877,16537.2
985.8795072,16529.6
990.0083394,16725.2
994.1309953,16520.8
998.2474857,17750.4
1002.357822,18008
1006.462014,18914.4
1010.560075,17745.8
1014.652013,16690.4
1018.737841,16104.6
1022.81757,15251
1026.891209,15014.2
1030.958771,14766.6
1035.020266,15094.6
1039.075705,14816
1043.1251,14681.2
1047.16846,15059.4
1051.205797,15261.4
1055.237121,15616.8
1059.262444,16583.4
1063.281777,18396.2
1067.295131,22012.4
1071.302515,28580.6
1075.303942,34030.4
1079.299422,38119.6
1083.288966,35178.6
1087.272585,28514.2
1091.250289,22283.6
1095.222091,18356.6
1099.187999,16040.2
1103.148026,15410.8
1107.102183,15000.4
1111.050479,15065.6
1114.992927,15129
1118.929536,15347.4
1122.860318,16333.8
1126.785283,17228
1130.704443,19312.4
1134.617808,22627.2
1138.52539,25176.2
1142.427198,25698.6
1146.323244,24071
1150.213538,20926.6
1154.098093,19094.2
1157.976917,17058.8
1161.850023,16233.6
1165.717421,16602.2
1169.579121,16432.2
1173.435135,16913.2
1177.285474,16664.6
1181.130148,17217.6
1184.969169,17341
1188.802547,16870.4
1192.630292,15854.2
1196.452416,14955.6
1200.26893,14422.8
1204.079844,13829.2
1207.88517,13303.8
1211.684917,13811.6
1215.479098,13399.2
1219.267722,14836.4
1223.050801,13586.6
1226.828346,13532
1230.600366,13777.2
1234.366874,13947.4
1238.12788,13674.4
1241.883395,13715.4
1245.633429,13897
1249.377994,13958.8
1253.1171,13148.6
1256.850759,13453
1260.578981,13298.2
1264.301776,13468.2
1268.019157,13454.8
1271.731133,13166.6
1275.437715,13043.4
1279.138915,13528.2
1282.834743,13742.8
1286.52521,13419.4
1290.210328,13302.2
1293.890106,13527.4
1297.564555,14146
1301.233688,13670.4
1304.897514,14033
1308.556044,14094.6
1312.209289,13901.6
1315.857261,13298
1319.499969,13247.2
1323.137425,13960
1326.769641,13375.2
1330.396626,13874.8
1334.018391,13419
1337.634948,13520.4
1341.246307,13365
1344.85248,13368.2
1348.453477,13357.4
1352.049309,13501.2
1355.639987,13675.4
1359.225522,14307.8
1362.805925,14071.2
1366.381207,14265.2
1369.951379,14366
1373.516452,14749.4
1377.076436,15336.4
1380.631343,15834
1384.181184,16748.6
1387.725969,17858
1391.26571,17670.4
1394.800417,16753.8
1398.330102,15722.2
1401.854776,14809.8
1405.374448,13979
1408.889132,13415.4
1412.398837,13249
1415.903574,13999.8
1419.403355,15483.4
1422.89819,16387.6
1426.388091,17897.2
1429.873069,19680.6
1433.353134,19855.2
1436.828298,19998.8
1440.298571,19228.4
1443.763965,17873.8
1447.224491,16282
1450.68016,15073.4
1454.130983,14678.8
1457.576971,14077
1461.018135,13979.8
1464.454486,14082
1467.886036,13676
1471.312794,13927
1474.734774,13564.4
1478.151985,14038
1481.564439,13840.8
1484.972146,14024.4
1488.375119,13995
1491.773368,14222
1495.166904,14355.8
1498.555739,13262.6
1501.939883,13085.4
1505.319349,12472.2
1508.694146,12705.4
1512.064286,12719.2
1515.429781,12625
1518.790642,12501.2
1522.146879,12658.2
1525.498505,12314.4
1528.845529,12397.4
1532.187965,13196
1535.525822,13018.2
1538.859112,13108.6
1542.187846,13788.8
1545.512036,13237
1548.831693,14639.4
1552.146829,14338.6
1555.457453,13886.4
1558.763579,14023.4
1562.065216,14753.2
1565.362377,15452.8
1568.655073,16073
1571.943315,16548.8
1575.227114,17092.2
1578.506482,17598.8
1581.781431,18802.6
1585.051971,18983.2
1588.318114,19804.2
1591.579872,19915.8
1594.837255,19199.4
1598.090275,18191.6
1601.338945,16796
1604.583274,15720.4
1607.823275,14341.2
1611.058959,13266.8
1614.290338,13919.6
1617.517422,12514.2
1620.740224,12703
1623.958755,12190.2
1627.173027,12192
1630.38305,11823.4
1633.588838,11964.6
1636.7904,11646.8
1639.987749,11799.8
1643.180896,11793.4
1646.369853,11291.2
1649.554632,11883.2
1652.735244,11387.8
1655.9117,10957.4
1659.084013,11280.6
1662.252193,11758.8
1665.416254,11056
1668.576205,11304.6
1671.732059,11480.2
1674.883828,11543.2
1678.031523,11091.2
1681.175157,11160.4
1684.314739,11193
1687.450284,11081
1690.581801,11007
1693.709304,10872.2
1696.832803,10958.4
1699.952311,11116.8
1703.067839,11232.2
1706.179399,11143.8
1709.287003,11461.6
1712.390663,11080.6
1715.49039,11126.8
1718.586197,11428.8
1721.678095,11253.6
1724.766096,11242.6
1727.850213,10697
1730.930456,11026
1734.006838,10870.4
1737.079372,11147.8
1740.148067,10781.4
1743.212938,11726.8
1746.273996,11056.6
1749.331252,10920
1752.384718,10988.2
1755.434408,10976.2
1758.480332,11034.6
1761.522503,10978
1764.560933,10830.6
1767.595634,10489.4
1770.626618,11068.6
1773.653896,11171.6
1776.677482,10829.4
1779.697388,10891.2
1782.713625,11325
1785.726205,11130.4
1788.735141,11279.4
1791.740445,10799
1794.742129,10777
1797.740206,11163.8
1800.734687,11199.4
1803.725585,10960.4
1806.712912,10979.6
1809.69668,10735.2
1812.676902,10827.6
1815.65359,10510.2
1818.626756,10647.2
1821.596413,10787.2
1824.562573,10480.2
1827.525247,10879.4
1830.48445,10578
1833.440192,10773.8
1836.392487,10671.4
1839.341347,10763
1842.286784,10867.4
1845.22881,10379.8
1848.167439,11026.4
1851.102682,10666.4
1854.034553,10657.4
1856.963063,10553.6
1859.888226,11434.8
1862.810053,10881.4
1865.728557,10693.6
1868.643751,10398.4
1871.555648,10553.4
1874.46426,10238
1877.369599,10810.8
1880.271679,10669.4
1883.170512,10547.4
1886.06611,10927.4
1888.958487,10664
1891.847655,10581
1894.733626,10777.6
1897.616414,10840.2
1900.496032,10427.6
1903.372491,10728.6
1906.245805,10912.6
1909.115987,10986.8
1911.983049,10990
1914.847004,10844.8
1917.707866,11061.4
1920.565646,10940.2
1923.420359,10651.8
1926.272016,10789.8
1929.120631,10591.2
1931.966216,10710.2
1934.808786,10613.6
1937.648351,10868
1940.484927,10840
1943.318525,10958.8
1946.149158,11095.4
1948.97684,12068.6
1951.801584,11097.8
1954.623403,10868.4
1957.44231,11037.4
1960.258318,10540.6
1963.071439,10585.4
1965.881688,10781.4
1968.689078,10866
1971.493621,10823.8
