Ramanshift[cm-1],Intensity
-93.47115107,13320.2
-87.69374369,12101
-81.9253076,11953
-76.16582701,11976.8
-70.41528615,12112.4
-64.67366933,11752.8
-58.94096086,11707.4
-53.21714512,12035.4
-47.50220652,12128.6
-41.79612954,12098.2
-36.09889866,12581.6
-30.41049843,12659.8
-24.73091343,12269
-19.0601283,12243.2
-13.39812769,12061.4
-7.744896327,11905.8
-2.100418946,11697.8
3.535319659,12317.8
9.162334658,11658
14.78064118,12104.6
20.39025432,11699.2
25.99118913,11802.8
31.58346061,12148.2
37.16708375,12002
42.74207347,11749.4
48.30844468,11737
53.86621222,11611.2
59.41539093,11331.2
64.95599558,11286.2
70.48804091,11668.4
76.01154164,11755.8
81.52651243,11152.8
87.03296792,11573.8
92.5309227,11972
98.02039134,11376.6
103.5013884,11577
108.9739282,11453.8
114.4380255,11435.2
119.8936944,11547.2
125.3409495,12512.2
130.779805,11372.6
136.2102753,11188.8
141.6323747,11127.2
147.0461174,11802
152.4515176,11417
157.8485895,11309.4
163.2373472,11223.4
168.6178049,11603
173.9899766,11813.4
179.3538764,11330.8
184.7095182,11408.6
190.0569161,11693.2
195.396084,11799
200.7270358,11228.4
206.0497854,11227.4
211.3643466,10949
216.6707333,11334.6
221.9689593,11069.2
227.2590382,11242.6
232.5409839,11141
237.8148101,11084.4
243.0805303,11199
248.3381582,11224.4
253.5877075,11050.6
258.8291917,11170.2
264.0626244,11348.2
269.288019,11591.2
274.5053891,11672
279.7147481,11433.4
284.9161094,11410.4
290.1094865,12336.6
295.2948927,15562.8
300.4723414,22420.2
305.6418459,31304.4
310.8034194,38923.2
315.9570752,43027.4
321.1028267,43764.4
326.2406869,44378.2
331.370669,45208.2
336.4927863,46233.6
341.6070517,47402.6
346.7134786,48154.2
351.8120798,48465.6
356.9028684,48520.4
361.9858576,48320.4
367.0610602,48462.2
372.1284892,48010.6
377.1881577,48735.4
382.2400784,49688.6
387.2842644,51449.6
392.3207284,52488.2
397.3494833,51593.4
402.370542,50791.6
407.3839172,49262.2
412.3896217,47529.2
417.3876683,46379.4
422.3780697,45692.6
427.3608386,45366.4
432.3359876,45540
437.3035295,45031.8
442.2634769,45053.6
447.2158423,43917.4
452.1606383,43885.6
457.0978776,43727
462.0275727,43169.8
466.9497361,43536
471.8643802,43187.8
476.7715176,43888.2
481.6711608,44283
486.5633221,44762.6
491.448014,44346.4
496.3252488,43768
501.195039,43650.6
506.0573969,43495.2
510.9123349,43079.2
515.7598651,42442.2
520.6,42406.4
525.4327518,42142.2
530.2581327,42044.6
535.076155,41339
539.8868309,41675.4
544.6901726,41477.8
549.4861922,40883.4
554.2749019,41618.6
559.0563139,40620.6
563.8304402,40224.4
568.597293,41186.2
573.3568844,40812.6
578.1092263,40206
582.8543308,40664.4
587.5922101,40682
592.322876,40144.2
597.0463405,40520
601.7626157,40874.4
606.4717135,40423.8
611.1736458,40085.6
615.8684246,39934.2
620.5560617,40504
625.2365691,39968.2
629.9099585,40274.8
634.5762419,40307.4
639.2354312,39435.2
643.887538,39402.2
648.5325743,39004.2
653.1705518,39043.2
657.8014823,39113.2
662.4253775,38467
667.0422493,38901.8
671.6521092,38826.6
676.2549691,38777.4
680.8508407,38673
685.4397355,38413.6
690.0216654,38357.6
694.5966419,38367.6
699.1646767,38677.2
703.7257814,38654.2
708.2799676,38678.4
712.827247,38901
717.367631,38681.8
721.9011314,38333.2
726.4277595,37431.6
730.9475271,37754.8
735.4604456,37491.2
739.9665264,37739.4
744.4657813,37302.2
748.9582215,37038
753.4438587,36114.6
757.9227042,35702.4
762.3947696,36167.8
766.8600662,35284.2
771.3186056,36490.6
775.770399,35345.8
780.215458,35384.2
784.6537939,34686.6
789.0854181,34550.2
793.510342,34204.8
797.9285769,34698.2
802.3401342,34143.6
806.7450253,33939
811.1432614,33628.8
815.5348538,33193.8
819.9198139,32854.6
824.2981531,32720.6
828.6698824,32752.4
833.0350133,32074.2
837.393557,31719.8
841.7455248,32313.2
846.0909278,31692
850.4297774,31967
854.7620848,32046.8
859.0878611,32045.6
863.4071176,31437.4
867.7198655,32282.4
872.026116,32258.6
876.3258802,32530.4
880.6191693,32148.6
884.9059946,32051.8
889.186367,32346.4
893.4602979,31214.6
897.7277982,30869.8
901.9888793,31627.6
906.2435521,32262.2
910.4918277,31614.4
914.7337174,31543.8
918.9692321,31656.8
923.1983831,32175.6
927.4211813,31607.4
931.6376378,32518.4
935.8477637,31891.2
940.0515701,32132.8
944.249068,32279.4
948.4402684,31389
952.6251825,32196
956.8038212,32075
960.9761955,32534.8
965.1423166,32109.6
969.3021953,32006.2
973.4558427,32008
977.6032699,31787.8
981.7444877,31697.6
985.8795072,31654.8
990.0083394,31839.4
994.1309953,31374.4
998.2474857,32061.2
1002.357822,31282.4
1006.462014,31883.2
1010.560075,31326.6
1014.652013,31325.8
1018.737841,31594.2
1022.81757,30988.8
1026.891209,30852.2
1030.958771,30709.8
1035.020266,30886.8
1039.075705,30594.8
1043.1251,30447.6
1047.16846,30634.6
1051.205797,30749.8
1055.237121,30834.4
1059.262444,31679.4
1063.281777,32806.4
1067.295131,34458.4
1071.302515,36824.8
1075.303942,36502.8
1079.299422,36302.6
1083.288966,34380.6
1087.272585,32242.4
1091.250289,31218
1095.222091,30905.4
1099.187999,30277.8
1103.148026,30317
1107.102183,30518
1111.050479,30360
1114.992927,30600.8
1118.929536,30604.6
1122.860318,31558.4
1126.785283,31679
1130.704443,32681.8
1134.617808,34616.4
1138.52539,34706.2
1142.427198,34201
1146.323244,33025
1150.213538,31729.2
1154.098093,31786.4
1157.976917,30735
1161.850023,30880.8
1165.717421,31491.6
1169.579121,31056
1173.435135,31627.2
1177.285474,30683
1181.130148,31025.6
1184.969169,31188.6
1188.802547,30892
1192.630292,30275.6
1196.452416,29649
1200.26893,29569.6
1204.079844,29153.4
1207.88517,28766
1211.684917,29443
1215.479098,28798.2
1219.267722,30715.6
1223.050801,29051.2
1226.828346,29059.8
1230.600366,29273.6
1234.366874,29176.8
1238.12788,29013.2
1241.883395,28983.4
1245.633429,29306.4
1249.377994,29309.4
1253.1171,28502.2
1256.850759,28820.6
1260.578981,28718.6
1264.301776,29001
1268.019157,28834.4
1271.731133,28484.2
1275.437715,28304.8
1279.138915,28966.4
1282.834743,29054.8
1286.52521,28636.2
1290.210328,28690.6
1293.890106,28743.4
1297.564555,29433.6
1301.233688,28791.4
1304.897514,29223.8
1308.556044,29039
1312.209289,29168
1315.857261,28640
1319.499969,28569.2
1323.137425,29406
1326.769641,28728.2
1330.396626,29528.8
1334.018391,28786.2
1337.634948,29094.4
1341.246307,28652.4
1344.85248,28738.4
1348.453477,28393.2
1352.049309,28363.8
1355.639987,28470.2
1359.225522,28974.8
1362.805925,28349
1366.381207,28400.6
1369.951379,28534.8
1373.516452,28640.2
1377.076436,28926.4
1380.631343,28995.6
1384.181184,29054
1387.725969,29388.8
1391.26571,28764
1394.800417,28152.6
1398.330102,27632.4
1401.854776,27674.8
1405.374448,27375
1408.889132,26881.2
1412.398837,26483.6
1415.903574,27092.6
1419.403355,27885.4
1422.89819,27877.2
1426.388091,28459.8
1429.873069,28665.6
1433.353134,27956.8
1436.828298,27384.2
1440.298571,27103.8
1443.763965,26139.6
1447.224491,25917.6
1450.68016,25557.4
1454.130983,25980.6
1457.576971,25611
1461.018135,25793.4
1464.454486,25647.8
1467.886036,25185.2
1471.312794,25155.6
1474.734774,24726.4
1478.151985,25331.2
1481.564439,24963.6
1484.972146,24749.4
1488.375119,24091.2
1491.773368,24458.4
1495.166904,24931.6
1498.555739,24192.8
1501.939883,24170.8
1505.319349,23625
1508.694146,23920.4
1512.064286,24170.8
1515.429781,23891.4
1518.790642,23723.6
1522.146879,23965.4
1525.498505,23421.2
1528.845529,23281.4
1532.187965,24081.8
1535.525822,23550.8
1538.859112,23591.4
1542.187846,24200.2
1545.512036,23318.4
1548.831693,24517.4
1552.146829,24137
1555.457453,23421
1558.763579,23264.4
1562.065216,23963.6
1565.362377,24414.6
1568.655073,24847.4
1571.943315,24851.4
1575.227114,24794.2
1578.506482,24599
1581.781431,24869.4
1585.051971,24226.8
1588.318114,24126.6
1591.579872,23433
1594.837255,22611.8
1598.090275,21950
1601.338945,21627
1604.583274,21721.4
1607.823275,21098
1611.058959,20683.6
1614.290338,21552.8
1617.517422,20228.8
1620.740224,20321.8
1623.958755,19922.2
1627.173027,19683
1630.38305,19224.4
1633.588838,19594.4
1636.7904,19171.4
1639.987749,19055
1643.180896,19240.8
1646.369853,18394.4
1649.554632,19153.4
1652.735244,18451.8
1655.9117,17950
1659.084013,18218.8
1662.252193,18712.8
1665.416254,17814.2
1668.576205,17995.4
1671.732059,18218.6
1674.883828,18149.2
1678.031523,17466.2
1681.175157,17508.2
1684.314739,17539.4
1687.450284,17335
1690.581801,17107.6
1693.709304,16973.6
1696.832803,16915.6
1699.952311,17117.6
1703.067839,17084
1706.179399,16967
1709.287003,17252
1712.390663,16754.8
1715.49039,16781.8
1718.586197,17072.6
1721.678095,16921.4
1724.766096,16643.6
1727.850213,16217
1730.930456,16379.8
1734.006838,16363.4
1737.079372,16466.4
1740.148067,16128.4
1743.212938,17049.2
1746.273996,16230.4
1749.331252,16187.4
1752.384718,16113.2
1755.434408,16045.8
1758.480332,16066.4
1761.522503,15902.2
1764.560933,15802.4
1767.595634,15347.6
1770.626618,15948.2
1773.653896,15881
1776.677482,15677.2
1779.697388,15541.4
1782.713625,16008.4
1785.726205,16027.8
1788.735141,15898.8
1791.740445,15530.4
1794.742129,15341
1797.740206,15824.2
1800.734687,15888.8
1803.725585,15567.2
1806.712912,15675.2
1809.69668,15283
1812.676902,15365
1815.65359,15047.4
1818.626756,15111.2
1821.596413,15160.6
1824.562573,14944.8
1827.525247,15185.2
1830.48445,14993.6
1833.440192,15130.4
1836.392487,14878.6
1839.341347,15147
1842.286784,15166
1845.22881,14662.4
1848.167439,15149
1851.102682,14982.6
1854.034553,14848.2
1856.963063,14772
1859.888226,15643.8
1862.810053,15095
1865.728557,14968
1868.643751,14567.8
1871.555648,14613.4
1874.46426,14248
1877.369599,14919.2
1880.271679,14710.8
1883.170512,14621.2
1886.06611,15122
1888.958487,14703.6
1891.847655,14712.2
1894.733626,14714.6
1897.616414,14881
1900.496032,14270.6
1903.372491,14669.4
1906.245805,14931.4
1909.115987,14909.2
1911.983049,14865
1914.847004,14769.8
1917.707866,14964.6
1920.565646,14772.2
1923.420359,14428
1926.272016,14571
1929.120631,14366.8
1931.966216,14429.2
1934.808786,14412.8
1937.648351,14619.8
1940.484927,14523.2
1943.318525,14600.6
1946.149158,14793.2
1948.97684,15829
1951.801584,14659.4
1954.623403,14549
1957.44231,14626
1960.258318,14055.2
1963.071439,14119.6
1965.881688,14305.6
1968.689078,14472.6
1971.493621,14223.6
