Ramanshift[cm-1],Intensity
-93.47115107,12915.4
-87.69374369,11780
-81.9253076,11663.2
-76.16582701,11620.4
-70.41528615,11780.4
-64.67366933,11461.2
-58.94096086,11513.6
-53.21714512,11601.4
-47.50220652,11803.4
-41.79612954,11794.8
-36.09889866,12210.4
-30.41049843,12267
-24.73091343,11905.4
-19.0601283,11999
-13.39812769,11743
-7.744896327,11571.8
-2.100418946,11292.6
3.535319659,11984.8
9.162334658,11433
14.78064118,11687.8
20.39025432,11382.6
25.99118913,11374.2
31.58346061,11925.4
37.16708375,11655
42.74207347,11374.2
48.30844468,11316.8
53.86621222,11297.6
59.41539093,10996
64.95599558,10910.6
70.48804091,11258.2
76.01154164,11267.2
81.52651243,10809
87.03296792,11342.2
92.5309227,11616.2
98.02039134,10903
103.5013884,11249.2
108.9739282,11027
114.4380255,11155.8
119.8936944,11292.4
125.3409495,12048.4
130.779805,11044
136.2102753,10826.4
141.6323747,10879.2
147.0461174,11514.2
152.4515176,10936.6
157.8485895,10990.8
163.2373472,10899.2
168.6178049,11118.2
173.9899766,11469.8
179.3538764,10935.4
184.7095182,11079.2
190.0569161,11214.4
195.396084,11452
200.7270358,10868.4
206.0497854,10961
211.3643466,10625.2
216.6707333,11056
221.9689593,10651.6
227.2590382,10900.4
232.5409839,10846
237.8148101,10772.4
243.0805303,10901.8
248.3381582,10794.6
253.5877075,10733.2
258.8291917,10788.8
264.0626244,10945.4
269.288019,11083.8
274.5053891,11176.6
279.7147481,10857.6
284.9161094,10712
290.1094865,10833
295.2948927,11274.2
300.4723414,12514.8
305.6418459,13230.2
310.8034194,13850
315.9570752,14838.2
321.1028267,15061.4
326.2406869,15177.2
331.370669,15510.4
336.4927863,15543
341.6070517,15733.2
346.7134786,15730.6
351.8120798,15955
356.9028684,15872.4
361.9858576,16048.2
367.0610602,16408.8
372.1284892,16614.4
377.1881577,17993.6
382.2400784,20394.4
387.2842644,23198
392.3207284,24256.2
397.3494833,22124.6
402.370542,20019.6
407.3839172,17851.4
412.3896217,16355.4
417.3876683,15496.6
422.3780697,15309.8
427.3608386,15123.8
432.3359876,15295.4
437.3035295,15448.4
442.2634769,15493.4
447.2158423,14740.8
452.1606383,14749.2
457.0978776,14890.6
462.0275727,14362.6
466.9497361,14786.6
471.8643802,14281
476.7715176,14751.8
481.6711608,14723.8
486.5633221,14937.8
491.448014,14731
496.3252488,14707.4
501.195039,14813.4
506.0573969,15174.8
510.9123349,14888.8
515.7598651,14386.6
520.6,14834.8
525.4327518,14745.6
530.2581327,14667.2
535.076155,14183.4
539.8868309,14548.6
544.6901726,14732.8
549.4861922,14369.2
554.2749019,15320.6
559.0563139,14322
563.8304402,14175.6
568.597293,15125.2
573.3568844,14819
578.1092263,14312
582.8543308,14728.8
587.5922101,14732.6
592.322876,14373.2
597.0463405,14519.4
601.7626157,14729.8
606.4717135,14271.4
611.1736458,14214.6
615.8684246,14410
620.5560617,14704.2
625.2365691,14462.2
629.9099585,15059.6
634.5762419,15421.2
639.2354312,14949.8
643.887538,14960.4
648.5325743,14596.8
653.1705518,14491.6
657.8014823,14627.6
662.4253775,13977
667.0422493,14373.2
671.6521092,14344
676.2549691,14544
680.8508407,14450.8
685.4397355,14365.2
690.0216654,14428.6
694.5966419,14355
699.1646767,15028.8
703.7257814,14710.4
708.2799676,14667.4
712.827247,14515
717.367631,14460.4
721.9011314,14377.2
726.4277595,13805.4
730.9475271,14431.4
735.4604456,14273
739.9665264,14750.4
744.4657813,14315.2
748.9582215,14334.4
753.4438587,13887.2
757.9227042,13699.6
762.3947696,14335
766.8600662,13784.8
771.3186056,15099
775.770399,14071
780.215458,14481.4
784.6537939,13884.2
789.0854181,13858.2
793.510342,14064.4
797.9285769,14642
802.3401342,14148
806.7450253,14402.4
811.1432614,14182.2
815.5348538,14070
819.9198139,13810.2
824.2981531,13935.6
828.6698824,13941.6
833.0350133,13732.2
837.393557,13412
841.7455248,13750.4
846.0909278,13605
850.4297774,13464.6
854.7620848,13522.8
859.0878611,13769.6
863.4071176,13107.4
867.7198655,13685.8
872.026116,13954.6
876.3258802,14371
880.6191693,13932.4
884.9059946,13881
889.186367,14411
893.4602979,13381.2
897.7277982,13345
901.9888793,13723.6
906.2435521,14200.8
910.4918277,13632.6
914.7337174,13632.8
918.9692321,13571.6
923.1983831,14168.4
927.4211813,13843.8
931.6376378,14556
935.8477637,13920.8
940.0515701,14182
944.249068,14216.8
948.4402684,13462
952.6251825,14400.8
956.8038212,14034
960.9761955,14695.2
965.1423166,14176
969.3021953,14305.2
973.4558427,14336.2
977.6032699,14103.6
981.7444877,14218.6
985.8795072,14119.6
990.0083394,14236.8
994.1309953,13982
998.2474857,14559.4
1002.357822,13957.6
1006.462014,14490.4
1010.560075,13769.2
1014.652013,13964.6
1018.737841,14146.2
1022.81757,13542.6
1026.891209,13375.6
1030.958771,13297.8
1035.020266,13542.2
1039.075705,13334.4
1043.1251,13094.4
1047.16846,13320
1051.205797,13303.6
1055.237121,13184.6
1059.262444,13207.2
1063.281777,13235
1067.295131,14051.4
1071.302515,16703
1075.303942,18425.6
1079.299422,20243
1083.288966,18653.4
1087.272585,16066.4
1091.250289,14423.6
1095.222091,13801.4
1099.187999,13131
1103.148026,13243.2
1107.102183,13047.6
1111.050479,13187.8
1114.992927,13064.8
1118.929536,12892.6
1122.860318,13264.2
1126.785283,12689.2
1130.704443,12654.2
1134.617808,13517.2
1138.52539,13440.8
1142.427198,13403.4
1146.323244,13347
1150.213538,12894.8
1154.098093,13324.2
1157.976917,12763.2
1161.850023,12731.8
1165.717421,13327.4
1169.579121,13067
1173.435135,13617.4
1177.285474,13164
1181.130148,13377.2
1184.969169,13541.6
1188.802547,13146.8
1192.630292,12621.8
1196.452416,12317.8
1200.26893,12461.6
1204.079844,12167.8
1207.88517,11763.4
1211.684917,12395.8
1215.479098,12084.8
1219.267722,13564.8
1223.050801,12227.8
1226.828346,12134.2
1230.600366,12578
1234.366874,12679.6
1238.12788,12301
1241.883395,12346.4
1245.633429,12738.4
1249.377994,12703.2
1253.1171,11845.4
1256.850759,12319.8
1260.578981,12056.8
1264.301776,12267.6
1268.019157,12164.8
1271.731133,12014.2
1275.437715,11756.4
1279.138915,12378.8
1282.834743,12555.4
1286.52521,12157.2
1290.210328,11960.8
1293.890106,12077
1297.564555,12524.8
1301.233688,11873.4
1304.897514,12206.8
1308.556044,12376.4
1312.209289,12280.4
1315.857261,11734.2
1319.499969,11805.8
1323.137425,12602.8
1326.769641,12094.2
1330.396626,12671.6
1334.018391,12059.2
1337.634948,12289.8
1341.246307,11926.2
1344.85248,11855
1348.453477,11706
1352.049309,11711.6
1355.639987,11842.2
1359.225522,12379
1362.805925,11967
1366.381207,12063
1369.951379,12095.6
1373.516452,12151.6
1377.076436,12273.8
1380.631343,12132
1384.181184,12001.4
1387.725969,12102.8
1391.26571,11763.2
1394.800417,11654
1398.330102,11843.6
1401.854776,12003.6
1405.374448,11899.6
1408.889132,11523.8
1412.398837,11212.4
1415.903574,11674.2
1419.403355,12256
1422.89819,11880.6
1426.388091,11833.4
1429.873069,12306.2
1433.353134,11784.6
1436.828298,11800
1440.298571,11855.8
1443.763965,11619
1447.224491,11535.2
1450.68016,11550
1454.130983,11861.6
1457.576971,11848.4
1461.018135,12058
1464.454486,12194
1467.886036,11767.6
1471.312794,11819.8
1474.734774,11589.8
1478.151985,12288.6
1481.564439,11973
1484.972146,11974
1488.375119,11812.4
1491.773368,12047
1495.166904,12666.8
1498.555739,11825.4
1501.939883,11825.8
1505.319349,11367.2
1508.694146,11746.8
1512.064286,11784.6
1515.429781,11818.2
1518.790642,11578
1522.146879,11631
1525.498505,11296.6
1528.845529,11363.2
1532.187965,12073.4
1535.525822,11638.8
1538.859112,11655.8
1542.187846,12199.4
1545.512036,11387.4
1548.831693,12629.8
1552.146829,12132.2
1555.457453,11433.4
1558.763579,11258.2
1562.065216,11755.8
1565.362377,12105.6
1568.655073,12465
1571.943315,12334.6
1575.227114,12573.4
1578.506482,12770.6
1581.781431,13629.6
1585.051971,13656.2
1588.318114,14333.8
1591.579872,14196
1594.837255,13875
1598.090275,13068.8
1601.338945,12488.8
1604.583274,12384.2
1607.823275,11978
1611.058959,11455.2
1614.290338,12543.6
1617.517422,11384
1620.740224,11669
1623.958755,11228
1627.173027,11339.6
1630.38305,11110
1633.588838,11468.8
1636.7904,11271.6
1639.987749,11369.8
1643.180896,11531
1646.369853,10966.4
1649.554632,11663.8
1652.735244,11171.2
1655.9117,10787.4
1659.084013,11065
1662.252193,11796
1665.416254,10903.8
1668.576205,11181.2
1671.732059,11434.2
1674.883828,11588
1678.031523,10982.8
1681.175157,11113.2
1684.314739,11166.4
1687.450284,11144
1690.581801,10885
1693.709304,10832.4
1696.832803,10864.6
1699.952311,11073.6
1703.067839,11121.6
1706.179399,11114
1709.287003,11495
1712.390663,11041.6
1715.49039,11115.2
1718.586197,11409.6
1721.678095,11241
1724.766096,11235.2
1727.850213,10789.2
1730.930456,11006
1734.006838,10938.4
1737.079372,11238.2
1740.148067,10801.4
1743.212938,11866.8
1746.273996,11143.6
1749.331252,11054.6
1752.384718,11103.8
1755.434408,11086
1758.480332,11105.2
1761.522503,11082.4
1764.560933,10996.2
1767.595634,10690.2
1770.626618,11335.6
1773.653896,11301.2
1776.677482,10981.2
1779.697388,10921.8
1782.713625,11506.8
1785.726205,11464.6
1788.735141,11359.4
1791.740445,10927.8
1794.742129,10861.4
1797.740206,11370.8
1800.734687,11388.8
1803.725585,11175.4
1806.712912,11229.6
1809.69668,10861
1812.676902,10910.2
1815.65359,10635.4
1818.626756,10718.6
1821.596413,10966.2
1824.562573,10659.8
1827.525247,10916.2
1830.48445,10778.8
1833.440192,10901.8
1836.392487,10793.2
1839.341347,11032.2
1842.286784,11050.4
1845.22881,10605
1848.167439,11098
1851.102682,10841.2
1854.034553,10850.4
1856.963063,10792.4
1859.888226,11581.6
1862.810053,11058.6
1865.728557,10911.4
1868.643751,10672
1871.555648,10716
1874.46426,10398.6
1877.369599,11070.6
1880.271679,10896.6
1883.170512,10730.4
1886.06611,11194.4
1888.958487,10880.4
1891.847655,10895.6
1894.733626,10953.2
1897.616414,11023.2
1900.496032,10660
1903.372491,10878.6
1906.245805,11221.2
1909.115987,11238.4
1911.983049,11236
1914.847004,11125.2
1917.707866,11201.4
1920.565646,11283
1923.420359,10823
1926.272016,11089
1929.120631,10832
1931.966216,10966.6
1934.808786,10887.8
1937.648351,11089.2
1940.484927,11119.6
1943.318525,11260.6
1946.149158,11428.4
1948.97684,12377.8
1951.801584,11390.2
1954.623403,11143.4
1957.44231,11254.4
1960.258318,10831
1963.071439,10855.2
1965.881688,10986.4
1968.689078,11255.2
1971.493621,10959.6
