Ramanshift[cm-1],Intensity
-93.47115107,12914.2
-87.69374369,11678.6
-81.9253076,11575.4
-76.16582701,11661.2
-70.41528615,11596
-64.67366933,11364.4
-58.94096086,11413.8
-53.21714512,11612.4
-47.50220652,11701.8
-41.79612954,11694.6
-36.09889866,12105.8
-30.41049843,12167.2
-24.73091343,11790.6
-19.0601283,11824.2
-13.39812769,11645.8
-7.744896327,11475.2
-2.100418946,11262.6
3.535319659,11922
9.162334658,11309.6
14.78064118,11592.6
20.39025432,11285.4
25.99118913,11314.4
31.58346061,11801.8
37.16708375,11643
42.74207347,11328.8
48.30844468,11388.6
53.86621222,11243
59.41539093,10863.2
64.95599558,10932.4
70.48804091,11266.4
76.01154164,11326.6
81.52651243,10796.8
87.03296792,11285.2
92.5309227,11484.6
98.02039134,10878.6
103.5013884,11230.8
108.9739282,11026.2
114.4380255,11044.4
119.8936944,11206
125.3409495,12022
130.779805,10977.6
136.2102753,10694
141.6323747,10820.2
147.0461174,11363.6
152.4515176,10932
157.8485895,10941.8
163.2373472,10873.4
168.6178049,11106.8
173.9899766,11350
179.3538764,10931.8
184.7095182,10974.2
190.0569161,11319.2
195.396084,11367.2
200.7270358,10867
206.0497854,10904.4
211.3643466,10582
216.6707333,11019.8
221.9689593,10675.4
227.2590382,10881.2
232.5409839,10736.4
237.8148101,10743.8
243.0805303,10851
248.3381582,10853
253.5877075,10584.4
258.8291917,10793.2
264.0626244,10808
269.288019,10989
274.5053891,11081.8
279.7147481,10828.2
284.9161094,10663.4
290.1094865,10799.6
295.2948927,11479
300.4723414,13160
305.6418459,14450.6
310.8034194,15741.2
315.9570752,17112.4
321.1028267,17564.2
326.2406869,17827.2
331.370669,18290.6
336.4927863,18706.8
341.6070517,19066.8
346.7134786,19284.2
351.8120798,19779.2
356.9028684,19701.2
361.9858576,19949.8
367.0610602,20570.2
372.1284892,21584.4
377.1881577,25374.4
382.2400784,31957.6
387.2842644,38642.6
392.3207284,40357
397.3494833,35634.4
402.370542,30094.6
407.3839172,24883.4
412.3896217,21627.8
417.3876683,19436.4
422.3780697,18378.8
427.3608386,17904.4
432.3359876,17853.6
437.3035295,17946.8
442.2634769,17938.4
447.2158423,17074.4
452.1606383,16739.4
457.0978776,17021.2
462.0275727,16295.4
466.9497361,16756.4
471.8643802,16244.4
476.7715176,16867.4
481.6711608,17141
486.5633221,17659
491.448014,17218
496.3252488,17097.4
501.195039,16956.2
506.0573969,17374.2
510.9123349,17019.2
515.7598651,16400
520.6,16745
525.4327518,16673.4
530.2581327,16667.8
535.076155,16277
539.8868309,16625.8
544.6901726,16715
549.4861922,16177.2
554.2749019,16954.6
559.0563139,15929
563.8304402,15745.6
568.597293,16675.4
573.3568844,16231.4
578.1092263,15827
582.8543308,16366.8
587.5922101,16102.4
592.322876,16020.2
597.0463405,16140
601.7626157,16377.6
606.4717135,15891
611.1736458,15919.4
615.8684246,15985.6
620.5560617,16211.8
625.2365691,16232.2
629.9099585,16861.4
634.5762419,17490.8
639.2354312,16922.8
643.887538,16837.8
648.5325743,16250.4
653.1705518,16150
657.8014823,16189
662.4253775,15477.2
667.0422493,15933.2
671.6521092,15981
676.2549691,16155.6
680.8508407,16118.6
685.4397355,16013.2
690.0216654,16223.2
694.5966419,16124.2
699.1646767,17074.8
703.7257814,16852.2
708.2799676,16862.2
712.827247,16793.6
717.367631,16371.2
721.9011314,16194.4
726.4277595,15518.2
730.9475271,15953.6
735.4604456,15778
739.9665264,16273.4
744.4657813,15855.6
748.9582215,15682.8
753.4438587,15236.6
757.9227042,15192.6
762.3947696,15643.4
766.8600662,15215.2
771.3186056,16630
775.770399,15685.6
780.215458,16115.2
784.6537939,15520.4
789.0854181,15739.2
793.510342,16154.2
797.9285769,17206.6
802.3401342,16809
806.7450253,16729
811.1432614,16477.6
815.5348538,16206.4
819.9198139,15776.6
824.2981531,15685
828.6698824,15691.2
833.0350133,15216.6
837.393557,14836.6
841.7455248,15105
846.0909278,14836
850.4297774,14826.8
854.7620848,14884.6
859.0878611,15094.6
863.4071176,14486
867.7198655,15075
872.026116,15321.4
876.3258802,15912.4
880.6191693,15395.8
884.9059946,15437.6
889.186367,16005.8
893.4602979,15028.8
897.7277982,15071
901.9888793,15598.8
906.2435521,16048
910.4918277,15875.8
914.7337174,15909.4
918.9692321,16083.4
923.1983831,16807.4
927.4211813,16460.6
931.6376378,17053
935.8477637,16584.2
940.0515701,16998.6
944.249068,17235
948.4402684,16528
952.6251825,17512.2
956.8038212,17283.2
960.9761955,18017.6
965.1423166,17538.4
969.3021953,17710.2
973.4558427,17615.2
977.6032699,17394.8
981.7444877,17371.4
985.8795072,17246.2
990.0083394,17291.2
994.1309953,17137.8
998.2474857,18244.6
1002.357822,17802.6
1006.462014,18196
1010.560075,16845
1014.652013,16057.4
1018.737841,16028
1022.81757,15435.6
1026.891209,15390.6
1030.958771,15195.8
1035.020266,15522.2
1039.075705,15208
1043.1251,14846
1047.16846,15318
1051.205797,15445.4
1055.237121,15741
1059.262444,16761.4
1063.281777,18691.6
1067.295131,22632.2
1071.302515,29766.8
1075.303942,34575.8
1079.299422,35514.4
1083.288966,29223
1087.272585,22081
1091.250289,17988.6
1095.222091,16283.4
1099.187999,15115.8
1103.148026,15026.4
1107.102183,14725.8
1111.050479,14815.6
1114.992927,14725
1118.929536,14831.2
1122.860318,15499.6
1126.785283,15802.2
1130.704443,17035.6
1134.617808,19546
1138.52539,20416.6
1142.427198,19780.4
1146.323244,18219.8
1150.213538,16216.2
1154.098093,15991.6
1157.976917,15097.8
1161.850023,15118.2
1165.717421,15816.6
1169.579121,15914.2
1173.435135,16816.8
1177.285474,16805.2
1181.130148,17296.2
1184.969169,16987.8
1188.802547,16027.2
1192.630292,14950
1196.452416,14236.8
1200.26893,13959.2
1204.079844,13458.4
1207.88517,13108.8
1211.684917,13672.6
1215.479098,13346.2
1219.267722,14821.4
1223.050801,13440.8
1226.828346,13449.2
1230.600366,13781.6
1234.366874,14026.8
1238.12788,13709.2
1241.883395,13922
1245.633429,14291.2
1249.377994,14035.8
1253.1171,13235.4
1256.850759,13491.2
1260.578981,13281.4
1264.301776,13427
1268.019157,13338.2
1271.731133,13178.8
1275.437715,13017.2
1279.138915,13578.8
1282.834743,13840.6
1286.52521,13423.4
1290.210328,13263.4
1293.890106,13442.2
1297.564555,13897.6
1301.233688,13361.4
1304.897514,13668.2
1308.556044,13661
1312.209289,13520
1315.857261,13069.2
1319.499969,13013
1323.137425,13682.8
1326.769641,13270.8
1330.396626,13807.2
1334.018391,13172.2
1337.634948,13354.2
1341.246307,13037.4
1344.85248,13083.6
1348.453477,12943.6
1352.049309,13169.2
1355.639987,13306.4
1359.225522,13836
1362.805925,13469.4
1366.381207,13694.6
1369.951379,13851.4
1373.516452,14075.6
1377.076436,14546
1380.631343,15005
1384.181184,15502
1387.725969,16040
1391.26571,15310.6
1394.800417,14251.8
1398.330102,13789.6
1401.854776,13610.6
1405.374448,13192.4
1408.889132,12796.2
1412.398837,12689.2
1415.903574,13488.8
1419.403355,14849.8
1422.89819,15394.6
1426.388091,16098.6
1429.873069,16777.8
1433.353134,15770
1436.828298,15024.8
1440.298571,14513.2
1443.763965,13634.2
1447.224491,13158.6
1450.68016,12922.8
1454.130983,13207.2
1457.576971,13105
1461.018135,13218
1464.454486,13460
1467.886036,13055.2
1471.312794,13143.4
1474.734774,12796.6
1478.151985,13522.8
1481.564439,13264.8
1484.972146,13425
1488.375119,13182
1491.773368,13231.8
1495.166904,13536.4
1498.555739,12730.8
1501.939883,12690.8
1505.319349,12269.2
1508.694146,12613.6
1512.064286,12557.6
1515.429781,12571.4
1518.790642,12415.8
1522.146879,12605.6
1525.498505,12260.4
1528.845529,12197.4
1532.187965,12922.8
1535.525822,12645.4
1538.859112,12797
1542.187846,13523.8
1545.512036,12700.4
1548.831693,14112.2
1552.146829,13814.6
1555.457453,13402.4
1558.763579,13379.8
1562.065216,14270.8
1565.362377,14950.2
1568.655073,15732
1571.943315,16094.2
1575.227114,16733
1578.506482,17517
1581.781431,19075.6
1585.051971,19739.6
1588.318114,20539.4
1591.579872,19836
1594.837255,18087.4
1598.090275,15921.8
1601.338945,14372.4
1604.583274,13840
1607.823275,13223
1611.058959,12578.4
1614.290338,13602.8
1617.517422,12286.2
1620.740224,12644
1623.958755,12231.6
1627.173027,12235.8
1630.38305,11740
1633.588838,12099.4
1636.7904,11923
1639.987749,11993.8
1643.180896,12084
1646.369853,11495.6
1649.554632,12206.2
1652.735244,11696.6
1655.9117,11348.6
1659.084013,11622.6
1662.252193,12261.8
1665.416254,11367.2
1668.576205,11526
1671.732059,11767.6
1674.883828,11812.6
1678.031523,11417.8
1681.175157,11501
1684.314739,11544
1687.450284,11479.2
1690.581801,11344.8
1693.709304,11150.2
1696.832803,11283.6
1699.952311,11359
1703.067839,11435.4
1706.179399,11454.6
1709.287003,11869
1712.390663,11355.4
1715.49039,11475
1718.586197,11743.6
1721.678095,11539.2
1724.766096,11635.8
1727.850213,11056.4
1730.930456,11346.4
1734.006838,11304
1737.079372,11481.4
1740.148067,11108.6
1743.212938,12210.6
1746.273996,11387.4
1749.331252,11185.2
1752.384718,11340.2
1755.434408,11412.2
1758.480332,11362.2
1761.522503,11418.6
1764.560933,11226.6
1767.595634,10901
1770.626618,11511.4
1773.653896,11607
1776.677482,11177.4
1779.697388,11103.6
1782.713625,11676.8
1785.726205,11642.6
1788.735141,11610.8
1791.740445,11178.2
1794.742129,11079.4
1797.740206,11531.2
1800.734687,11508.4
1803.725585,11405.4
1806.712912,11341.6
1809.69668,11059.6
1812.676902,11191.8
1815.65359,10831.4
1818.626756,11028.8
1821.596413,11135.8
1824.562573,10822.2
1827.525247,11220
1830.48445,10959
1833.440192,11063
1836.392487,10931
1839.341347,11241.6
1842.286784,11239
1845.22881,10814.2
1848.167439,11353.2
1851.102682,11074.6
1854.034553,11142.4
1856.963063,10870.8
1859.888226,11779.4
1862.810053,11238.6
1865.728557,11113.6
1868.643751,10803.6
1871.555648,10920.6
1874.46426,10688.8
1877.369599,11294.4
1880.271679,11021.8
1883.170512,10900.6
1886.06611,11336
1888.958487,11063.2
1891.847655,10973
1894.733626,11187
1897.616414,11236.6
1900.496032,10793.2
1903.372491,11069.8
1906.245805,11437
1909.115987,11484.2
1911.983049,11329.4
1914.847004,11180.2
1917.707866,11436
1920.565646,11307.6
1923.420359,10992
1926.272016,11241.4
1929.120631,10953.4
1931.966216,11100.6
1934.808786,11012.4
1937.648351,11384.8
1940.484927,11277.8
1943.318525,11265.4
1946.149158,11496.6
1948.97684,12558.4
1951.801584,11563.4
1954.623403,11333.6
1957.44231,11519.8
1960.258318,10941.4
1963.071439,11046.8
1965.881688,11209.4
1968.689078,11315.8
1971.493621,11072.2
