Ramanshift[cm-1],Intensity
-93.47115107,10177.4
-87.69374369,9331.2
-81.9253076,9180.8
-76.16582701,9278.2
-70.41528615,9276.8
-64.67366933,9159
-58.94096086,9181
-53.21714512,9307.4
-47.50220652,9393.2
-41.79612954,9384.8
-36.09889866,9652.6
-30.41049843,9757.8
-24.73091343,9567.6
-19.0601283,9519.6
-13.39812769,9380
-7.744896327,9253.6
-2.100418946,9145.8
3.535319659,9577.8
9.162334658,9003.6
14.78064118,9311
20.39025432,9110.4
25.99118913,9110.6
31.58346061,9540.8
37.16708375,9312.8
42.74207347,9194.8
48.30844468,9120.8
53.86621222,9080
59.41539093,8825.2
64.95599558,8868.6
70.48804091,9101
76.01154164,9218.6
81.52651243,8805
87.03296792,9043.6
92.5309227,9315.6
98.02039134,8806
103.5013884,9020
108.9739282,9021.4
114.4380255,8895.2
119.8936944,9103.2
125.3409495,9612
130.779805,8914.6
136.2102753,8757.2
141.6323747,8855.4
147.0461174,9190.2
152.4515176,8989.2
157.8485895,8953.6
163.2373472,8858
168.6178049,9102.6
173.9899766,9245.2
179.3538764,8875.8
184.7095182,8927.6
190.0569161,9210.8
195.396084,9202.8
200.7270358,8848
206.0497854,8847.8
211.3643466,8694.2
216.6707333,8915.4
221.9689593,8799
227.2590382,8852.4
232.5409839,8818.4
237.8148101,8789.8
243.0805303,8802.6
248.3381582,8790.8
253.5877075,8773
258.8291917,8709
264.0626244,8829.6
269.288019,8873
274.5053891,9035.4
279.7147481,8855
284.9161094,8754.8
290.1094865,8919.6
295.2948927,9471.4
300.4723414,11017.4
305.6418459,12513
310.8034194,13860.2
315.9570752,15253.8
321.1028267,15597.4
326.2406869,15976.8
331.370669,16353.4
336.4927863,16634.8
341.6070517,16793.4
346.7134786,16773.2
351.8120798,17085.2
356.9028684,16935
361.9858576,17177.6
367.0610602,17630.6
372.1284892,18518.6
377.1881577,21194.6
382.2400784,26075.8
387.2842644,31502.6
392.3207284,32781.8
397.3494833,28844
402.370542,24335.2
407.3839172,20871.6
412.3896217,18690.6
417.3876683,17193.6
422.3780697,16514
427.3608386,15991.2
432.3359876,15950.6
437.3035295,15914
442.2634769,15702.6
447.2158423,15044.2
452.1606383,15009.2
457.0978776,15152.6
462.0275727,14729
466.9497361,15141.2
471.8643802,14705.2
476.7715176,15190.8
481.6711608,15500.8
486.5633221,15657
491.448014,15510.8
496.3252488,15361
501.195039,15202.2
506.0573969,15487.4
510.9123349,15107
515.7598651,14641.8
520.6,14844.8
525.4327518,14577
530.2581327,14743.6
535.076155,14327.4
539.8868309,14691.8
544.6901726,14788.8
549.4861922,14129.2
554.2749019,14572.4
559.0563139,13991.4
563.8304402,13712
568.597293,14454.6
573.3568844,14168.4
578.1092263,13937.4
582.8543308,14179.8
587.5922101,14156.4
592.322876,13880.4
597.0463405,13947.6
601.7626157,14258.2
606.4717135,13879.4
611.1736458,13849.4
615.8684246,13838.4
620.5560617,14249.2
625.2365691,14274.6
629.9099585,15113.2
634.5762419,15869.2
639.2354312,15547.4
643.887538,15195.2
648.5325743,14451.6
653.1705518,14210.6
657.8014823,14189.2
662.4253775,13554
667.0422493,13912.6
671.6521092,13874.8
676.2549691,13977.6
680.8508407,13895.2
685.4397355,13934.6
690.0216654,14151.6
694.5966419,14292.6
699.1646767,14994
703.7257814,14915.6
708.2799676,14769
712.827247,14707.6
717.367631,14770.6
721.9011314,14304.2
726.4277595,13564.6
730.9475271,13989
735.4604456,13760.2
739.9665264,14022.4
744.4657813,13848.2
748.9582215,13598.8
753.4438587,13305.6
757.9227042,13227
762.3947696,13582.4
766.8600662,13117.2
771.3186056,14144
775.770399,13475
780.215458,13759.4
784.6537939,13364.6
789.0854181,13466.6
793.510342,13756.4
797.9285769,14617.4
802.3401342,14510.8
806.7450253,14826
811.1432614,14696.6
815.5348538,14502.8
819.9198139,14179.4
824.2981531,13977
828.6698824,13777
833.0350133,13350.6
837.393557,13027
841.7455248,13126.2
846.0909278,12836.4
850.4297774,12766.4
854.7620848,12754.8
859.0878611,13076.6
863.4071176,12503.8
867.7198655,12818.6
872.026116,13112.6
876.3258802,13346.8
880.6191693,13112.8
884.9059946,13107.6
889.186367,13501.8
893.4602979,12805.2
897.7277982,12974
901.9888793,13184.4
906.2435521,13403.6
910.4918277,13305.2
914.7337174,13585.4
918.9692321,13728
923.1983831,14191.4
927.4211813,13885.4
931.6376378,14496
935.8477637,14094.4
940.0515701,14427.2
944.249068,14642.6
948.4402684,14097.4
952.6251825,14907.8
956.8038212,14717.8
960.9761955,15221.6
965.1423166,15021.2
969.3021953,14985.4
973.4558427,15121.4
977.6032699,14994.4
981.7444877,14893.8
985.8795072,14892.6
990.0083394,14942.4
994.1309953,14918.2
998.2474857,16057.4
1002.357822,16462
1006.462014,17398.6
1010.560075,15827.2
1014.652013,14656.8
1018.737841,14051.8
1022.81757,13558.4
1026.891209,13421.8
1030.958771,13244.4
1035.020266,13604.2
1039.075705,13526.2
1043.1251,13367.6
1047.16846,13762
1051.205797,14145.2
1055.237121,14673.6
1059.262444,15862.2
1063.281777,17975.8
1067.295131,22129
1071.302515,29022.4
1075.303942,34408.2
1079.299422,36915.4
1083.288966,32119.4
1087.272585,24360.6
1091.250289,18680.6
1095.222091,15760.6
1099.187999,14258.8
1103.148026,13884.6
1107.102183,13805
1111.050479,13841.4
1114.992927,14055
1118.929536,14477.2
1122.860318,15450.8
1126.785283,16513.8
1130.704443,19020
1134.617808,23071.8
1138.52539,26161.6
1142.427198,26854.6
1146.323244,24429.8
1150.213538,20511.6
1154.098093,18303.4
1157.976917,16268.6
1161.850023,15409.6
1165.717421,15522.2
1169.579121,15312.8
1173.435135,15804.8
1177.285474,15855
1181.130148,16360.8
1184.969169,16806.2
1188.802547,16355.8
1192.630292,15305
1196.452416,14306
1200.26893,13746.4
1204.079844,13093.6
1207.88517,12618.2
1211.684917,13062.2
1215.479098,12778.8
1219.267722,13795.2
1223.050801,12809.6
1226.828346,12845.2
1230.600366,12841
1234.366874,13073.6
1238.12788,12935.2
1241.883395,12999.4
1245.633429,13062
1249.377994,12996.8
1253.1171,12412.8
1256.850759,12611.8
1260.578981,12485.6
1264.301776,12546.2
1268.019157,12451.6
1271.731133,12267.8
1275.437715,12123.8
1279.138915,12536.2
1282.834743,12799.4
1286.52521,12708.6
1290.210328,12657
1293.890106,12885.2
1297.564555,13382
1301.233688,13159.6
1304.897514,13450.2
1308.556044,13484.2
1312.209289,13298.2
1315.857261,12722
1319.499969,12700.4
1323.137425,13173.2
1326.769641,12797
1330.396626,13037.6
1334.018391,12748.6
1337.634948,12831.8
1341.246307,12774.8
1344.85248,12844.6
1348.453477,12976.6
1352.049309,12992.6
1355.639987,13207.8
1359.225522,13930
1362.805925,13811.2
1366.381207,14117.4
1369.951379,14244
1373.516452,14727.8
1377.076436,15263.8
1380.631343,15820.4
1384.181184,16898
1387.725969,18336.4
1391.26571,18361.8
1394.800417,16937.6
1398.330102,15122.8
1401.854776,14016.2
1405.374448,13386.4
1408.889132,12967.2
1412.398837,12960
1415.903574,13519.2
1419.403355,14936.4
1422.89819,15955.6
1426.388091,17720.4
1429.873069,19837.6
1433.353134,20394.6
1436.828298,20495.4
1440.298571,19887
1443.763965,18255
1447.224491,16367.2
1450.68016,14984
1454.130983,14051.8
1457.576971,13450
1461.018135,13186.2
1464.454486,13162
1467.886036,13073.8
1471.312794,13261.2
1474.734774,12819.2
1478.151985,13127.6
1481.564439,12784.6
1484.972146,12960.2
1488.375119,12905.6
1491.773368,12995.4
1495.166904,12919
1498.555739,11973
1501.939883,11747.6
1505.319349,11401.6
1508.694146,11667
1512.064286,11690.8
1515.429781,11652.4
1518.790642,11486.8
1522.146879,11540.6
1525.498505,11319.6
1528.845529,11345
1532.187965,12107.2
1535.525822,11936
1538.859112,12054.2
1542.187846,12623.8
1545.512036,12207.8
1548.831693,13269
1552.146829,13190.6
1555.457453,12921.8
1558.763579,13183.4
1562.065216,13982.8
1565.362377,14827.8
1568.655073,15683.4
1571.943315,16336.6
1575.227114,16859.6
1578.506482,17389
1581.781431,18201.4
1585.051971,18440
1588.318114,18848.2
1591.579872,18505.6
1594.837255,17542.6
1598.090275,15987.4
1601.338945,14567.6
1604.583274,13487
1607.823275,12509.8
1611.058959,11753
1614.290338,12281.2
1617.517422,11225.2
1620.740224,11283.8
1623.958755,10921
1627.173027,10850.8
1630.38305,10418.6
1633.588838,10614.8
1636.7904,10489.4
1639.987749,10496.6
1643.180896,10527.4
1646.369853,10035.4
1649.554632,10484
1652.735244,10056.2
1655.9117,9731.2
1659.084013,9976.8
1662.252193,10377.4
1665.416254,9763.2
1668.576205,9878.2
1671.732059,10092.4
1674.883828,10084.8
1678.031523,9843.6
1681.175157,9822.2
1684.314739,9801.2
1687.450284,9784.4
1690.581801,9648
1693.709304,9618.8
1696.832803,9663.8
1699.952311,9773
1703.067839,9827.8
1706.179399,9704
1709.287003,9913
1712.390663,9767.2
1715.49039,9718.4
1718.586197,9950.2
1721.678095,9891.4
1724.766096,9846.2
1727.850213,9442.4
1730.930456,9649.6
1734.006838,9522.4
1737.079372,9711.6
1740.148067,9444.8
1743.212938,10174.8
1746.273996,9622.2
1749.331252,9594.6
1752.384718,9663.2
1755.434408,9573.2
1758.480332,9568
1761.522503,9687.8
1764.560933,9439.8
1767.595634,9192.4
1770.626618,9694.4
1773.653896,9607.6
1776.677482,9461.8
1779.697388,9414.6
1782.713625,9841
1785.726205,9711
1788.735141,9756.2
1791.740445,9391.6
1794.742129,9324.2
1797.740206,9672
1800.734687,9701
1803.725585,9568.8
1806.712912,9575
1809.69668,9300.6
1812.676902,9448.2
1815.65359,9152.2
1818.626756,9229.8
1821.596413,9448.2
1824.562573,9200.6
1827.525247,9420.4
1830.48445,9154.4
1833.440192,9406.4
1836.392487,9380.4
1839.341347,9501
1842.286784,9578.2
1845.22881,9119.2
1848.167439,9528
1851.102682,9381.8
1854.034553,9338.8
1856.963063,9222.2
1859.888226,9810
1862.810053,9508.2
1865.728557,9325.8
1868.643751,9136.4
1871.555648,9252.6
1874.46426,9048.4
1877.369599,9385.4
1880.271679,9275.4
1883.170512,9200.8
1886.06611,9532
1888.958487,9152.4
1891.847655,9217.8
1894.733626,9420.2
1897.616414,9394.8
1900.496032,9156.8
1903.372491,9248.2
1906.245805,9563.6
1909.115987,9550.2
1911.983049,9488.8
1914.847004,9448.4
1917.707866,9571.4
1920.565646,9450.2
1923.420359,9187.8
1926.272016,9385.2
1929.120631,9181.8
1931.966216,9293
1934.808786,9338.2
1937.648351,9374.4
1940.484927,9406.8
1943.318525,9434.4
1946.149158,9589.4
1948.97684,10285.6
1951.801584,9489.6
1954.623403,9403.4
1957.44231,9479.8
1960.258318,9159.6
1963.071439,9208.8
1965.881688,9343.2
1968.689078,9460.6
1971.493621,9228.4
