Ramanshift[cm-1],Intensity
-93.47115107,14335.6
-87.69374369,12967.2
-81.9253076,12772
-76.16582701,12887.8
-70.41528615,12958.2
-64.67366933,12726.6
-58.94096086,12641.2
-53.21714512,12935.6
-47.50220652,13053.2
-41.79612954,13019.2
-36.09889866,13451.6
-30.41049843,13503.8
-24.73091343,13165.8
-19.0601283,13163.4
-13.39812769,13105.4
-7.744896327,12654
-2.100418946,12568.2
3.535319659,13193.6
9.162334658,12621.8
14.78064118,12968
20.39025432,12546
25.99118913,12611.4
31.58346061,13177.4
37.16708375,12969.6
42.74207347,12611.2
48.30844468,12585.2
53.86621222,12413.2
59.41539093,12183.6
64.95599558,12065.4
70.48804091,12502.4
76.01154164,12692.4
81.52651243,11985.4
87.03296792,12558.4
92.5309227,12898.2
98.02039134,12141.8
103.5013884,12577
108.9739282,12320.8
114.4380255,12331.8
119.8936944,12518
125.3409495,13456.2
130.779805,12249.4
136.2102753,12011.2
141.6323747,12074.4
147.0461174,12713.8
152.4515176,12217
157.8485895,12195.4
163.2373472,12032.2
168.6178049,12398.8
173.9899766,12720.8
179.3538764,12226
184.7095182,12362.6
190.0569161,12554.8
195.396084,12750.2
200.7270358,12114.8
206.0497854,12127
211.3643466,11851.6
216.6707333,12269.2
221.9689593,11877.8
227.2590382,12019.4
232.5409839,12026.4
237.8148101,11943.2
243.0805303,12093.6
248.3381582,12004.6
253.5877075,11897.2
258.8291917,12074.4
264.0626244,12188.2
269.288019,12267.2
274.5053891,12434
279.7147481,12166
284.9161094,11857.6
290.1094865,12107.2
295.2948927,12674.2
300.4723414,14321.6
305.6418459,15343
310.8034194,16478
315.9570752,17913.6
321.1028267,18443.8
326.2406869,18675.2
331.370669,19029.4
336.4927863,19285
341.6070517,19380.4
346.7134786,19546.2
351.8120798,19836.6
356.9028684,19599.6
361.9858576,19859
367.0610602,20268.6
372.1284892,20525
377.1881577,22571.2
382.2400784,25618.2
387.2842644,30007.8
392.3207284,32115.2
397.3494833,29709.8
402.370542,26692.6
407.3839172,23658
412.3896217,21454.8
417.3876683,20179
422.3780697,19440.4
427.3608386,19140.2
432.3359876,19383.2
437.3035295,19268.6
442.2634769,19349.2
447.2158423,18340.2
452.1606383,18165.4
457.0978776,18369.8
462.0275727,17562.8
466.9497361,17966.6
471.8643802,17398.8
476.7715176,17982.8
481.6711608,17959.2
486.5633221,18356.6
491.448014,18025
496.3252488,17950.6
501.195039,18039.6
506.0573969,18444.6
510.9123349,18139
515.7598651,17512.6
520.6,17831.4
525.4327518,17771.8
530.2581327,17710
535.076155,17147.2
539.8868309,17647.4
544.6901726,17722.8
549.4861922,17350.2
554.2749019,18101.6
559.0563139,17073
563.8304402,16829
568.597293,17882
573.3568844,17528
578.1092263,17027.8
582.8543308,17463
587.5922101,17350.2
592.322876,16920
597.0463405,17011.6
601.7626157,17505.6
606.4717135,17042.8
611.1736458,17045.4
615.8684246,17004
620.5560617,17350
625.2365691,17167.4
629.9099585,17885.6
634.5762419,18638.2
639.2354312,17986
643.887538,18032.8
648.5325743,17398.2
653.1705518,17191.4
657.8014823,17215.2
662.4253775,16516.4
667.0422493,16864.4
671.6521092,16832
676.2549691,16922.6
680.8508407,17041
685.4397355,16889.6
690.0216654,17189.2
694.5966419,16932.2
699.1646767,17925.2
703.7257814,17655.8
708.2799676,17684.4
712.827247,17745.2
717.367631,17178.6
721.9011314,17157.2
726.4277595,16423.6
730.9475271,17068.4
735.4604456,16859.2
739.9665264,17333.4
744.4657813,16729.8
748.9582215,16728.6
753.4438587,16276.8
757.9227042,15973.6
762.3947696,16604.2
766.8600662,16241.8
771.3186056,17598.8
775.770399,16622.8
780.215458,17017.8
784.6537939,16345.6
789.0854181,16405.2
793.510342,16679.4
797.9285769,17515.2
802.3401342,17127.6
806.7450253,17333.8
811.1432614,17269
815.5348538,17027.2
819.9198139,16657.6
824.2981531,16736.6
828.6698824,16596.6
833.0350133,16207.4
837.393557,15857.4
841.7455248,16239
846.0909278,15877
850.4297774,15790.6
854.7620848,15970.2
859.0878611,16150.8
863.4071176,15501
867.7198655,15927.4
872.026116,16324.6
876.3258802,16738
880.6191693,16256.2
884.9059946,16366
889.186367,16801.4
893.4602979,15765.6
897.7277982,15717.6
901.9888793,16220.2
906.2435521,16775.6
910.4918277,16219.8
914.7337174,16094.6
918.9692321,16190
923.1983831,16846.8
927.4211813,16599.4
931.6376378,17254.4
935.8477637,16755.8
940.0515701,17103.4
944.249068,17261.6
948.4402684,16491.8
952.6251825,17439.4
956.8038212,17046.8
960.9761955,17841
965.1423166,17264.2
969.3021953,17418.6
973.4558427,17468.8
977.6032699,17203.4
981.7444877,17318.4
985.8795072,17169.2
990.0083394,17320.6
994.1309953,17140
998.2474857,18018.4
1002.357822,17677.4
1006.462014,18357.8
1010.560075,17477
1014.652013,17084.2
1018.737841,16817.6
1022.81757,16124.4
1026.891209,16022.6
1030.958771,15770.2
1035.020266,16179.8
1039.075705,15927.2
1043.1251,15743
1047.16846,16040.6
1051.205797,16108.8
1055.237121,16238.6
1059.262444,16787.8
1063.281777,17784.6
1067.295131,20263.6
1071.302515,25003
1075.303942,28129.2
1079.299422,30784.6
1083.288966,27931
1087.272585,22787.8
1091.250289,19001.2
1095.222091,17058
1099.187999,15993.6
1103.148026,16047.4
1107.102183,15591.4
1111.050479,15781
1114.992927,15552.4
1118.929536,15601.4
1122.860318,16145.8
1126.785283,16092
1130.704443,16780.4
1134.617808,18679.2
1138.52539,19511.6
1142.427198,19590.6
1146.323244,18810.8
1150.213538,17520.2
1154.098093,17402.4
1157.976917,16326.6
1161.850023,16271.6
1165.717421,16872
1169.579121,16806.4
1173.435135,17586.8
1177.285474,17019.8
1181.130148,17503.4
1184.969169,17744
1188.802547,17012.6
1192.630292,16054.4
1196.452416,15266.4
1200.26893,15190.6
1204.079844,14871.6
1207.88517,14219.8
1211.684917,15155.6
1215.479098,14676.8
1219.267722,16247.8
1223.050801,14595
1226.828346,14792.8
1230.600366,14969.8
1234.366874,14964.6
1238.12788,14859
1241.883395,14863
1245.633429,15219.4
1249.377994,15215.6
1253.1171,14338
1256.850759,14799.8
1260.578981,14596.2
1264.301776,14666.4
1268.019157,14541.2
1271.731133,14225
1275.437715,14131
1279.138915,14795.2
1282.834743,14920.8
1286.52521,14446
1290.210328,14348.2
1293.890106,14496.4
1297.564555,15049.2
1301.233688,14324.2
1304.897514,14825
1308.556044,14983.8
1312.209289,14951.4
1315.857261,14328.8
1319.499969,14426.8
1323.137425,15069.6
1326.769641,14553.8
1330.396626,15114.8
1334.018391,14469.2
1337.634948,14529.4
1341.246307,14348.6
1344.85248,14293.8
1348.453477,14241.6
1352.049309,14236.2
1355.639987,14359.2
1359.225522,15129.4
1362.805925,14701.4
1366.381207,14786.4
1369.951379,14788.8
1373.516452,15077
1377.076436,15332.8
1380.631343,15450.6
1384.181184,15778.2
1387.725969,16265.2
1391.26571,16023.4
1394.800417,15457.6
1398.330102,15122.4
1401.854776,14792.6
1405.374448,14456.8
1408.889132,13883.8
1412.398837,13660.6
1415.903574,14178.8
1419.403355,15290.8
1422.89819,15311.4
1426.388091,15966.8
1429.873069,16991
1433.353134,16552
1436.828298,16269.4
1440.298571,15926.6
1443.763965,15116.6
1447.224491,14577.8
1450.68016,14274.8
1454.130983,14587.6
1457.576971,14379.6
1461.018135,14530.2
1464.454486,14605.4
1467.886036,14179.8
1471.312794,14357.4
1474.734774,13974.2
1478.151985,14673.6
1481.564439,14437.8
1484.972146,14597.4
1488.375119,14412.8
1491.773368,14719
1495.166904,15188
1498.555739,14179.8
1501.939883,14215
1505.319349,13685.4
1508.694146,14052.2
1512.064286,14085.2
1515.429781,13966.8
1518.790642,13759.4
1522.146879,14100.8
1525.498505,13619
1528.845529,13697.4
1532.187965,14418.4
1535.525822,14199.8
1538.859112,14242
1542.187846,14963.6
1545.512036,14242.8
1548.831693,15757.2
1552.146829,15247.4
1555.457453,14784.4
1558.763579,14462.4
1562.065216,15120.8
1565.362377,15709.6
1568.655073,16287.4
1571.943315,16456.6
1575.227114,16765.6
1578.506482,17149
1581.781431,18260.4
1585.051971,18348.8
1588.318114,18962
1591.579872,19157.4
1594.837255,18276
1598.090275,17168.8
1601.338945,15865
1604.583274,15305.6
1607.823275,14426.8
1611.058959,13797.2
1614.290338,14311
1617.517422,13313.2
1620.740224,13739
1623.958755,13245.6
1627.173027,13334.6
1630.38305,12799.8
1633.588838,13273.2
1636.7904,12937.4
1639.987749,13061.6
1643.180896,13252.4
1646.369853,12591
1649.554632,13414.8
1652.735244,12753.8
1655.9117,12361.2
1659.084013,12725.4
1662.252193,13401.2
1665.416254,12411.8
1668.576205,12715
1671.732059,13060.6
1674.883828,13046
1678.031523,12485.2
1681.175157,12720.8
1684.314739,12672.2
1687.450284,12564
1690.581801,12441.4
1693.709304,12276.4
1696.832803,12339.8
1699.952311,12689.6
1703.067839,12619.8
1706.179399,12573.4
1709.287003,13075
1712.390663,12593.6
1715.49039,12584.2
1718.586197,13019.6
1721.678095,12831.6
1724.766096,12712
1727.850213,12144
1730.930456,12517.8
1734.006838,12290.6
1737.079372,12603.4
1740.148067,12206.8
1743.212938,13319.8
1746.273996,12404.2
1749.331252,12463.6
1752.384718,12451.8
1755.434408,12529.8
1758.480332,12527.2
1761.522503,12496.4
1764.560933,12320.2
1767.595634,11954.8
1770.626618,12634.2
1773.653896,12769.6
1776.677482,12383
1779.697388,12294.2
1782.713625,12931.6
1785.726205,12729.6
1788.735141,12789.6
1791.740445,12212.6
1794.742129,12220.6
1797.740206,12653.4
1800.734687,12742.4
1803.725585,12526.8
1806.712912,12491.2
1809.69668,12230.6
1812.676902,12251
1815.65359,12006
1818.626756,12095.8
1821.596413,12277
1824.562573,11879.4
1827.525247,12279
1830.48445,12106.8
1833.440192,12269.2
1836.392487,12173.4
1839.341347,12281.2
1842.286784,12371.8
1845.22881,11869.2
1848.167439,12461.6
1851.102682,12269.2
1854.034553,12210
1856.963063,11967.2
1859.888226,12875.4
1862.810053,12439
1865.728557,12211.6
1868.643751,11955.8
1871.555648,11957.2
1874.46426,11696.6
1877.369599,12332
1880.271679,12185.8
1883.170512,12029.2
1886.06611,12532.8
1888.958487,12144.4
1891.847655,12205
1894.733626,12344.6
1897.616414,12376
1900.496032,11885.4
1903.372491,12334.2
1906.245805,12477.6
1909.115987,12481.8
1911.983049,12499
1914.847004,12351.4
1917.707866,12510
1920.565646,12416.8
1923.420359,12013.4
1926.272016,12317.2
1929.120631,12011.2
1931.966216,12262
1934.808786,12160
1937.648351,12466
1940.484927,12352.4
1943.318525,12426.6
1946.149158,12727.8
1948.97684,13843.8
1951.801584,12733
1954.623403,12458.6
1957.44231,12572.8
1960.258318,12050.6
1963.071439,12082.2
1965.881688,12307.8
1968.689078,12471.4
1971.493621,12209.2
