Ramanshift[cm-1],Intensity
-93.47115107,13663.4
-87.69374369,12425.6
-81.9253076,12223
-76.16582701,12295
-70.41528615,12339.6
-64.67366933,12127
-58.94096086,12044
-53.21714512,12285.8
-47.50220652,12361.6
-41.79612954,12454.4
-36.09889866,12878.8
-30.41049843,12975
-24.73091343,12504.2
-19.0601283,12611.2
-13.39812769,12347.4
-7.744896327,12093.4
-2.100418946,11924.8
3.535319659,12606.6
9.162334658,11927.4
14.78064118,12354.4
20.39025432,12051.4
25.99118913,12078.4
31.58346061,12461.4
37.16708375,12309.8
42.74207347,12020.4
48.30844468,12018.2
53.86621222,11809.8
59.41539093,11522.2
64.95599558,11598.8
70.48804091,11926.2
76.01154164,12138.2
81.52651243,11385.8
87.03296792,11924
92.5309227,12210.8
98.02039134,11587.2
103.5013884,11789.6
108.9739282,11676
114.4380255,11726.2
119.8936944,11832.6
125.3409495,12831.2
130.779805,11593
136.2102753,11370.6
141.6323747,11368
147.0461174,12058.8
152.4515176,11631.4
157.8485895,11598
163.2373472,11459.4
168.6178049,11771.2
173.9899766,12012.6
179.3538764,11447.4
184.7095182,11718.2
190.0569161,11875.6
195.396084,12079
200.7270358,11446.8
206.0497854,11601
211.3643466,11252.2
216.6707333,11668.6
221.9689593,11211.8
227.2590382,11422.4
232.5409839,11431.4
237.8148101,11350.8
243.0805303,11459.6
248.3381582,11417.2
253.5877075,11262.6
258.8291917,11384
264.0626244,11510.8
269.288019,11650.2
274.5053891,11784.6
279.7147481,11398.2
284.9161094,11257.2
290.1094865,11400
295.2948927,11948.2
300.4723414,13343.4
305.6418459,14166
310.8034194,15024.6
315.9570752,16100.2
321.1028267,16372.6
326.2406869,16512
331.370669,16746.2
336.4927863,16652.4
341.6070517,16781.4
346.7134786,16813.6
351.8120798,17055.2
356.9028684,16829.4
361.9858576,16861.8
367.0610602,17186.6
372.1284892,17105.6
377.1881577,17712.6
382.2400784,18369
387.2842644,19538.8
392.3207284,20089
397.3494833,19098.8
402.370542,18679
407.3839172,17734.6
412.3896217,17061.6
417.3876683,16394.4
422.3780697,16327.6
427.3608386,16242.4
432.3359876,16470.2
437.3035295,16681.6
442.2634769,16684.2
447.2158423,16068.6
452.1606383,16024
457.0978776,16376.4
462.0275727,15591.6
466.9497361,16077.8
471.8643802,15538.8
476.7715176,16107.6
481.6711608,16104.8
486.5633221,16403.8
491.448014,16121.6
496.3252488,15974.8
501.195039,15945.8
506.0573969,16230.6
510.9123349,16038.8
515.7598651,15501.2
520.6,15994.6
525.4327518,15909.2
530.2581327,15860.2
535.076155,15431.2
539.8868309,15786.6
544.6901726,15955.2
549.4861922,15598
554.2749019,16473.6
559.0563139,15459.6
563.8304402,15229
568.597293,16320
573.3568844,16006
578.1092263,15508.6
582.8543308,16001
587.5922101,15875
592.322876,15486.6
597.0463405,15715.4
601.7626157,15894.2
606.4717135,15479.2
611.1736458,15442.2
615.8684246,15545.2
620.5560617,15901.4
625.2365691,15532.4
629.9099585,16034.4
634.5762419,16275.8
639.2354312,15610
643.887538,15836.4
648.5325743,15400.4
653.1705518,15552.2
657.8014823,15711
662.4253775,15025.4
667.0422493,15215.4
671.6521092,15331
676.2549691,15451.6
680.8508407,15613.2
685.4397355,15417
690.0216654,15521
694.5966419,15246.2
699.1646767,15808
703.7257814,15544.6
708.2799676,15588.8
712.827247,15752.2
717.367631,15562
721.9011314,15450.4
726.4277595,14833.6
730.9475271,15497.8
735.4604456,15298.6
739.9665264,15920
744.4657813,15337.4
748.9582215,15330.8
753.4438587,14913.2
757.9227042,14703.4
762.3947696,15325.4
766.8600662,14819
771.3186056,16233.2
775.770399,15146.4
780.215458,15556
784.6537939,14792
789.0854181,14749.4
793.510342,14905.4
797.9285769,15493.8
802.3401342,14940.2
806.7450253,15148
811.1432614,14994.2
815.5348538,14851.4
819.9198139,14494.4
824.2981531,14806.8
828.6698824,14889.6
833.0350133,14668.2
837.393557,14374
841.7455248,14774
846.0909278,14484
850.4297774,14487.4
854.7620848,14467.6
859.0878611,14772.6
863.4071176,14226.2
867.7198655,14522.6
872.026116,14989.4
876.3258802,15301.2
880.6191693,14825
884.9059946,14989.2
889.186367,15328.6
893.4602979,14365.2
897.7277982,14221.6
901.9888793,14679.8
906.2435521,15157.6
910.4918277,14470.2
914.7337174,14461.2
918.9692321,14369.6
923.1983831,15007.6
927.4211813,14711.8
931.6376378,15298
935.8477637,14839.8
940.0515701,14999.4
944.249068,15097.8
948.4402684,14180.6
952.6251825,15100.2
956.8038212,14679
960.9761955,15335.2
965.1423166,14761.6
969.3021953,14792
973.4558427,14812
977.6032699,14538.4
981.7444877,14680.2
985.8795072,14663.8
990.0083394,14798.2
994.1309953,14410.2
998.2474857,14884.6
1002.357822,14023.8
1006.462014,14680.4
1010.560075,14309.4
1014.652013,14647.4
1018.737841,15073.4
1022.81757,14446.8
1026.891209,14332
1030.958771,14199
1035.020266,14578.6
1039.075705,14228.2
1043.1251,14014.2
1047.16846,14331.4
1051.205797,14197.4
1055.237121,13992
1059.262444,14265.8
1063.281777,14270.6
1067.295131,14795
1071.302515,16416
1075.303942,16382
1079.299422,17210.2
1083.288966,16060.2
1087.272585,15137.4
1091.250289,14712.8
1095.222091,14584.4
1099.187999,14091.4
1103.148026,14217.4
1107.102183,14019.8
1111.050479,14230
1114.992927,14071.6
1118.929536,14006.2
1122.860318,14439.4
1126.785283,14103.6
1130.704443,14302.8
1134.617808,15168.8
1138.52539,15167.8
1142.427198,15032.4
1146.323244,14783.4
1150.213538,14171.8
1154.098093,14624.2
1157.976917,13830
1161.850023,13817.2
1165.717421,14376.8
1169.579121,14055.8
1173.435135,14661.8
1177.285474,13771.4
1181.130148,14081.8
1184.969169,14296.6
1188.802547,14211
1192.630292,13747.8
1196.452416,13541.8
1200.26893,13629.8
1204.079844,13267
1207.88517,12878.8
1211.684917,13481
1215.479098,13161.8
1219.267722,14656.4
1223.050801,13232.8
1226.828346,13196.4
1230.600366,13527.4
1234.366874,13608.4
1238.12788,13289
1241.883395,13467.2
1245.633429,13655.8
1249.377994,13754.6
1253.1171,12809
1256.850759,13300.6
1260.578981,13192.8
1264.301776,13367.8
1268.019157,13132.8
1271.731133,12997.8
1275.437715,12844.4
1279.138915,13396
1282.834743,13633.6
1286.52521,13245.2
1290.210328,13057.4
1293.890106,13180.4
1297.564555,13745.4
1301.233688,13033
1304.897514,13337.4
1308.556044,13497.4
1312.209289,13451.4
1315.857261,12932
1319.499969,13134.8
1323.137425,13811
1326.769641,13228.4
1330.396626,13790.6
1334.018391,13161.6
1337.634948,13499
1341.246307,13049.8
1344.85248,13023.2
1348.453477,12882
1352.049309,13021.2
1355.639987,13132.8
1359.225522,13548.2
1362.805925,13145
1366.381207,13255.2
1369.951379,13255.4
1373.516452,13374.6
1377.076436,13563.4
1380.631343,13499.8
1384.181184,13457
1387.725969,13633.4
1391.26571,13283.8
1394.800417,13075.4
1398.330102,13108.2
1401.854776,13219.6
1405.374448,13027.4
1408.889132,12559.8
1412.398837,12328
1415.903574,12859.2
1419.403355,13495
1422.89819,13186.6
1426.388091,13142.2
1429.873069,13728.8
1433.353134,13058
1436.828298,13003.2
1440.298571,13002
1443.763965,12793
1447.224491,12538
1450.68016,12618.4
1454.130983,13030
1457.576971,12888.8
1461.018135,12995.4
1464.454486,13207.6
1467.886036,12716.8
1471.312794,12806.8
1474.734774,12453
1478.151985,13261
1481.564439,12920.2
1484.972146,12822.8
1488.375119,12453.2
1491.773368,12878.2
1495.166904,13273.4
1498.555739,12686.2
1501.939883,12789
1505.319349,12252.6
1508.694146,12660.2
1512.064286,12690.6
1515.429781,12771
1518.790642,12514.8
1522.146879,12745.6
1525.498505,12248.8
1528.845529,12257.6
1532.187965,13006
1535.525822,12538.2
1538.859112,12593.6
1542.187846,13174.2
1545.512036,12223.2
1548.831693,13591.4
1552.146829,13055.6
1555.457453,12256.6
1558.763579,12044.8
1562.065216,12686
1565.362377,12910.4
1568.655073,13194.6
1571.943315,13090.8
1575.227114,13074.8
1578.506482,13023
1581.781431,13681.4
1585.051971,13417.2
1588.318114,13437.4
1591.579872,13504.8
1594.837255,13072.8
1598.090275,12700.2
1601.338945,12516.8
1604.583274,12946.2
1607.823275,12402.2
1611.058959,12072.2
1614.290338,13160.6
1617.517422,11913.2
1620.740224,12349.6
1623.958755,11882.4
1627.173027,12043.4
1630.38305,11657.6
1633.588838,12142.6
1636.7904,11870.6
1639.987749,12164.8
1643.180896,12323.8
1646.369853,11679.4
1649.554632,12508.8
1652.735244,11876.6
1655.9117,11505.4
1659.084013,11944.2
1662.252193,12446.4
1665.416254,11601.4
1668.576205,11944.6
1671.732059,12193.8
1674.883828,12220.8
1678.031523,11787.6
1681.175157,11784.2
1684.314739,11837.4
1687.450284,11691
1690.581801,11729.8
1693.709304,11511.6
1696.832803,11589.8
1699.952311,11812
1703.067839,11824.6
1706.179399,11681
1709.287003,12158
1712.390663,11720.4
1715.49039,11783.4
1718.586197,12162
1721.678095,11927.8
1724.766096,11864.8
1727.850213,11413.2
1730.930456,11762.8
1734.006838,11600.6
1737.079372,11773.2
1740.148067,11471.6
1743.212938,12521.6
1746.273996,11674.8
1749.331252,11715
1752.384718,11792.6
1755.434408,11738.6
1758.480332,11733
1761.522503,11726
1764.560933,11581
1767.595634,11255
1770.626618,11994
1773.653896,11987
1776.677482,11607.2
1779.697388,11514.8
1782.713625,12165.6
1785.726205,12079.2
1788.735141,11998
1791.740445,11521.8
1794.742129,11483
1797.740206,11962.8
1800.734687,12015.8
1803.725585,11780
1806.712912,11841.4
1809.69668,11469.2
1812.676902,11550
1815.65359,11389.2
1818.626756,11379
1821.596413,11490.6
1824.562573,11214.4
1827.525247,11598.6
1830.48445,11342.4
1833.440192,11489.8
1836.392487,11360.6
1839.341347,11653.8
1842.286784,11659
1845.22881,11144.4
1848.167439,11735.4
1851.102682,11467.4
1854.034553,11470
1856.963063,11323.2
1859.888226,12219.8
1862.810053,11730.6
1865.728557,11526.8
1868.643751,11158.2
1871.555648,11311.6
1874.46426,11024.4
1877.369599,11650.2
1880.271679,11461.8
1883.170512,11423.4
1886.06611,11802.2
1888.958487,11491.8
1891.847655,11416.4
1894.733626,11468
1897.616414,11683.2
1900.496032,11173.6
1903.372491,11509.6
1906.245805,11784.6
1909.115987,11836.6
1911.983049,11761.8
1914.847004,11641.4
1917.707866,11853.2
1920.565646,11772.2
1923.420359,11337.6
1926.272016,11662.8
1929.120631,11405.2
1931.966216,11518.2
1934.808786,11509.4
1937.648351,11891.2
1940.484927,11573.6
1943.318525,11701.6
1946.149158,12097.4
1948.97684,13062.8
1951.801584,11964.4
1954.623403,11760
1957.44231,11892
1960.258318,11343.8
1963.071439,11386.8
1965.881688,11555
1968.689078,11734.4
1971.493621,11538.6
