Ramanshift[cm-1],Intensity
-93.47115107,13924
-87.69374369,12566
-81.9253076,12423
-76.16582701,12523.6
-70.41528615,12563
-64.67366933,12225
-58.94096086,12230.4
-53.21714512,12526.6
-47.50220652,12556.4
-41.79612954,12607.2
-36.09889866,13166
-30.41049843,13056.8
-24.73091343,12709.2
-19.0601283,12826.6
-13.39812769,12594.6
-7.744896327,12352.8
-2.100418946,12155.8
3.535319659,12794.8
9.162334658,12242.8
14.78064118,12496.8
20.39025432,12224.4
25.99118913,12186
31.58346061,12771.8
37.16708375,12481.4
42.74207347,12229.8
48.30844468,12204.4
53.86621222,12066.2
59.41539093,11758.4
64.95599558,11653.6
70.48804091,12180.4
76.01154164,12233
81.52651243,11584.4
87.03296792,12192
92.5309227,12440.4
98.02039134,11655.2
103.5013884,12030.4
108.9739282,11863.4
114.4380255,11858.4
119.8936944,12084.6
125.3409495,12937.6
130.779805,11755.6
136.2102753,11560.4
141.6323747,11577.6
147.0461174,12220.6
152.4515176,11796.4
157.8485895,11778.8
163.2373472,11691.6
168.6178049,11977.8
173.9899766,12264
179.3538764,11788
184.7095182,11778.8
190.0569161,12049.2
195.396084,12274.8
200.7270358,11580.4
206.0497854,11596.6
211.3643466,11491.2
216.6707333,11811.4
221.9689593,11376.8
227.2590382,11600.8
232.5409839,11561.4
237.8148101,11465.8
243.0805303,11618.8
248.3381582,11578.4
253.5877075,11424.2
258.8291917,11573.6
264.0626244,11599.8
269.288019,11882.4
274.5053891,12014.8
279.7147481,11692.2
284.9161094,11570.2
290.1094865,12004
295.2948927,13041.4
300.4723414,15848
305.6418459,18590.6
310.8034194,21105.4
315.9570752,22885.2
321.1028267,23168.8
326.2406869,23300.6
331.370669,23732.6
336.4927863,24005.4
341.6070517,24156.8
346.7134786,24247.4
351.8120798,24662.2
356.9028684,24417.8
361.9858576,24390.2
367.0610602,24760.2
372.1284892,24518.6
377.1881577,25203.8
382.2400784,26132.2
387.2842644,27634.8
392.3207284,28480.2
397.3494833,27501.8
402.370542,26740.2
407.3839172,25298.8
412.3896217,24217
417.3876683,23442.8
422.3780697,23283.8
427.3608386,23055.8
432.3359876,23328.4
437.3035295,23284.2
442.2634769,23248.2
447.2158423,22468.6
452.1606383,22321
457.0978776,22670.2
462.0275727,21895.8
466.9497361,22531.2
471.8643802,21845.8
476.7715176,22212.6
481.6711608,22350.8
486.5633221,22526.6
491.448014,22212.8
496.3252488,22265.8
501.195039,22135.4
506.0573969,22380.8
510.9123349,21985.4
515.7598651,21448.2
520.6,21966.8
525.4327518,21853.4
530.2581327,21840.8
535.076155,21096.8
539.8868309,21638.2
544.6901726,21557.6
549.4861922,21050.6
554.2749019,21996.4
559.0563139,20985
563.8304402,20868.2
568.597293,21726.2
573.3568844,21483.2
578.1092263,21050.4
582.8543308,21301.4
587.5922101,21308.2
592.322876,21027.6
597.0463405,21097.8
601.7626157,21380.2
606.4717135,20770.8
611.1736458,20810.4
615.8684246,20982.2
620.5560617,21175.2
625.2365691,20874.2
629.9099585,21325
634.5762419,21547.6
639.2354312,20846.4
643.887538,20990
648.5325743,20601
653.1705518,20592
657.8014823,20745.4
662.4253775,20105
667.0422493,20501
671.6521092,20427.2
676.2549691,20620.6
680.8508407,20439.6
685.4397355,20279.2
690.0216654,20535.6
694.5966419,20250
699.1646767,20787.6
703.7257814,20569.6
708.2799676,20695.8
712.827247,20675.6
717.367631,20388.8
721.9011314,20323
726.4277595,19614
730.9475271,20220.2
735.4604456,20127.8
739.9665264,20517.6
744.4657813,20002.6
748.9582215,20023
753.4438587,19531.6
757.9227042,19237
762.3947696,19724.6
766.8600662,19174.4
771.3186056,20657.8
775.770399,19522.8
780.215458,19896.8
784.6537939,19143
789.0854181,19016.6
793.510342,18993.2
797.9285769,19543.4
802.3401342,19130.4
806.7450253,19344.4
811.1432614,19157.4
815.5348538,18842
819.9198139,18555.4
824.2981531,18712.8
828.6698824,18784.2
833.0350133,18573.2
837.393557,18322.6
841.7455248,18579
846.0909278,18432
850.4297774,18329.6
854.7620848,18307
859.0878611,18597.2
863.4071176,17989.8
867.7198655,18595.8
872.026116,18947.6
876.3258802,19297.8
880.6191693,18992.6
884.9059946,19044.4
889.186367,19546.4
893.4602979,18310.2
897.7277982,18213.2
901.9888793,18534.4
906.2435521,19010.6
910.4918277,18359.4
914.7337174,18342.6
918.9692321,18270
923.1983831,19053.6
927.4211813,18426.6
931.6376378,19282.4
935.8477637,18656.6
940.0515701,18851.6
944.249068,18859.4
948.4402684,18007.8
952.6251825,18925.8
956.8038212,18652.6
960.9761955,19183.4
965.1423166,18611.6
969.3021953,18594.2
973.4558427,18654.2
977.6032699,18401
981.7444877,18415.6
985.8795072,18428
990.0083394,18435.4
994.1309953,18078.2
998.2474857,18611.2
1002.357822,17796.4
1006.462014,18420.2
1010.560075,18205.4
1014.652013,18448.8
1018.737841,18711.2
1022.81757,18197
1026.891209,18123
1030.958771,18057.4
1035.020266,18450.8
1039.075705,17980.2
1043.1251,17688.8
1047.16846,17971.2
1051.205797,17954.2
1055.237121,17744
1059.262444,17888.2
1063.281777,17918.2
1067.295131,18832.2
1071.302515,20951.2
1075.303942,21260.2
1079.299422,22201.4
1083.288966,20618
1087.272585,19312
1091.250289,18616.6
1095.222091,18367.6
1099.187999,17696
1103.148026,17883.8
1107.102183,17630.4
1111.050479,17730
1114.992927,17684.8
1118.929536,17516.2
1122.860318,17920.6
1126.785283,17422.2
1130.704443,17525.6
1134.617808,18404.8
1138.52539,18381.8
1142.427198,18208.6
1146.323244,18261.8
1150.213538,17703.4
1154.098093,18061.6
1157.976917,17572.4
1161.850023,17517.8
1165.717421,18100.6
1169.579121,17889.8
1173.435135,18443.4
1177.285474,17662.6
1181.130148,17949
1184.969169,18141.8
1188.802547,17817
1192.630292,17231
1196.452416,16815.2
1200.26893,16898
1204.079844,16667.6
1207.88517,16280.4
1211.684917,16979
1215.479098,16412.4
1219.267722,18164.4
1223.050801,16427
1226.828346,16608.8
1230.600366,16778.4
1234.366874,16912
1238.12788,16788.2
1241.883395,16783.2
1245.633429,17043.2
1249.377994,17142.2
1253.1171,16217.2
1256.850759,16606.8
1260.578981,16657.8
1264.301776,16721.8
1268.019157,16590.2
1271.731133,16277.8
1275.437715,16165.4
1279.138915,16855.2
1282.834743,17010.2
1286.52521,16627.2
1290.210328,16336
1293.890106,16566.8
1297.564555,16978.2
1301.233688,16433
1304.897514,16644
1308.556044,16751
1312.209289,16652
1315.857261,16189
1319.499969,16303.4
1323.137425,17041.6
1326.769641,16562
1330.396626,17253
1334.018391,16544.8
1337.634948,16807.2
1341.246307,16643
1344.85248,16454.6
1348.453477,16356.6
1352.049309,16297.4
1355.639987,16345.8
1359.225522,16870.8
1362.805925,16414.2
1366.381207,16344
1369.951379,16490.6
1373.516452,16480
1377.076436,16623
1380.631343,16548.6
1384.181184,16506.2
1387.725969,16642.6
1391.26571,16308
1394.800417,16101.2
1398.330102,16141.2
1401.854776,16338.6
1405.374448,16149.6
1408.889132,15806.2
1412.398837,15325.2
1415.903574,15842.8
1419.403355,16451.6
1422.89819,16114.4
1426.388091,16054
1429.873069,16506.8
1433.353134,15837.8
1436.828298,15822.8
1440.298571,15847.8
1443.763965,15560
1447.224491,15414.6
1450.68016,15425.6
1454.130983,15838.4
1457.576971,15711.8
1461.018135,15856
1464.454486,15863.4
1467.886036,15440.6
1471.312794,15401.4
1474.734774,15082
1478.151985,15967.4
1481.564439,15538.8
1484.972146,15403
1488.375119,15022.8
1491.773368,15320
1495.166904,15903.2
1498.555739,15219.2
1501.939883,15249.6
1505.319349,14843.6
1508.694146,15216.2
1512.064286,15282
1515.429781,15336.2
1518.790642,15030.6
1522.146879,15290.6
1525.498505,14846.4
1528.845529,14885.6
1532.187965,15562.8
1535.525822,15247.6
1538.859112,15259.4
1542.187846,15868
1545.512036,14876.6
1548.831693,16235
1552.146829,15819.2
1555.457453,15007.6
1558.763579,14883.2
1562.065216,15476.6
1565.362377,15898.2
1568.655073,16248
1571.943315,16121.2
1575.227114,16113.8
1578.506482,16132.2
1581.781431,16645
1585.051971,16327.4
1588.318114,16341.2
1591.579872,16124.2
1594.837255,15478.2
1598.090275,14990.4
1601.338945,14730.2
1604.583274,15026.8
1607.823275,14656.2
1611.058959,14178.6
1614.290338,15296
1617.517422,13949.4
1620.740224,14303.2
1623.958755,14142
1627.173027,13992.6
1630.38305,13662.2
1633.588838,14182.8
1636.7904,13759.2
1639.987749,13997.8
1643.180896,14037.2
1646.369853,13423
1649.554632,14192.2
1652.735244,13548
1655.9117,13127.4
1659.084013,13516.8
1662.252193,14059.8
1665.416254,13214.8
1668.576205,13408
1671.732059,13656.2
1674.883828,13796
1678.031523,13170.8
1681.175157,13170.8
1684.314739,13212.8
1687.450284,13097.8
1690.581801,12955
1693.709304,12821
1696.832803,12817.4
1699.952311,13040.4
1703.067839,13059.2
1706.179399,12979
1709.287003,13370.4
1712.390663,12950.8
1715.49039,12933.2
1718.586197,13355.6
1721.678095,13074.4
1724.766096,13131.8
1727.850213,12502
1730.930456,12790.6
1734.006838,12639.6
1737.079372,12886.6
1740.148067,12642
1743.212938,13637.2
1746.273996,12868.4
1749.331252,12888
1752.384718,12877.4
1755.434408,12830
1758.480332,12813
1761.522503,12855.2
1764.560933,12655
1767.595634,12299.6
1770.626618,12924
1773.653896,13024.4
1776.677482,12563.8
1779.697388,12466.4
1782.713625,13084.4
1785.726205,12984
1788.735141,13009.6
1791.740445,12539.8
1794.742129,12446.4
1797.740206,12965.2
1800.734687,13032.2
1803.725585,12813.4
1806.712912,12766.4
1809.69668,12371.2
1812.676902,12494.6
1815.65359,12309
1818.626756,12299.4
1821.596413,12503.4
1824.562573,12173.8
1827.525247,12606
1830.48445,12308.4
1833.440192,12343
1836.392487,12300.6
1839.341347,12527.6
1842.286784,12556.8
1845.22881,12043.4
1848.167439,12541.2
1851.102682,12383.4
1854.034553,12337.6
1856.963063,12181.8
1859.888226,13142.2
1862.810053,12543
1865.728557,12322.2
1868.643751,12080.6
1871.555648,12169
1874.46426,11910
1877.369599,12581.8
1880.271679,12281
1883.170512,12196.8
1886.06611,12650.6
1888.958487,12343.6
1891.847655,12331.8
1894.733626,12449.2
1897.616414,12531.2
1900.496032,12008.2
1903.372491,12345.8
1906.245805,12560.8
1909.115987,12661.4
1911.983049,12652.8
1914.847004,12434
1917.707866,12690
1920.565646,12600.2
1923.420359,12219.8
1926.272016,12482.2
1929.120631,12120
1931.966216,12367.2
1934.808786,12239.4
1937.648351,12547
1940.484927,12401.4
1943.318525,12522.6
1946.149158,12910.4
1948.97684,13790.8
1951.801584,12784.4
1954.623403,12579.4
1957.44231,12651.4
1960.258318,12092
1963.071439,12170.2
1965.881688,12330.6
1968.689078,12510.6
1971.493621,12253.4
