Raman shift (cm-1),Intensity (a.u.),,,,
,Intensity 1,Intensity 2,Intensity 3,Intensity 4,Intensity 5
-93.471151,12640.6,12628.2,12759.6,12713.2,12723.6
-87.693744,11547,11499.6,11492.4,11550.6,11527.8
-81.925308,11328.4,11393,11334,11410.6,11425.4
-76.165827,11408.4,11389.8,11494.4,11434.4,11560.2
-70.415286,11459.2,11470.6,11440.8,11584.4,11571.2
-64.673669,11127.4,11215,11190.2,11210,11266.4
-58.940961,11101.6,11205.6,11240.6,11245,11314.2
-53.217145,11273.6,11450.2,11358.4,11426.4,11473.8
-47.502207,11441,11509.6,11520,11487.6,11541.2
-41.79613,11427.2,11432,11469.4,11550.2,11461
-36.098899,11820.6,11835,11925.8,11902.2,12022.8
-30.410498,11876.2,11941,11975.6,12009,12025.8
-24.730913,11489.4,11554,11602.4,11609.6,11758.6
-19.060128,11565.6,11633.8,11654,11666.8,11743.2
-13.398128,11376.4,11436,11429.4,11440.2,11606.6
-7.7448963,11211.8,11241,11245.4,11253,11217.6
-2.1004189,10952.4,11039,11112.2,11138.8,11137.4
3.53531966,11635.8,11614,11607.4,11678.6,11716
9.16233466,11057.8,10984.6,11126.2,11202.4,11148.2
14.7806412,11309.8,11417.4,11328.6,11460,11420.4
20.3902543,10866.6,11047,11094,11070.8,11110.8
25.9911891,11012,11027.6,11070.8,11192.2,11075.4
31.5834606,11579,11482.8,11543.8,11583.6,11526.8
37.1670837,11263,11353.8,11325.8,11335.6,11345.2
42.7420735,10952.2,10917,11067.4,11104,11181.4
48.3084447,11021.8,11127.6,10998,11136.8,11097.6
53.8662122,10924.4,10925.8,10966.2,11029,10958.8
59.4153909,10599.2,10604.6,10621.6,10661.2,10708.4
64.9559956,10639,10537.2,10551.8,10740,10604.8
70.4880409,10955,10931.4,10939.6,11034.6,11042
76.0115416,11076.6,11129.6,11090,11093.6,11190.2
81.5265124,10450.6,10480.4,10525.2,10536.8,10523
87.0329679,10956.2,10941,10960.4,10984.6,11105.4
92.5309227,11111,11254.8,11338.4,11279,11330.8
98.0203913,10586.8,10659.4,10599,10656.2,10621
103.501388,10810.6,10868.8,10897.4,10952.8,10977.4
108.973928,10613.8,10653,10759.4,10708.2,10854.8
114.438025,10750.2,10702.6,10734.8,10879,10801.4
119.893694,10949.2,10871,10865,10982.2,11104.6
125.340949,11635.4,11710.4,11751.8,11806.8,11672.2
130.779805,10654.4,10681.6,10636,10744.8,10685.6
136.210275,10460.8,10463.8,10520,10479.8,10471.8
141.632375,10495.8,10546.4,10534.6,10551.8,10623.8
147.046117,11067.2,11134.4,11030.4,11161.8,11181.6
152.451518,10627,10621.2,10664.8,10659.8,10707.2
157.84859,10555.2,10681.2,10587.8,10689.2,10709.8
163.237347,10522.6,10498,10522.6,10585.6,10610.8
168.617805,10708.4,10820,10763.6,10885,10908
173.989977,10928.6,11077,11096.2,11051,11145.2
179.353876,10560,10623,10654.2,10699.6,10775
184.709518,10663,10633.4,10675,10758.6,10734.6
190.056916,10869.2,10871.6,10950.6,10937.8,11049
195.396084,10980.2,11035.2,11030.6,11203.8,11102.2
200.727036,10441,10436,10432.4,10564.8,10538.6
206.049785,10584,10496.6,10586.8,10590.6,10632.8
211.364347,10314.8,10283.6,10296.6,10263.8,10369.2
216.670733,10677.8,10597.6,10634,10715.6,10787.4
221.968959,10223.6,10239.8,10318.2,10280.8,10401.8
227.259038,10467.4,10535.8,10562.4,10501.2,10600.4
232.540984,10354.2,10481.4,10431,10481.4,10533.8
237.81481,10276.8,10388.8,10428.6,10449.2,10482.4
243.08053,10454,10518,10524.4,10497.6,10571.2
248.338158,10484.2,10498,10510.2,10460.6,10550.2
253.587708,10356.6,10362.4,10294.2,10388,10427.6
258.829192,10431.2,10391,10425.4,10500.8,10521.6
264.062624,10481.2,10486.8,10461.6,10583,10658.6
269.288019,10614.4,10673.6,10657.2,10683,10790.6
274.505389,10797.6,10785,10797.4,10874.8,10897.2
279.714748,10466.8,10550.4,10474,10564.8,10590.2
284.916109,10167,10252.2,10288.8,10372.2,10379
290.109487,10217.2,10285.6,10369.6,10329,10371
295.294893,10315.8,10392.4,10338.6,10418.2,10471.2
300.472341,10829,10879,10906.8,10903.4,10941.8
305.641846,10462.2,10396,10469.4,10483.4,10545.8
310.803419,10247.2,10261.6,10195.2,10226.8,10352.2
315.957075,10672,10733.2,10684.8,10804,10753.4
321.102827,10715.4,10761.6,10715.8,10772.4,10883.6
326.240687,10636.8,10641.2,10685.8,10776.2,10788.4
331.370669,10748.8,10696.6,10721.2,10784,10811.4
336.492786,10606.4,10652,10663.2,10625,10695.6
341.607052,10624.4,10652.6,10607.6,10660.8,10728.4
346.713479,10414.2,10352.2,10293.8,10418.2,10417.2
351.81208,10562.6,10577,10611.6,10625.8,10607
356.902868,10109.8,10237.6,10230,10208,10278.4
361.985858,10299.6,10443.6,10407.2,10348.6,10570.2
367.06106,10679.4,10639.2,10754,10804.8,10767.2
372.128489,10371.2,10409,10440.6,10488.8,10441.2
377.188158,10630.2,10660.2,10810.4,10817.8,10776.6
382.240078,10345,10490,10515.8,10567,10532
387.284264,10350.8,10413.4,10417.6,10404.4,10400.6
392.320728,10579.2,10569,10542.2,10606.4,10655
397.349483,10098.4,10233.2,10191.6,10232.4,10234.6
402.370542,10611,10639,10614.6,10624.4,10673.2
407.383917,10228.8,10303.4,10361.6,10363.6,10381.4
412.389622,10137.6,10237.4,10272,10264.6,10329
417.387668,10015,10077.2,10094,10178,10081.6
422.37807,10121.2,10192.8,10240,10324.2,10237
427.360839,10271.2,10349,10388.2,10377.2,10368.4
432.335988,10662.8,10644.4,10704.6,10706,10783
437.30353,10836.6,10913.4,10895,10965.4,11024.4
442.263477,10930.4,10959,10957.8,10984.2,11093.8
447.215842,10207,10273,10298.6,10335,10410
452.160638,10327.4,10410.6,10343,10493.2,10506.4
457.097878,10624.2,10648.6,10719.4,10633,10680.6
462.027573,10005.2,10000.2,10039,10063,10124
466.949736,10431.2,10540.6,10486,10505.8,10539.4
471.86438,9923.8,9956,9936,10001.2,9976.8
476.771518,10289,10361.2,10424.8,10404,10521.8
481.671161,10322.2,10271.2,10283.6,10371.2,10420.2
486.563322,10542.2,10637.4,10558.6,10598.6,10670.2
491.448014,10193.2,10222.8,10263.2,10311.6,10359.2
496.325249,10237.2,10281.8,10342.8,10331,10432.8
501.195039,10281.6,10318.6,10317.4,10414,10452
506.057397,10669.8,10746.8,10679.6,10768.6,10671.8
510.912335,10717,10694.8,10767.6,10826.6,10725.4
515.759865,11757,11730.8,11713.4,11686.4,11678.2
520.6,13623.6,13600.4,13559.4,13564.4,13583
525.432752,12178.8,12328.4,12343,12368.2,12391.4
530.258133,10794,10779.8,10835.4,10918.2,10967
535.076155,10082.6,10087.8,10144.8,10115,10110.6
539.886831,10362.6,10387.6,10383.2,10506,10389.6
544.690173,10580,10563.2,10532,10613.4,10615.8
549.486192,10150.8,10237,10299,10268.4,10340.8
554.274902,11091.6,11059,11081.8,11037,11175.8
559.056314,10140.6,10122.2,10152,10212.2,10242.4
563.83044,9936.2,10090.6,9995.8,10053.4,10093.6
568.597293,10919.4,10950.2,10980.6,11034.4,11107.6
573.356884,10638,10633.4,10659.2,10670.4,10736
578.109226,10289.4,10186.6,10231.8,10271.4,10274.6
582.854331,10657,10612.6,10693.8,10686.8,10760
587.59221,10444,10547.6,10533.8,10618.6,10582
592.322876,10213.2,10310.6,10304.4,10317.2,10329.8
597.046341,10289.2,10311.2,10299.4,10395.6,10460
601.762616,10551.4,10568.4,10608,10647,10636.2
606.471714,10212.6,10172.2,10177.8,10252,10313
611.173646,10252.8,10229.6,10188.8,10252.6,10381
615.868425,10234.6,10345.4,10310,10406.6,10388.8
620.556062,10544.2,10599.2,10562.4,10651.6,10623
625.236569,10311.2,10331.6,10285.6,10400,10370.8
629.909959,10810.8,10689.4,10798.6,10807,10824.6
634.576242,11023.2,10979.8,11091,11061.2,11201.6
639.235431,10350.4,10354.8,10354,10437.4,10476.8
643.887538,10669,10635.6,10674.4,10709,10775.4
648.532574,10433.6,10420.6,10417.6,10502.6,10468
653.170552,10335,10400,10366.4,10369.8,10476.6
657.801482,10593.2,10606.8,10592.8,10714.2,10668.6
662.425378,10007.8,9965.6,10042.2,10036,10166.8
667.042249,10305.6,10328.8,10291,10414.4,10431
671.652109,10308.4,10330.2,10382.2,10356.2,10449
676.254969,10429.8,10509.2,10590.6,10586.4,10663.8
680.850841,10492.4,10575.8,10557.4,10649,10545.6
685.439736,10348,10341.2,10417.6,10373.8,10561
690.021665,10453.6,10472,10466.8,10615,10657
694.596642,10299.8,10279.2,10311.4,10379,10402.2
699.164677,10793,10752.6,10792.4,10751.6,10879
703.725781,10365.6,10498.2,10444.2,10434.6,10564.2
708.279968,10679.4,10685.4,10612.6,10601.6,10685.4
712.827247,10761.4,10734.2,10775.2,10766.6,10732.2
717.367631,10476.6,10456,10474.2,10480.8,10626.2
721.901131,10467.4,10589.2,10587.2,10504.2,10600.2
726.42776,9979.6,10066,10034,10093,10085
730.947527,10564.6,10626.6,10649.4,10584.4,10663
735.460446,10505,10587.6,10541.6,10536.8,10588.4
739.966526,10988.6,11035.6,11030.2,11035.4,11070.8
744.465781,10458.6,10563.2,10570.8,10553.8,10664.6
748.958222,10528,10599.8,10601.6,10617.2,10679
753.443859,10170.8,10286.4,10186,10291.2,10244
757.922704,10075.2,10053.8,10104.2,10103.6,10136.8
762.39477,10535.8,10580.2,10606.2,10666.8,10627.4
766.860066,10106.2,10170.6,10241.2,10255,10250.8
771.318606,11447.2,11488.2,11546.4,11564.8,11522.4
775.770399,10510.4,10508.2,10627.2,10630,10639.2
780.215458,10895.2,10944,10987.6,11036.6,11049
784.653794,10302.4,10342,10259.8,10365.6,10339
789.085418,10230,10311.8,10273.4,10256,10263.4
793.510342,10141,10208.4,10302,10304.2,10330.2
797.928577,10802.8,10768.6,10810.2,10869.2,10914.2
802.340134,10179.4,10305,10259.4,10293.6,10335
806.745025,10372,10493.8,10483.8,10501.8,10560.6
811.143261,10427.4,10499.8,10441.8,10491,10589.6
815.534854,10380.2,10383.6,10437,10454.2,10484.8
819.919814,10125.4,10153.8,10130.8,10176.8,10201.4
824.298153,10393.2,10438.8,10479.6,10457.4,10455.2
828.669882,10553.4,10499.6,10591,10658.8,10533.8
833.035013,10448.8,10530,10494.6,10622.6,10549.2
837.393557,10229.4,10203.2,10296.6,10197.6,10382.2
841.745525,10506.6,10509.4,10536.2,10496,10598
846.090928,10342.2,10413.4,10397.8,10479,10472
850.429777,10295.8,10263.2,10340.4,10346.4,10372.6
854.762085,10308.4,10364,10385.8,10448.6,10367.8
859.087861,10630.8,10662.8,10646.2,10628.8,10733.8
863.407118,10057.8,10013.8,10098.4,10086.8,10072
867.719866,10413.6,10521.4,10517.2,10553,10529.2
872.026116,10766.6,10779.2,10757,10752.8,10862.2
876.32588,11065,11079,11209.8,11208.6,11289.8
880.619169,10724.6,10712.6,10789.6,10820.4,10801.4
884.905995,10677.6,10815.8,10791.2,10783.8,10846.8
889.186367,11158,11147.6,11270,11284.4,11223.6
893.460298,10177,10147.2,10270,10302.2,10253.8
897.727798,10054,10167.6,10117.8,10225,10155.2
901.988879,10459,10545.2,10521.2,10543.6,10561.6
906.243552,10755,10801.2,10822.2,10801,10883.6
910.491828,10160.4,10261.6,10279.4,10270.2,10358.8
914.733717,10261.4,10385.8,10365.6,10402.4,10383.4
918.969232,10044,10114.2,10062.2,10160,10191.6
923.198383,10543.2,10672.6,10661.4,10750.8,10747.8
927.421181,10336.8,10398.4,10483.4,10538.4,10499.4
931.637638,11004,11099,11054,11084.2,11084.4
935.847764,10505.2,10534.2,10523.6,10567.8,10635.4
940.05157,10731.6,10710.8,10820,10819.4,10892.6
944.249068,10638.4,10748.8,10799.8,10832.2,10810.2
948.440268,10064.8,10061,10012.6,10043.6,10021
952.625182,10812.4,10793.6,10720.6,10909.6,10853.4
956.803821,10355,10437.8,10378.6,10421,10407.6
960.976196,10967.2,10973.4,10939.4,11004,11052.4
965.142317,10421.4,10453.6,10436.4,10498.8,10460.8
969.302195,10514.2,10556,10511,10511.8,10542.2
973.455843,10449.8,10445.2,10499.6,10537,10551.2
977.60327,10243.2,10314.4,10249.6,10320.4,10364.4
981.744488,10462.2,10479.8,10409.8,10533.8,10592.6
985.879507,10323,10329,10373.2,10352.6,10429.8
990.008339,10583.4,10575,10588.2,10660,10690.2
994.130995,10164.4,10143.4,10271.6,10251.4,10192.8
998.247486,10530,10589.8,10607.2,10662.6,10607
1002.35782,9816.8,9785.6,9862.8,9828.4,9850.6
1006.46201,10250.4,10311.8,10327.4,10381.2,10454.4
1010.56007,10056.4,10114.6,10172.4,10124.2,10288.8
1014.65201,10522,10583,10648.8,10602.6,10651.4
1018.73784,10748.6,10898.6,10891,10957.6,10993
1022.81757,10372,10424.6,10504.6,10434,10464.2
1026.89121,10253.4,10289.8,10394.6,10427.2,10413.2
1030.95877,10197.6,10228.8,10283.2,10231,10273
1035.02027,10603.6,10619.2,10692,10650.6,10700.6
1039.07571,10344.8,10313.4,10429.8,10326.2,10415.2
1043.1251,10092,10218,10193.8,10143.6,10130.8
1047.16846,10394.6,10461.6,10448,10539.2,10522.6
1051.2058,10373.6,10325.8,10363.2,10410.2,10436.4
1055.23712,10062,10139.4,10052.6,10154.6,10265.4
1059.26244,10030.4,10048,10135.8,10055.2,10137.4
1063.28178,9742.6,9886.4,9831,9911.6,9928
1067.29513,9837.4,9764.6,9825,9864.6,9864.8
1071.30252,10681.4,10684.6,10699.8,10785,10768.2
1075.30394,10063.2,10118.6,10101.8,10174,10157.2
1079.29942,10804,10905.8,10909.8,10848.6,10925.4
1083.28897,10398,10494.6,10427.2,10497.4,10588.4
1087.27258,10299.6,10363.2,10384.6,10499.6,10458.6
1091.25029,10414.4,10526.8,10548.2,10544,10531
1095.22209,10438.8,10500.2,10521,10563.4,10578.8
1099.188,10246.8,10232.6,10296.6,10381,10348.8
1103.14803,10410.4,10435,10466.6,10487.6,10508.6
1107.10218,10269.4,10345.8,10368.8,10437,10354.8
1111.05048,10485.2,10612.4,10551.6,10531,10534.4
1114.99293,10352.8,10493.4,10546.6,10411.4,10485
1118.92954,10228.6,10274.4,10282,10384.6,10275.6
1122.86032,10603,10592.2,10614.8,10584.6,10650.2
1126.78528,9983.8,10065.2,10082.4,10142.2,10209
1130.70444,10005.6,9972.2,10039.8,10120.4,10091.8
1134.61781,10730.2,10742,10783.2,10737.4,10785.6
1138.52539,10509,10586.6,10633.6,10680.4,10665.8
1142.4272,10572.2,10439.4,10540.4,10616.6,10599.2
1146.32324,10674,10667.4,10607.8,10738.8,10687.6
1150.21354,10292,10278,10306,10391.8,10330.4
1154.09809,10730.6,10781.8,10655.8,10707.6,10804.2
1157.97692,10211.8,10274.8,10226.8,10239.4,10273.6
1161.85002,10036.8,10147.4,10250,10216.2,10209.6
1165.71742,10666,10708.2,10699,10725.8,10828.4
1169.57912,10386.2,10394.6,10402,10518.2,10462
1173.43514,10750.6,10772.2,10799.2,10857.6,10789.8
1177.28547,9925.2,9942.6,9969.4,10009.2,9971.2
1181.13015,10030.4,10052.8,10032.4,10067.4,10005.4
1184.96917,10370,10355.8,10454,10463.6,10539.4
1188.80255,10407,10447.4,10464.6,10441.2,10471
1192.63029,10141,10182,10211.8,10219.8,10302
1196.45242,9940.8,10013.2,10032,10050.6,10031.6
1200.26893,10033,10107.6,10076.8,10214.6,10202.2
1204.07984,9836.6,9933.8,9962.8,10013.2,9949.4
1207.88517,9567.4,9551,9600.8,9642.4,9603.6
1211.68492,10135.8,10185.2,10253.8,10308.2,10258
1215.4791,9872,9882.4,9851.4,9912.4,10031.6
1219.26772,11304.2,11301,11392.2,11330,11350.6
1223.0508,9938.8,9969.2,10070.4,10039.4,10041
1226.82835,9963.2,9996.2,10024.4,10002.8,9999.6
1230.60037,10245,10257.6,10304,10325.4,10318.8
1234.36687,10323.6,10388.8,10393.4,10478,10399
1238.12788,10037.6,9974.8,10116.6,10191.2,10165
1241.88339,10083.4,10187.2,10115.6,10137.4,10164.8
1245.63343,10273,10352.2,10353.8,10460.6,10532.4
1249.37799,10284.6,10427.8,10423.8,10412.6,10487.4
1253.1171,9595.6,9586.6,9711.8,9707.6,9694.6
1256.85076,10017.4,10099,10100.2,10120.6,10220
1260.57898,10087.2,10038.4,10090.8,10125.2,10049.8
1264.30178,10134,10116.8,10223.2,10086.2,10183.2
1268.01916,9980.8,10055.6,10032.4,10100.6,10145
1271.73113,9853.4,9836.4,9845.4,9894.6,9944.2
1275.43772,9675,9746.8,9788.8,9824.6,9747.8
1279.13891,10356.2,10330.8,10369.8,10353.6,10387.4
1282.83474,10400.8,10481.4,10354.8,10415.4,10462.6
1286.52521,9940.6,9981,9938,10044,10015.6
1290.21033,9866.2,9827,9889.2,9916.4,9990.8
1293.89011,10057,10035.2,10075,10087.2,10142.6
1297.56456,10445.2,10530.6,10531.8,10598.8,10632.6
1301.23369,9827.8,9892,9929,9965.8,9965.6
1304.89751,10226.4,10277.8,10212.8,10223,10246.6
1308.55604,10277.2,10313.2,10322,10383,10403.2
1312.20929,10302,10298,10276.2,10403.8,10425
1315.85726,9881.6,9837.8,9903,9863.8,9912.2
1319.49997,9977.8,9928,9994.8,10052.6,10050
1323.13743,10638,10684.2,10711.8,10774.2,10731.4
1326.76964,10163,10148.2,10310.6,10238.8,10246.4
1330.39663,10751.8,10834.4,10824.6,10785,10756.2
1334.01839,10198,10125.2,10239.6,10175,10227.4
1337.63495,10269.2,10324.8,10371,10310.8,10375.6
1341.24631,10036.6,10041.8,10100.8,10129.4,10149.2
1344.85248,9943.8,10052,9988.4,10070.8,10091.4
1348.45348,9834.2,9870.8,9986.4,9942,9908.4
1352.04931,9850.4,9832.8,9949.8,9971.8,10005.2
1355.63999,9914.8,9875.8,9943.2,9982,9978.2
1359.22552,10518.4,10471.6,10513.6,10550.6,10579.8
1362.80593,10088,10155.4,10144.4,10185.2,10234.2
1366.38121,10121.6,10210.6,10190.4,10287,10287
1369.95138,10189.2,10220,10209.6,10254.8,10306.6
1373.51645,10178.4,10263.2,10287.6,10305.6,10301.6
1377.07644,10396,10335.4,10326.2,10449,10428.2
1380.63134,10242,10190,10257.8,10272,10310
1384.18118,10098.2,10110.4,10109,10180.8,10132.6
1387.72597,10202,10169,10231.6,10175.6,10268.8
1391.26571,9925.8,9918.4,10012.4,9957,10025
1394.80042,9887.4,9869,9900,9917.2,10031.4
1398.3301,10107,10096.6,10149.4,10127,10154.4
1401.85478,10281.8,10324,10339.4,10382.4,10370
1405.37445,10133.6,10213.2,10196.2,10191,10163.8
1408.88913,9695.6,9824,9777,9942,9867.4
1412.39884,9442.8,9530.4,9509.6,9534.8,9550.6
1415.90357,9848.6,9886.8,9861.8,9847.6,9931
1419.40335,10379.2,10415.2,10414.2,10381.2,10434
1422.89819,9956.4,9968.2,9919,9992.4,10010.2
1426.38809,9889,9911.8,9892,9918.4,9968.8
1429.87307,10380.4,10356.6,10419.2,10466.2,10466.4
1433.35313,9799.8,9763.2,9769.8,9865.2,9842.8
1436.8283,9834.2,10018.2,9918.6,9965.4,9977.2
1440.29857,10094,10103.6,10202.6,10207,10098.6
1443.76397,9837.8,9830,9939.8,9856.2,9931
1447.22449,9670.4,9780.8,9823.6,9796.2,9842
1450.68016,9728.6,9813.4,9862.4,9813.4,9877
1454.13098,10328.8,10252.4,10269.4,10377,10383.2
1457.57697,10193.6,10247.4,10244.2,10279.8,10256.4
1461.01813,10318,10371.8,10373.6,10457.8,10498.8
1464.45449,10454.2,10480.2,10561.6,10570.6,10526
1467.88604,10056.4,10040.6,10134.2,10092.4,10189.6
1471.31279,10148.2,10127.4,10153.2,10292.2,10278.6
1474.73477,9874.8,9878,9923.6,9944.8,9952.4
1478.15198,10594.6,10554,10584.4,10678.6,10670.6
1481.56444,10272.4,10314.2,10312.8,10303.4,10379.6
1484.97215,10100.8,10229.4,10190.2,10359.4,10293
1488.37512,9896.2,9986.2,10053,10051.4,10024
1491.77337,10208.6,10194.6,10233.2,10273,10347.4
1495.1669,10812.2,10860.2,10878.4,10866.8,10919.6
1498.55574,10089.6,10159.6,10143.6,10169.6,10193.2
1501.93988,10197.4,10289.2,10220.4,10248.2,10312.2
1505.31935,9917.8,9927,9850.2,9957.4,9981.6
1508.69415,10221.2,10209,10274,10273.2,10261.4
1512.06429,10259.2,10319.4,10291.6,10346.8,10401.8
1515.42978,10111,10240.4,10214.4,10193.6,10241.6
1518.79064,10075,10058.8,10084,10094.2,10073.2
1522.14688,10238.2,10301.8,10309,10347.6,10305.4
1525.4985,9861,9901.6,9911.6,9893,9957.2
1528.84553,9920.8,9903.2,9939.2,9922.2,10011
1532.18796,10488.2,10539.2,10595.2,10510.2,10602.4
1535.52582,10176.6,10176.2,10164.2,10108.6,10256.2
1538.85911,10196.6,10184.6,10132,10234.2,10233
1542.18785,10683.4,10711.8,10745,10806.2,10871.8
1545.51204,9903.4,9891.4,10001.2,9986.6,9956.2
1548.83169,11094,11107,11107.2,11163.2,11237.4
1552.14683,10507.2,10635.4,10611,10651.2,10698.2
1555.45745,9898.2,9866.4,9914,9952.4,9976.4
1558.76358,9591.4,9641.6,9591.8,9635.2,9672.4
1562.06522,9981.6,10063.4,10025.6,10065.8,10050
1565.36238,10196.8,10308.8,10246,10341.6,10242.8
1568.65507,10418.8,10475.2,10525.2,10559.4,10529.2
1571.94331,10213.6,10240.6,10163.2,10332,10306.8
1575.22711,10175,10187,10271,10182.2,10253.8
1578.50648,10042,10140,10068,10138.8,10261.2
1581.78143,10558,10499.8,10520.6,10683.2,10642.6
1585.05197,9953.6,10108.6,10052,10124.6,10203.4
1588.31811,10134.6,10245.6,10164,10196,10162
1591.57987,10120,10097.8,10087.2,10219,10124.4
1594.83725,10012.8,10076.2,10124,10188.2,10161
1598.09028,10033.4,10050,10039.2,10091.6,10145.2
1601.33894,10063,10120.4,10088.6,10109.4,10180.2
1604.58327,10381.4,10467.6,10524.2,10537,10687
1607.82327,10255,10153.6,10239,10302.6,10293.2
1611.05896,9848,9870.2,9867.4,9925.4,9861.2
1614.29034,10317.2,10272.4,10391,10429.2,10523.4
1617.51742,9819,9866.4,9806.4,9872.2,9838.4
1620.74022,10194.8,10122,10218,10287.6,10226.6
1623.95876,9809.2,9916.6,9830,9913.6,9962.6
1627.17303,10028.4,9994.8,10023,10117.2,10099.8
1630.38305,9836.6,9893.4,9862.6,9941.2,9855.8
1633.58884,10114.6,10155.2,10166,10187.2,10182
1636.7904,9906.8,9928.8,9899,9972,9977
1639.98775,10087,10144.6,10146.4,10205.4,10178.8
1643.1809,10295.2,10246.4,10238.4,10309.6,10406.8
1646.36985,9749.4,9780.4,9750.8,9769.6,9790
1649.55463,10538.2,10601.2,10503.2,10617.6,10684.4
1652.73524,9936.8,9937,10075.2,10003,10007.6
1655.9117,9614.4,9676.4,9620.8,9713.2,9710.2
1659.08401,9982.2,10045.8,10038.8,10093.8,10155
1662.25219,10581.6,10600.6,10563,10640.8,10674
1665.41625,9787,9791.6,9824.6,9822.8,9914.8
1668.5762,9940,10012.6,10046,10099.6,10111.8
1671.73206,10361.4,10322.8,10367.2,10370.2,10390.6
1674.88383,10402.4,10334.4,10436,10404.2,10389
1678.03152,9934.4,9982.2,9966.8,9980.6,10037.4
1681.17516,10046.2,10059.2,10068,10081,10132.2
1684.31474,10058.2,10070.8,10140.4,10156.4,10129.8
1687.45028,10030.4,9995,10056.8,10155.6,10158.6
1690.5818,9968.6,9972,10050,10034.8,10068
1693.7093,9791.8,9845.8,9789.4,9913.6,9911.4
1696.8328,9837.8,9819.8,9918.4,9794.2,9926.8
1699.95231,10043.6,10048,10048.6,10144.6,10144.6
1703.06784,10108,10069.4,10146.8,10175.8,10150
1706.1794,10110.6,9953.6,10025.2,10095.4,10109.6
1709.287,10371.6,10460.2,10493.2,10546,10456.8
1712.39066,10032.8,10074.8,10091.6,10106,10135.6
1715.49039,10027.2,10073.4,10084.8,10144.8,10150.2
1718.5862,10408.4,10372.6,10401.8,10442.2,10485.8
1721.6781,10217.6,10255.8,10254.4,10266.2,10279.8
1724.7661,10252.8,10288.6,10293,10363.6,10387.6
1727.85021,9731.4,9762.6,9840,9791.6,9776.4
1730.93046,10072.4,10132.6,10084.8,10100,10158.8
1734.00684,9971,9885,9911.8,10009.6,9961.4
1737.07937,10218.2,10267.4,10270.6,10324.6,10452.4
1740.14807,9872.4,9940.6,9930,9997.8,9941
1743.21294,10897,10826,10869,10951.8,10895.8
1746.274,10108.2,10193,10154.4,10258.4,10164.2
1749.33125,10067.2,10123.8,10181.6,10146,10162.8
1752.38472,10098.8,10191.8,10166.8,10237.6,10284.8
1755.43441,10207.8,10236,10235,10246.8,10382.2
1758.48033,10230.4,10176.6,10212.8,10267.6,10290
1761.5225,10262.8,10258.8,10235.8,10233.2,10304
1764.56093,10070,10119,10177.2,10125.8,10188.4
1767.59563,9837.2,9861,9838.8,9913.8,9888.4
1770.62662,10403.6,10476.2,10504.4,10504.2,10500.8
1773.6539,10356.4,10508.4,10516.8,10475.6,10541.6
1776.67748,10136.6,10157.6,10148,10205.4,10249
1779.69739,10089,10111,10148.6,10151.2,10181.2
1782.71362,10622.6,10650.2,10736,10716.2,10759
1785.7262,10498,10570,10614.6,10648.6,10706.8
1788.73514,10528.2,10551.2,10569.6,10506.8,10561
1791.74045,10063.4,10122.4,10197.2,10046.2,10212.8
1794.74213,10059.4,10026.8,10114.4,10092.6,10123.6
1797.74021,10478,10577.4,10535.2,10616.2,10589
1800.73469,10452.4,10538.2,10544.8,10626,10646.8
1803.72559,10292,10352,10341.2,10440.2,10399.6
1806.71291,10365.8,10365.6,10449.4,10422.2,10493.6
1809.69668,10152.6,10068.6,10080.4,10074.4,10083.4
1812.6769,10191.2,10167,10234.8,10180.6,10146.6
1815.65359,9932.4,9898.2,9997.2,9997.2,10051.8
1818.62676,9958.4,10028.2,10022.6,10045.6,10127.6
1821.59641,10191.6,10141.8,10189.2,10323.8,10338
1824.56257,9898.4,9827.4,9925.8,9898.8,9944.6
1827.52525,10257.2,10171.4,10180.4,10244,10333.8
1830.48445,10016.8,9980,10019,10072.2,10084.6
1833.44019,10095.2,10234.4,10227.2,10183.6,10201.6
1836.39249,10089.6,10104.6,10165.4,10189.8,10132.4
1839.34135,10122.2,10335.6,10292.6,10342.2,10345.2
1842.28678,10225,10389.2,10323.8,10398,10346
1845.22881,9817,9826.6,9830.4,9869.2,9903.2
1848.16744,10387.2,10405.8,10442.2,10482.6,10501.6
1851.10268,10115,10142.2,10181.2,10214.8,10212.2
1854.03455,10193.4,10265.6,10192.2,10269.6,10268.4
1856.96306,10008.2,10074.8,10081.8,10084.4,10023.2
1859.88823,10889.6,10865.8,10801,10971.6,10893.8
1862.81005,10414.4,10441.6,10389.8,10366,10484
1865.72856,10209.2,10183.6,10256.6,10239.2,10287.4
1868.64375,9957.8,10007.8,9994.8,10005,10087.2
1871.55565,9960.8,10106.2,10095,10038.6,10055.2
1874.46426,9800.2,9743.8,9868.6,9845.4,9902.6
1877.3696,10389.2,10402.4,10398.4,10441.4,10460.2
1880.27168,10246,10193.8,10188,10228.6,10299.4
1883.17051,10052.2,10101.2,10080,10100.2,10104
1886.06611,10446.8,10504.8,10527,10571,10590.4
1888.95849,10300,10252.6,10303.2,10283.4,10384.2
1891.84765,10237.6,10239.8,10184.2,10266.2,10291.6
1894.73363,10372.4,10393,10364.6,10447.2,10456
1897.61641,10445.8,10480.6,10457.2,10448.2,10520.4
1900.49603,9998.8,9987,10066.2,10054,10124.8
1903.37249,10328.6,10324.6,10375.4,10402.2,10341.8
1906.24581,10536.4,10559,10677,10665,10673.6
1909.11599,10552.8,10625.4,10636.4,10629.8,10710.6
1911.98305,10577.6,10548.4,10635,10667,10653.4
1914.847,10504.2,10476.6,10634.4,10542.8,10569.8
1917.70787,10560.2,10688.6,10691.8,10705.2,10767.2
1920.56565,10569.2,10603.8,10585.6,10670.8,10770.2
1923.42036,10172.2,10319,10214.2,10290.2,10351
1926.27202,10491.4,10444.2,10463.6,10512.2,10532.4
1929.12063,10232.8,10308,10296.2,10308.4,10365.6
1931.96622,10399.6,10485.4,10452.8,10487.4,10422.2
1934.80879,10258.2,10372.4,10334.6,10436.8,10433.4
1937.64835,10549.2,10610,10662.6,10750,10742.2
1940.48493,10546,10583.8,10541.4,10593.4,10599.2
1943.31852,10594,10618.8,10578.2,10671.4,10853.8
1946.14916,10832.6,10800,10913.8,10892,10907.8
1948.97684,11852.2,11866.8,11871.4,11923,11898.4
1951.80158,10908.6,10894,10955.6,10892.2,10956.6
1954.6234,10582,10758.6,10700.6,10716.8,10783.8
1957.44231,10754,10763.6,10841.6,10818.4,10898.2
1960.25832,10300.6,10300,10343.2,10340.6,10444.2
1963.07144,10345,10363.2,10468,10425.2,10422.6
1965.88169,10493.8,10533,10641.8,10597.8,10660.4
1968.68908,10615.8,10623,10720.6,10742.8,10775.2
1971.49362,10449.8,10582.2,10511,10589.8,10640.4
