Wavelength,AAB_4 ATP_10^-14M_750_5_5_M_S1_I1,AAB_4 ATP_10^-14M_750_5_5_M_S1_I2,AAB_4 ATP_10^-14M_750_5_5_M_S1_I3,AAB_4 ATP_10^-14M_750_5_5_M_S1_I4,AAB_4 ATP_10^-14M_750_5_5_M_S1_I5
342.006421819617,-6.143576307408978,-9.453617672605333,-14.958218974215384,-8.657448644264122,-0.7842751591921626
347.112848630893,542.7045148773989,335.56376562617766,1052.0948686771246,1207.6056855284503,1063.1016829557375
352.211449846096,916.3442659755433,554.3056711429505,1599.388631916773,1940.8775553980456,1646.0639603384143
357.302238512928,1058.7659072436827,644.5570523296069,1652.6921880978632,2051.0998788658035,1743.6781482863455
362.385227653271,1043.7974771016695,664.4953891906896,1326.7547005764955,1742.3707847246728,1453.2065434684403
367.460430263362,997.1709396867859,656.552572890751,1189.9944983266782,1350.4555710687719,1283.4948476540042
372.527859313997,1012.1379615433216,676.9353313162745,768.5510569087174,1172.5512755916327,1082.2274137232682
377.587527750688,1116.3680923170512,793.054975684976,860.4597063975527,1308.3360027159256,1054.7148815103067
382.639448493877,1294.3770357309434,999.1387732909002,1245.9231461498787,1603.8799477929385,1459.019306555581
387.683634439107,1515.4906553710196,1212.069418900616,1328.0882108828182,1906.0085688076013,1899.8762418801196
392.72009845721,1731.5668195155406,1386.9800978185992,1955.7932536174221,2232.785450928479,2308.3754698441257
397.748853394485,1874.4151010141536,1537.8578608505495,2182.5294558455234,2523.3646627289913,2548.061451497228
402.76991207289,1889.605561133912,1618.6106405329886,2169.920521182902,2527.8006770944676,2728.537531202556
407.783287290211,1783.3182560199418,1526.603104763613,2188.8083153633975,2165.839894926982,2329.6443584267945
412.788991820255,1619.9373965418017,1281.490134264443,1123.6098891091988,1691.9740559288625,1577.66000081262
417.787038413016,1455.2811266817498,1041.9423278367915,969.6638905391775,1308.139241215328,1442.4471010904679
422.777439794883,1283.7508576265275,873.6093858530827,820.9067338375312,959.561125329862,1268.067746344986
427.760208668777,1066.5972608856098,677.8943483702543,471.99671950071024,650.9256252578713,996.4842906088296
432.735357714366,791.7890484884186,403.9429717179037,608.2428177129766,526.6965893450621,759.5106924334046
437.702899588219,491.7886360876152,147.66493102611105,104.08874412447884,547.7374377904367,613.4990619971512
442.662846924002,225.52162699924747,4.879742477463665,403.17812329396196,473.62221739727426,585.6793029486649
447.615212332628,51.6793084674636,-27.982568771441777,-58.543139476885315,228.0422362030982,68.8267176186168
452.560008402459,-6.268407704302831,-1.7895774542419645,-48.91141252599904,17.139098420070013,-134.1089163247887
457.497247699466,21.921406868505386,34.419360761921794,361.14619647993175,37.549402124938695,86.36461445408987
462.42694276741,89.0907417527718,49.18821512748349,27.426916412739068,270.04498879673895,230.4920010400338
467.349106127996,185.5067097017835,69.23075630799089,223.3544251710315,569.0722029687186,436.3230657628741
472.263750281081,342.1009313782173,196.86373928414315,40.9331939005243,805.294773137353,490.5077631824491
477.170887704813,576.4941368201835,511.5720010099508,429.0766773547531,934.0879936792678,770.3722764367736
482.070530855812,848.4622480494346,926.7832955836031,836.0473814375862,986.0369563867712,1143.9939916510991
486.962692169351,1081.169558117504,1237.6892156856552,1078.256096847186,1013.6333563438948,1262.6324584897443
491.847384059509,1220.7915463130691,1340.5243541428035,1421.2157014877102,1075.4458781914605,1218.958431128712
496.724618919354,1256.2177269049569,1312.0222312542558,1362.3705827826936,1221.631003541277,1204.6913186681143
501.594409121106,1194.6891954124505,1263.9171060148499,1347.036849480083,1408.4348954488942,1430.5371354463
506.456767016303,1063.467999791817,1212.1713416191965,1379.9359420683295,1471.149584968314,1302.8826005596113
511.311704935972,932.5023874293929,1137.2248333653065,1076.9917454166355,1306.509320804019,1072.576949460928
516.159235190789,875.0416136737746,1097.0892844496377,850.0065568202417,1051.1541326398235,926.319030638068
520.999370071249,880.8000417479241,1149.3532967797914,975.7169844721755,918.3943430817369,508.6390636975833
525.832121847836,848.8020226162972,1193.1898774041206,981.1087710678567,881.2417173231805,596.0623501254614
530.657502771179,695.9579139226857,1054.8257725937265,979.4753065160053,730.8536931832342,554.2268388246018
535.475525072219,446.9599676519877,718.3097693872663,473.0656841868855,420.5386606643511,146.0579082039022
540.286200962379,197.42098492503925,346.5723132356173,123.69895770338572,114.23612466246058,270.67247403372414
545.089542633712,24.865513801225344,100.05720371067157,-22.627495489782547,-51.35623819394195,40.683072579122864
549.885562259076,-40.3020294446751,-6.795195288707163,-252.64971408975916,-76.4590906406284,-90.69348713952186
554.67427199229,4.671563291058156,-59.158493890434016,62.54837354121857,-27.38401496473383,172.5958176235154
559.455683968295,147.55281280327904,-54.831433569354374,-40.88151969767796,55.69625522345851,-62.454012769592
564.229810303319,356.42037180224077,81.53129143472546,-172.82580050334477,139.2479548928816,62.794921383623034
568.996663095024,585.7292288413754,262.5722546794264,191.10623098125643,152.83560612630015,316.6742805633271
573.756254422682,804.841396404754,322.0152986798183,150.79179753279328,137.06506475000697,138.72819476092496
578.508596347321,1007.8427441792968,305.5409553222206,52.84065659199473,247.81202590761706,189.54004386783464
583.253700911884,1187.132711997929,329.56245141737725,507.142935804903,407.8023722726754,488.022568513975
587.991580141394,1338.4755548308294,364.02047243532365,473.36234650057895,372.5041082350548,583.3287984950639
592.722246043097,1491.8963540714192,430.7489245247808,-36.12010237296738,255.39721182304095,424.23411459216777
597.445710606635,1669.0226853599997,629.6596208617024,555.3863440964341,361.96131496376233,544.4518023868575
602.161985804183,1818.3995230795808,846.1399445254176,893.0855187854789,587.0590102417495,671.4893146620616
606.871083590626,1868.2600021422109,861.6841131297895,469.50714758675235,641.2753624156446,561.1618987179588
611.573015903688,1829.8519886348627,707.0443210919702,580.0224684750119,573.6023763971366,515.2685768153873
616.267794664109,1789.1340283483955,561.2115287356391,462.59326305977083,555.4598614025938,520.4921644216104
620.955431775774,1807.7830956609619,467.82942844913237,108.26918922695563,555.7651367870137,668.922535396325
625.635939125892,1868.583810016431,384.8561662405507,78.80827180115239,506.5217675609247,510.9875272415395
630.309328585123,1912.7992229251888,317.5408981204523,360.02187470922195,420.3552108493559,199.9543982442574
634.975612007751,1909.4337589257475,264.2455341317102,356.47224802879487,295.17923564554485,294.1612732804656
639.634801231821,1884.0904727162606,189.98216926412124,102.30783650033663,168.75221313821112,290.20434491147785
644.286908079293,1887.8567612251923,100.85493281766571,81.26892927027393,150.6417279419668,37.92346082101153
648.931944356194,1940.5522832095737,44.34695130166688,-182.1745865488756,221.3903093888705,-34.18150515131606
653.569921852761,2007.25569754579,47.05783015455427,-93.67682640795488,203.6037918310003,64.57455083428431
658.200852343592,2038.2462948860534,89.98327670012418,72.72246500311167,62.030275520107125,-35.88650893123395
662.824747587809,2023.5612240079226,119.81906234062262,-147.17172561909706,-20.446224471230607,-96.34694660671698
667.441619329178,1990.353023592543,87.70068564349754,73.45448208725156,43.046864901473555,86.29063617024963
672.05147929628,1963.2996885185146,6.823552961653149,-56.42538947295316,158.98358837468686,48.635142770797984
676.654339202636,1961.0151776208647,-35.44286503850071,-169.08994030318786,284.4354165957434,-81.65205751258918
681.250210746879,2018.8321863457472,44.955796532790146,-1.4654712723690864,442.08936775345114,28.61873940353462
685.839105612884,2173.269877066766,248.76138888311198,-110.32810677651105,619.1536353385814,240.79906117350265
690.421035469903,2414.1851064162593,505.4482733238174,46.01188118524351,841.0187635928273,287.50294818920224
694.996011972729,2671.4389969854315,724.0154218512225,79.2150553645256,1153.4141489802319,253.10102225877222
699.564046761832,2863.098410841854,832.8704788494422,234.4776915247494,1499.2607740160317,467.54904470977226
704.125151463501,2959.8201791257893,862.332300804997,92.89244249207832,1796.9704396437426,592.2954568424675
708.679337689982,2996.6451887924586,968.811088409574,126.14217647866371,2050.614736834632,550.8183729030236
713.22661703964,3024.3983993117827,1251.703770366702,346.78904422317964,2248.3281557108085,708.1974731923835
717.767001097078,3064.158711817568,1584.7231477968044,267.54901393167756,2309.4647750263825,783.1395945695165
722.300501433285,3104.767274159374,1758.2513192708743,527.5479978107287,2212.7150807913777,698.3618853651951
726.827129605783,3130.570569897238,1734.9205127149444,521.8127613226275,2039.337924608145,670.5221751204228
731.34689715877,3149.2122083194367,1655.6044768773713,624.7768677685085,1909.0154453390326,761.4101266639586
735.859815623244,3176.7613956793743,1659.4292498403474,495.5921007192942,1931.7104331483688,848.64566074203
740.365896517156,3183.9903454139176,1778.256001843724,536.5718400121636,2073.628503558654,829.1694350873559
744.865151345544,3089.60555962432,1930.7032635808941,777.1383678057864,2095.0593498797653,967.5705010568533
749.357591600676,2840.428927055748,1971.5513863736005,672.6705871498034,1845.6678214975107,877.7267209728082
753.843228762184,2484.5826941552614,1813.0531505856022,149.40260394239112,1497.057410529398,491.5108378800146
758.322074297195,2143.377610704822,1510.1272039200971,118.61374047746563,1282.7680917273588,502.1873141360684
762.794139660487,1919.573435377664,1219.5365917667605,292.3748366109369,1245.7608796667985,401.78979406171766
767.2594362946,1832.0414528938015,1095.1624490017646,-278.9133028034464,1324.9283694035817,241.62096427798792
771.717975629996,1816.98262699746,1166.7877674993556,365.6323846748269,1406.225296567827,605.6290081572752
776.169769085182,1794.317163279058,1306.4126170626541,483.0283950035248,1370.1954853824536,525.3572141268946
780.614828066839,1737.228519228144,1367.276443958499,136.1548811980349,1259.760894207367,82.4365940682992
785.05316396998,1661.0445126054208,1313.3439929841832,332.8920694245887,1179.2554125438583,178.03756940242965
789.484788178057,1568.8206103621142,1202.2174029024552,248.499590968245,1085.2339995284813,216.9469937145659
793.909712063116,1450.4633235250985,1116.2832163161384,319.7479907997806,942.3275393917402,80.60878090965207
798.32794698591,1310.9420141987264,1086.3966620867789,404.36031564865186,868.7067982544787,302.0540153103349
802.739504296052,1159.5283567648034,1049.214534018753,620.0939923212535,926.6416782311398,447.1260523850159
807.144395332138,991.7062947557051,926.8564328087867,542.2869027931172,971.015147279329,331.4804833559838
811.542631421878,805.5983203491179,734.8831054835106,544.9918593233326,824.9275353976609,292.4138948953044
815.934223882232,616.070863440151,563.1767610393067,347.67363160247334,540.9873168541499,166.90519162040454
820.31918401953,438.66078550188934,465.1071111185886,-57.30161959283741,354.6705596774915,-38.764851903820954
824.697523129624,275.4167574892973,391.6859016584821,14.608039141602525,307.8951060011399,5.225212040408252
829.069252497993,129.2250940762049,261.4606501250467,198.29170649335606,201.34639546769557,51.98903131867482
833.43438339989,22.539699284204048,89.11128977397405,-114.41614353046316,20.69346529673598,-144.32694151016017
837.792927100469,-18.918346586477256,-33.60638897404249,-163.8139653556253,-52.90461049303255,-67.50630750888051
842.14489485491,-1.5222874077721116,-57.83257513805199,231.83409380383114,-30.633819211282173,81.02635547861703
846.490297908544,38.116999995263754,15.773263652966023,49.509117285038116,-18.970167953155055,-121.39649004811898
850.829147496994,70.65799444002327,149.08127433124355,70.34208514484175,20.84301670563201,31.491571199027305
855.161454846289,103.80838469694096,235.58182883501698,346.8424294541252,101.41488582155391,345.7127034501324
859.487231173005,185.68207559435083,235.9400326848171,378.59412719179005,171.61007646376868,260.0244320719472
863.806487684371,369.49198469737837,297.5719837716915,386.77986917094006,306.99160586861046,330.4124985928143
868.119235578417,642.2630522789918,523.4860281786049,721.5657362512143,572.9790680712665,697.5674434848017
872.425486044092,898.0456461669523,749.9812821600963,1019.4734723425868,803.6938336670736,986.7043991268529
876.725250261385,1015.8168023515148,776.8085527754365,783.5406902900733,821.4117517461933,845.5363279989045
881.018539401459,949.8514727093452,652.1989443487035,562.9069806559854,727.9813771026855,454.01940074576623
885.305364626767,731.27793942212,499.6634448366472,632.1400999020645,672.1098608854818,494.48332084521365
889.585737091185,439.0436432521485,278.0939680668058,644.9985379347972,520.9361713864446,495.4633518322564
893.859667940127,204.87908161678945,9.876751332953404,123.2730411382141,185.9765576775792,45.039015236673336
898.127168310677,168.9239087255289,-36.55972378366059,-99.20986944158994,-5.65705643716165,-65.64297291920255
902.388249331707,349.3778060832352,232.8333083494193,478.03752234025603,190.11013992868632,300.4728134945292
906.642922124003,594.984928589238,469.80426443101055,554.0391511359031,433.55887293327544,593.9784402203699
910.891197800389,728.2954139307169,385.38053599876804,127.7819778579449,328.7866297664798,342.62188660810193
915.133087465836,706.0600368956907,140.82017487295434,-175.99478897371142,33.89797402278225,-2.2276871437017576
919.368602217606,615.3353332861973,-0.7356837561654288,-28.464670528559424,-85.61517498260385,189.66685612629038
923.597753145354,570.9625631100168,-15.593127383774458,50.98303680283806,-13.227154080815922,120.83945878990579
927.820551331259,639.582904882802,29.976304085025504,-53.89338392161986,46.125581376595164,7.037077244573879
932.037007850138,804.1684647657015,141.4576496471591,154.73710416790954,47.68135012271301,273.5867131028667
936.247133769581,970.0350669624295,293.68261858675794,-49.19761309757149,105.61159694883787,193.3653753520731
940.450940150044,1033.2247349358306,353.2226789925811,307.2590282804562,211.7597140010344,267.3380196584246
944.648438045002,975.2318681600095,229.50923929871362,370.19119070102914,185.99679550661904,306.46723328152086
948.839638501038,891.6785826758603,51.122706670492335,-169.62081655420508,20.013663397566063,-27.143682054197598
953.024552557976,900.518314015143,52.40218430017899,-39.129613041577215,-26.856775257446316,-18.694756467708885
957.203191249007,1020.8999252120279,278.0114375774758,-15.40867497147508,139.04992672814683,-5.8492854425787755
961.375565600785,1172.114460749271,532.2593648769198,83.11046959104999,292.97153387612946,70.3996134021454
965.541686633571,1279.3907570133254,643.3510071968108,143.40115313219167,290.76955174775304,187.29838755606715
969.701565361323,1341.884231687045,663.5447010062412,136.33743456065577,258.2167727725918,63.58903311926724
973.855212791839,1399.4844809445997,758.8739699843247,450.4893459476775,303.9331129097997,252.25179683280817
978.002639926852,1461.693663150236,978.1951333257376,602.1219823842727,342.5418602407957,252.71255335886622
982.143857762165,1485.242736039351,1183.0614165058294,442.088039862428,289.48720000577777,83.42064848244831
986.278877287752,1421.6279541771053,1191.8537109745546,784.0993041571387,196.77074795661628,297.9705788385047
990.407709487881,1274.2514162547363,992.2886382159844,331.10001103146436,136.9248643452462,185.5863300881084
994.53036534123,1097.6568691600094,750.4405589228766,32.27183496257942,98.07699643823747,178.16979000706976
998.646855820994,953.6048157095332,605.4073113773209,449.82205275866966,45.39357010048383,281.53046227194386
1002.75719189501,880.1432787702739,586.50221806511,-89.23047014168247,54.41154758119853,-99.96805905822191
1006.86138452586,875.0884223517094,655.8642637155426,239.59322223379783,235.8013763830073,55.484826296346114
1010.95944467101,890.1527037675125,700.9785139589869,568.8833269878162,509.12979358477014,421.94474810005113
1015.05138328288,866.5524647688464,628.8787421523197,371.7733316243969,671.4945712864658,447.6994451322862
1019.13721130899,782.0247479186215,484.0086271441867,390.44927713594524,646.502450458522,604.6334956851686
1023.21693969209,648.3758315736982,353.2233795783983,300.15067495825195,506.61040577086095,500.5908934427231
1027.2905793702,483.3695067609996,261.87774069069917,-67.57356312020282,360.425496769135,183.7224419836764
1031.3581412768,307.9501850914721,190.96897892177378,-87.48836021141615,279.0191394425388,82.86256234924804
1035.41963634092,155.5251073884794,91.11851264956276,144.35490655548267,264.2967047805406,125.17378806842544
1039.47507548723,57.23973340861004,-42.42512464776023,-203.1201782432758,276.7829057561149,193.98919672567553
1043.52446963617,13.09303306801964,-92.15572832882046,-48.549149377120145,279.26435387341064,279.3772455275641
1047.56782970403,-6.826681130977336,49.18606220585264,-17.851676796683485,241.6849708406753,182.16691056199346
1051.60516660314,-21.5427379084431,297.9591010327491,86.88083294061784,128.57860585297985,-43.19626334903522
1055.63649124187,-3.5258380139261973,459.0766571714337,57.383028947741245,-55.91204725340722,-12.488467118898093
1059.66181452483,112.08942170558785,490.3774609514255,11.964055680342248,-160.2725187186105,-94.62597103174456
1063.68114735294,382.0933139670219,562.728674291857,31.70428849328087,48.19697399386064,-51.28946223970782
1067.69450062355,806.6135615911774,816.7949927724403,125.93890935799705,575.486198233503,671.4425574024681
1071.70188523054,1302.827326167578,1230.743787148203,1008.92584818154,1136.6570545654943,1133.7429455298748
1075.70331206442,1715.6128330545307,1737.3061740250052,1074.0988841531414,1510.0748688646838,1334.8855566351249
1079.69879201248,1871.583298851752,2181.2794128298774,1546.288016958136,1650.4414566085366,1899.1776729198002
1083.68833595885,1673.7852686494568,2227.75725167983,1879.0232215704018,1469.0328878040907,1801.0345578522163
1087.67195478464,1188.6486069698753,1699.6912125101687,1049.0096618497005,967.7859921260304,936.5539050787755
1091.64965936803,627.2981954122552,896.2013302326761,737.9105170272526,454.33346583992824,553.6804570598606
1095.62146058439,206.87181314791457,277.61174982163516,412.44378942264854,207.57756816031423,328.49051506582805
1099.58736930637,18.37521581390274,12.717653724442556,-153.8099093330678,182.77667772532888,-28.368049983845054
1103.54739640402,9.497636599943093,-20.777000098525434,-9.335777402215966,203.49871055175535,228.59539270731264
1107.5015527449,70.98199043389678,9.195450310759838,93.47640813101886,159.94874857026457,387.21677444946243
1111.44984919419,136.15361257638364,41.838954868635966,-143.08185310586975,60.986928540600765,201.61296572157937
1115.39229661475,200.44652874482514,92.51615049940636,-14.918895762216657,3.496683592133877,215.61749548221923
1119.32890586729,280.5594402984507,150.6893718965196,-134.83959008168722,11.30054277322148,76.45260627722689
1123.25968781045,404.2342060672475,215.63404682627976,81.33186543281218,37.94645683366181,-22.06914418015566
1127.18465330088,612.1184732104215,383.5420457529772,64.84701233371834,157.66079604025953,-66.11403185886957
1131.10381319339,901.369168784805,733.5689326566253,92.6117153013135,469.4088053943574,146.1933572794236
1135.01717834101,1174.4307398778667,1143.946850306561,937.0011307747479,801.1133973812272,574.6783083811547
1138.92475959512,1303.4486604147994,1377.7110004400279,770.1193072800206,846.8795569543842,512.2983216489474
