Raman shift cm-1,4ATP_10nM_rep3_acc5_processed_intensity
-93.47115107,486.274646079076
-87.69374369,212.27630213221605
-81.9253076,41.560766543494594
-76.16582701,-7.748219679739506
-70.41528615,6.944440474292875
-64.67366933,27.437102809014874
-58.94096086,40.274354895071106
-53.21714512,64.22241164843999
-47.50220652,114.37273539057253
-41.79612954,177.32435541350878
-36.09889866,218.29250835627982
-30.41049843,215.06317638986826
-24.73091343,177.41371215153848
-19.0601283,130.34288104789292
-13.39812769,93.00694324407411
-7.744896327,77.73832461238752
-2.100418946,88.80161620537582
3.535319659,111.06777653138504
9.162334658,116.98867665938229
14.78064118,98.91436111604928
20.39025432,82.87531978314415
25.99118913,94.96507979902813
31.58346061,123.04306590110636
37.16708375,129.80865924799957
42.74207347,96.93338887494671
48.30844468,41.6289271728957
53.86621222,-0.12619957925525505
59.41539093,2.0644139506067605
64.95599558,50.44386557641347
70.48804091,115.83059887363001
76.01154164,168.83715163583204
81.52651243,206.91080762100904
87.03296792,237.28250116979683
92.5309227,254.88250363360328
98.02039134,257.98317114172806
103.5013884,265.2469411489603
108.9739282,300.25322748004135
114.4380255,364.88093036852916
119.8936944,426.6008143496807
125.3409495,441.20077391806853
130.779805,407.4914381461793
136.2102753,380.3796998308769
141.6323747,402.18667500053
147.0461174,448.70893529568457
152.4515176,474.99396692928593
157.8485895,483.48346001561515
163.2373472,511.37012719276686
168.6178049,572.9064223766943
173.9899766,646.9017580577165
179.3538764,711.3581177900309
184.7095182,762.4482597025009
190.0569161,798.9180137687101
195.396084,813.0540586630981
200.7270358,805.6117134465084
206.0497854,793.6650924313464
211.3643466,797.0922973949057
216.6707333,823.0470867646196
221.9689593,862.1599432622783
227.2590382,896.734706951942
232.5409839,917.8726333268038
237.8148101,937.1909737321726
243.0805303,973.8560656973715
248.3381582,1029.2434898006309
253.5877075,1086.2336663708845
258.8291917,1133.5920274451041
264.0626244,1177.086602342123
269.288019,1223.2844399240314
274.5053891,1263.7933977576633
279.7147481,1281.0924271963147
284.9161094,1258.4301818911629
290.1094865,1174.0324951967398
295.2948927,998.6326193407388
300.4723414,724.4528119209369
305.6418459,404.2486430930183
310.8034194,138.60892297336795
315.9570752,2.9248256774701247
321.1028267,-6.252361528815257
326.2406869,50.05343729979848
331.370669,109.76181631522122
336.4927863,144.0643264173917
341.6070517,155.12983663505452
346.7134786,153.15173215246125
351.8120798,143.91249880068557
356.9028684,134.46766849532017
361.9858576,136.31480912892505
367.0610602,174.5322240005424
372.1284892,310.23182720635396
377.1881577,619.5835045250781
382.2400784,1100.9235343639368
387.2842644,1602.6667379961873
392.3207284,1886.4564498125021
397.3494833,1802.2620565078084
402.370542,1406.8065828134158
407.3839172,902.2874095204713
412.3896217,475.1503022616127
417.3876683,203.19417218834397
422.3780697,79.6521499278268
427.3608386,69.91622634244571
432.3359876,125.67345322116635
437.3035295,179.14911357848163
442.2634769,174.11055882483797
447.2158423,111.63107064736788
452.1606383,40.13374953155884
457.0978776,-0.41718237025977845
462.0275727,-5.650982912587817
466.9497361,10.275362173115726
471.8643802,34.919742595376
476.7715176,59.977514838528236
481.6711608,74.36666103454006
486.5633221,65.6362611271365
491.448014,35.81004883124105
496.3252488,5.662283533761795
501.195039,-7.497382952273125
506.0573969,-4.771256979251708
510.9123349,8.317134096158162
515.7598651,30.13746229269319
520.6,49.25021092355009
525.4327518,48.99774415659685
530.2581327,37.878300403539285
535.076155,49.832383432084576
539.8868309,100.08019608990595
544.6901726,158.4816509016278
549.4861922,178.10741266588735
554.2749019,145.55183807522636
559.0563139,98.88361437621442
563.8304402,86.92896888050421
568.597293,110.9551180518896
573.3568844,130.25052690043492
578.1092263,123.9906133762625
582.8543308,110.28471028355818
587.5922101,102.83484245385051
592.322876,87.09893199281827
597.0463405,48.44350535901444
601.7626157,1.6328027762454163
606.4717135,-19.099881780718597
611.1736458,2.8093574285113867
615.8684246,44.336202563965955
620.5560617,66.17658412949828
625.2365691,58.07504242418706
629.9099585,45.33849997049896
634.5762419,48.75579180775941
639.2354312,58.50091196884189
643.887538,54.40410515826795
648.5325743,34.29535912813266
653.1705518,11.959627987890705
657.8014823,0.27501819211659395
662.4253775,7.13488768526023
667.0422493,34.708744994931486
671.6521092,69.42530693399743
676.2549691,82.88715433116614
680.8508407,56.3231712289977
685.4397355,6.78561373761333
690.0216654,-19.799564331060598
694.5966419,6.281466198614364
699.1646767,64.21237445929532
703.7257814,104.21789977161909
708.2799676,98.71949681996864
712.827247,59.95601646379347
717.367631,15.788494130901967
721.9011314,-12.769500669870647
726.4277595,-12.038097693418976
730.9475271,23.53714560777756
735.4604456,79.32692925813453
739.9665264,121.4488610145207
744.4657813,120.24626850246186
748.9582215,74.00290915142519
753.4438587,14.963098509978245
757.9227042,-6.146366227951937
762.3947696,43.149473737024294
766.8600662,140.8754477826547
771.3186056,217.4011219789003
775.770399,215.27562678006313
780.215458,143.48403071512107
784.6537939,67.85213387320306
789.0854181,51.14368729021552
793.510342,99.94610470929555
797.9285769,165.64360752213994
802.3401342,197.97176565539075
806.7450253,189.25912205936942
811.1432614,164.16168691644808
815.5348538,146.8713536249184
819.9198139,147.1926127728459
824.2981531,159.43160609023312
828.6698824,166.2895070656999
833.0350133,155.0319139031344
837.393557,128.526826597163
841.7455248,94.01766311543798
846.0909278,53.5998190655932
850.4297774,13.078848120646157
854.7620848,-12.172822355822056
859.0878611,-6.1012129979667264
863.4071176,36.41201249955529
867.7198655,103.4496363588986
872.026116,169.56229367503937
876.3258802,205.9421194215916
880.6191693,192.1359601930082
884.9059946,130.80530334256733
889.186367,58.31203315101399
893.4602979,28.36927110602077
897.7277982,64.12497346300474
901.9888793,124.11728109993845
906.2435521,136.7907641565085
910.4918277,79.45927785927363
914.7337174,7.091981976328739
918.9692321,-6.659252260357396
923.1983831,55.3945010230629
927.4211813,141.49416943808995
931.6376378,182.7539558325033
935.8477637,155.6549962036788
940.0515701,96.71176621217418
944.249068,62.1929311498252
948.4402684,80.72391239702648
952.6251825,136.97779716714405
956.8038212,190.08647936588432
960.9761955,210.62456179222116
965.1423166,202.27803272423057
969.3021953,185.9449117784833
973.4558427,172.2493557169882
977.6032699,160.98347715522564
981.7444877,155.0924801726929
985.8795072,155.11139006268766
990.0083394,146.16881968761675
994.1309953,109.4508375466978
998.2474857,50.4905652186772
1002.357822,6.164959449732301
1006.462014,12.151885097869725
1010.560075,62.75719361058508
1014.652013,112.69715761909626
1018.737841,124.03269515755595
1022.81757,104.41699758204312
1026.891209,90.21620149625599
1030.958771,100.29314137313905
1035.020266,124.99205068206975
1039.075705,151.48186890071156
1043.1251,169.329489240086
1047.16846,155.4794308139588
1051.205797,91.19342063499069
1055.237121,3.103151354958271
1059.262444,-31.928058368898874
1063.281777,68.53666416416078
1067.295131,333.2501791089209
1071.302515,697.5827819109461
1075.303942,1014.1273703569956
1079.299422,1125.6929563400038
1083.288966,970.9706548104173
1087.272585,640.9981407308959
1091.250289,315.32310880137754
1095.222091,124.38555233894115
1099.187999,71.08946448871154
1103.148026,73.70963099742514
1107.102183,63.50266217371559
1111.050479,33.38367017289998
1114.992927,8.726630863537636
1118.929536,0.730358410583225
1122.860318,1.5970378740669204
1126.785283,8.605712581658455
1130.704443,29.775550065391258
1134.617808,66.74787866748485
1138.52539,107.99753617090239
1142.427198,139.12771516469746
1146.323244,150.721177711443
1150.213538,139.77978426401148
1154.098093,112.84337206755976
1157.976917,89.71940600673544
1161.850023,96.39207162602351
1165.717421,143.14314744500496
1169.579121,212.63460020821802
1173.435135,279.61277941093067
1177.285474,333.60578220012457
1181.130148,368.2857464536151
1184.969169,363.4345894909726
1188.802547,302.3986103684338
1192.630292,199.61471544243136
1196.452416,91.7764752964017
1200.26893,10.931629377084136
1204.079844,-22.556261189456364
1207.88517,2.1410818478668645
1211.684917,74.33753041623442
1215.479098,149.44936215845462
1219.267722,176.30156675849122
1223.050801,153.4878858501687
1226.828346,132.70904815986978
1230.600366,148.415869567031
1234.366874,182.00808101295948
1238.12788,209.3138297465241
1241.883395,231.71376468046466
1245.633429,245.45458410040075
1249.377994,230.49486540319504
1253.1171,183.71048447458102
1256.850759,127.74351454997026
1260.578981,81.67685996858172
1264.301776,45.41865035853333
1268.019157,14.598636914163075
1271.731133,-4.116965545241609
1275.437715,-3.5921037515694145
1279.138915,3.8869925787405535
1282.834743,-2.4175469819425235
1286.52521,-17.947942036087404
1290.210328,-14.904736660821033
1293.890106,15.190726272124875
1297.564555,47.694513857413845
1301.233688,60.810276018936385
1304.897514,56.564143589440164
1308.556044,40.294544988078606
1312.209289,15.05556349608156
1315.857261,3.277605870119853
1319.499969,35.57646375096176
1323.137425,106.13777069812298
1326.769641,166.72879089637092
1330.396626,174.2196631217467
1334.018391,128.95703461190206
1337.634948,64.61189057589841
1341.246307,13.399844954905499
1344.85248,-11.994306914463596
1348.453477,-11.900283566050591
1352.049309,10.437748643298805
1355.639987,47.97035059301773
1359.225522,84.74721184907992
1362.805925,102.70767124873429
1366.381207,100.18488761632969
1369.951379,96.366322227767
1373.516452,107.82806439883909
1377.076436,126.16883983067072
1380.631343,128.38071263771351
1384.181184,105.79770380096302
1387.725969,76.49178179167912
1391.26571,72.2295708183526
1394.800417,108.64504884375793
1398.330102,158.1548351979895
1401.854776,164.64856021470914
1405.374448,102.4363027513077
1408.889132,13.122219329520334
1412.398837,-30.63386202482708
1415.903574,4.000506507183687
1419.403355,86.62163210854425
1422.89819,162.78966862311253
1426.388091,196.61949674076618
1429.873069,179.84024572891764
1433.353134,127.46048354010956
1436.828298,68.12872635703678
1440.298571,24.08526753190101
1443.763965,2.1194394041936278
1447.224491,5.0692019297297435
1450.68016,35.89322709228046
1454.130983,86.55966677960913
1457.576971,137.45978906358368
1461.018135,168.58129986402156
1464.454486,167.35076524846124
1467.886036,140.74677388747773
1471.312794,122.16840749357188
1474.734774,140.22878801763923
1478.151985,177.1152999413133
1481.564439,187.92200826989085
1484.972146,165.50709319261972
1488.375119,151.6702130674969
1491.773368,172.74922924709287
1495.166904,198.46878218369613
1498.555739,184.91020577434352
1501.939883,133.39861732185477
1505.319349,85.71619031154826
1508.694146,72.54568955407053
1512.064286,82.42213565429505
1515.429781,81.47180616086959
1518.790642,52.970446871745196
1522.146879,11.988195020351164
1525.498505,-11.880131709540457
1528.845529,-3.272911445592058
1532.187965,25.530430576073073
1535.525822,54.9306917573617
1538.859112,87.75598238344381
1542.187846,137.99022600490161
1545.512036,187.7181507999146
1548.831693,183.96346873649873
1552.146829,104.34572889095486
1555.457453,10.769025335091847
1558.763579,-1.4134728238797223
1562.065216,91.681862851067
1565.362377,219.31403045397713
1568.655073,297.3469944757563
1571.943315,311.1077347335303
1575.227114,315.55976212953004
1578.506482,366.4522476024416
1581.781431,462.88301682839244
1585.051971,556.6225623192918
1588.318114,598.6264696885942
1591.579872,566.3127900937037
1594.837255,466.6565697870149
1598.090275,332.3829713769528
1601.338945,205.68694538311672
1604.583274,115.37627359143515
1607.823275,69.31597841392633
1611.058959,53.66236039474467
1614.290338,37.23281790647601
1617.517422,4.3883983674425515
1620.740224,-22.622138303840792
1623.958755,-20.55136030319554
1627.173027,-1.2802170345197226
1630.38305,11.163534381431553
1633.588838,15.394948402068145
1636.7904,26.421582112538644
1639.987749,48.51574043428553
1643.180896,68.85431845487935
1646.369853,71.93469539242182
1649.554632,52.0788293967523
1652.735244,20.580365871841224
1655.9117,0.6366900217275884
1659.084013,1.162507522831831
1662.252193,8.209513371468113
1665.416254,15.206326589065455
1668.576205,31.635201415680214
1671.732059,52.154248784991815
1674.883828,56.748118571114844
1678.031523,45.058081496579575
1681.175157,34.22191843467691
1684.314739,26.75951520601417
1687.450284,10.481452756505375
1690.581801,-13.579448644244657
1693.709304,-22.38007471853122
1696.832803,7.230466585922446
1699.952311,71.15653348090403
1703.067839,136.62026001473706
1706.179399,171.2687441562498
1709.287003,170.75168957107513
1712.390663,156.81431283629186
1715.49039,148.75983158968927
1718.586197,138.5324087371398
1721.678095,104.02331815593709
1724.766096,47.57210152337494
1727.850213,2.5636923497589237
1730.930456,-1.9293214824903089
1734.006838,36.17582420227865
1737.079372,102.52981668745268
1740.148067,172.30925363912849
1743.212938,209.86914411465943
1746.273996,196.379698076667
1749.331252,157.2983579015486
1752.384718,136.62541405579594
1755.434408,147.8971286849772
1758.480332,166.23336725452208
1761.522503,162.82739886049626
1764.560933,137.4764186056225
1767.595634,114.98528056183766
1770.626618,112.42186272849122
1773.653896,124.4076574861962
1776.677482,145.93633353833238
1779.697388,183.80781766628377
1782.713625,229.8500295664391
1785.726205,250.0205496242658
1788.735141,224.66330250251946
1791.740445,184.96160620745903
1794.742129,183.9533394959687
1797.740206,231.50355357426466
1800.734687,278.4096223835078
1803.725585,268.8738753029912
1806.712912,192.89809689804338
1809.69668,88.2279501049293
1812.676902,6.576325553847489
1815.65359,-23.492527235749247
1818.626756,-11.767204513559648
1821.596413,12.476043296392483
1824.562573,29.514475263396108
1827.525247,34.58893244554339
1830.48445,27.641650665560036
1833.440192,13.918027628699225
1836.392487,6.21433755090372
1839.341347,11.628767917904199
1842.286784,21.77688754307836
1845.22881,22.072348773478915
1848.167439,7.216254618411755
1851.102682,-10.168391955656457
1854.034553,-5.460784217564094
1856.963063,31.298665921061314
1859.888226,73.63824857825931
1862.810053,81.27382546930289
1865.728557,46.6119178169175
1868.643751,2.719701868720543
1871.555648,-15.87284860247938
1874.46426,-6.060131550037838
1877.369599,13.216041471590243
1880.271679,31.38196763130899
1883.170512,54.58601600400937
1886.06611,83.95349566943662
1888.958487,101.68257024150861
1891.847655,88.422133773638
1894.733626,46.823428818474284
1897.616414,3.46182724818593
1900.496032,-12.366408270203994
1903.372491,5.022263682619666
1906.245805,36.21455022700438
1909.115987,64.58012301840782
1911.983049,93.10524562760006
1914.847004,123.84290137825332
1917.707866,137.506518061568
1920.565646,112.31205864068787
1923.420359,56.37829756450617
1926.272016,5.424695065513017
1929.120631,-12.51727847334666
1931.966216,-1.7264007403624433
1934.808786,15.27018682189971
1937.648351,30.88737683329418
1940.484927,63.76830472039124
1943.318525,132.86968121188636
1946.149158,220.8328380382655
1948.97684,274.32876596842374
1951.801584,253.48177281696314
1954.623403,173.75086801714986
1957.44231,89.27510258209449
1960.258318,45.47758159767703
1963.071439,49.11102468586202
1965.881688,66.43798815957946
1968.689078,52.01633953522715
1971.493621,-3.0564094518208833
