Raman shift cm-1,4ATP_100nM_rep3_acc4_processed_intensity
-93.47115107,286.04961490721405
-87.69374369,109.4534086007447
-81.9253076,-0.7315561286146792
-76.16582701,20.641116167447095
-70.41528615,23.451306920027573
-64.67366933,-16.060764525700737
-58.94096086,-5.101878607459626
-53.21714512,-39.91916915602452
-47.50220652,-11.867955086434211
-41.79612954,156.2536646284861
-36.09889866,203.68626739390425
-30.41049843,120.34023649959715
-24.73091343,64.77507913852624
-19.0601283,76.75417317006398
-13.39812769,93.27767658959118
-7.744896327,12.348157448012493
-2.100418946,-27.270784495671414
3.535319659,23.40826171844548
9.162334658,39.701595126410275
14.78064118,54.68318987487548
20.39025432,17.636939902257055
25.99118913,-13.687017873434268
31.58346061,117.43815194963234
37.16708375,168.72292511810198
42.74207347,33.85849836915621
48.30844468,-14.95537795503811
53.86621222,12.00324502727273
59.41539093,-32.34836890767264
64.95599558,-9.426326581864323
70.48804091,128.75281943589857
76.01154164,108.74574246244867
81.52651243,-18.808158627814294
87.03296792,98.97197397184699
92.5309227,239.28734629696982
98.02039134,132.31040597874562
103.5013884,94.39230961308742
108.9739282,147.64076103430818
114.4380255,69.41942387804238
119.8936944,131.81754303818815
125.3409495,335.1764648771377
130.779805,186.74219561333047
136.2102753,-61.78219297660171
141.6323747,70.011234008669
147.0461174,176.63861982566485
152.4515176,41.71160473933392
157.8485895,-6.214557959284619
163.2373472,10.3362069510415
168.6178049,32.22315251544438
173.9899766,80.16192900317373
179.3538764,21.309308194765137
184.7095182,-9.558531023265129
190.0569161,101.84690903544688
195.396084,124.759616598258
200.7270358,24.838535853103373
206.0497854,-1.7553049400353695
211.3643466,54.567674145010656
216.6707333,36.39777590513228
221.9689593,-46.963718428861995
227.2590382,-10.30506761885438
232.5409839,59.28078604400465
237.8148101,-0.8120451344133315
243.0805303,-43.1395359235032
248.3381582,-12.975903518865486
253.5877075,23.27954669980008
258.8291917,58.20593713245
264.0626244,33.71801476385214
269.288019,12.100714249913313
274.5053891,33.768559927939215
279.7147481,-10.959149387637867
284.9161094,-69.66472071617588
290.1094865,74.01870235462754
295.2948927,750.1561171332098
300.4723414,2179.595050958606
305.6418459,4027.504503241532
310.8034194,5680.243438850099
315.9570752,6712.158559827377
321.1028267,7052.520605975595
326.2406869,7128.361799938712
331.370669,7360.133368059349
336.4927863,7716.016492585822
341.6070517,8127.264494188928
346.7134786,8511.350004736247
351.8120798,8646.681200055356
356.9028684,8548.619365946175
361.9858576,8367.792022789044
367.0610602,8257.295402785252
372.1284892,8631.801499626325
377.1881577,10205.45002978451
382.2400784,13519.232596671896
387.2842644,17460.077553781663
392.3207284,19250.71538789913
397.3494833,17697.462451143932
402.370542,14429.919345462511
407.3839172,11252.947773378768
412.3896217,8836.602309713504
417.3876683,7266.532199104244
422.3780697,6267.746414900047
427.3608386,5626.357747707552
432.3359876,5298.510319157395
437.3035295,5074.169703660239
442.2634769,4743.355985061722
447.2158423,4403.52270917471
452.1606383,4129.145118474634
457.0978776,3761.503023204284
462.0275727,3461.0060169089043
466.9497361,3363.43948140049
471.8643802,3253.267393488349
476.7715176,3284.672628330962
481.6711608,3459.2818458135653
486.5633221,3391.8049827557793
491.448014,3165.0847769574007
496.3252488,2966.925137051468
501.195039,2817.2674875418884
506.0573969,2722.817279068207
510.9123349,2521.58457441445
515.7598651,2233.2569340664054
520.6,2051.2406663289003
525.4327518,1924.1498210236214
530.2581327,1766.661153368444
535.076155,1724.680065874647
539.8868309,1717.8023186609603
544.6901726,1498.2151886547363
549.4861922,1375.733710281685
554.2749019,1395.167737176224
559.0563139,1164.4273102792959
563.8304402,1055.0161375712396
568.597293,1127.5498584337483
573.3568844,813.4980008528714
578.1092263,500.65333160026967
582.8543308,550.5212234112164
587.5922101,451.416764399557
592.322876,284.11721945703175
597.0463405,399.7368696533931
601.7626157,408.5979313652456
606.4717135,156.64626045644263
611.1736458,41.89896845501744
615.8684246,163.4765172442435
620.5560617,230.60738103004132
625.2365691,159.34922167629657
629.9099585,230.75887859874456
634.5762419,453.849230573333
639.2354312,502.0801395373892
643.887538,301.7887677059002
648.5325743,165.40390111208853
653.1705518,236.56557486082147
657.8014823,165.05568266544105
662.4253775,-24.883547897995868
667.0422493,28.031562563580792
671.6521092,100.88106045784207
676.2549691,-6.553961938236625
680.8508407,-30.46910550869825
685.4397355,93.61925129506062
690.0216654,152.27175435556273
694.5966419,205.4118767074192
699.1646767,426.7836680184446
703.7257814,556.4785853011736
708.2799676,505.10073283019983
712.827247,524.6515134296628
717.367631,454.5700439474149
721.9011314,248.26662163036758
726.4277595,182.1659268120975
730.9475271,112.46223516934265
735.4604456,9.897555105320862
739.9665264,123.1653268026082
744.4657813,188.15225670012
748.9582215,17.55629460446471
753.4438587,-52.08068154345574
757.9227042,10.45358329581245
762.3947696,33.63945260945843
766.8600662,107.00939950649058
771.3186056,195.94798475346602
775.770399,247.0492302703292
780.215458,275.08145785661804
784.6537939,190.35180032827384
789.0854181,228.70372905346028
793.510342,543.7374178978448
797.9285769,800.1439512035994
802.3401342,905.1155398399862
806.7450253,930.7959503724078
811.1432614,771.8770137894734
815.5348538,572.5966906803658
819.9198139,581.1303609751925
824.2981531,610.1517241874471
828.6698824,419.84357909441
833.0350133,207.07981822438092
837.393557,136.35684342374586
841.7455248,97.05195772815713
846.0909278,30.549556562160276
850.4297774,-25.5279590372171
854.7620848,-28.092899137464435
859.0878611,-3.6830807164254704
863.4071176,66.9623807796059
867.7198655,285.6263184774321
872.026116,511.22440112274774
876.3258802,488.8202817552956
880.6191693,349.6359592425507
884.9059946,403.86579390206384
889.186367,479.53309990533614
893.4602979,324.12434022012616
897.7277982,284.89912357491227
901.9888793,587.6971035221916
906.2435521,846.2278783250773
910.4918277,833.5472244917191
914.7337174,835.9344534155025
918.9692321,997.2002698761164
923.1983831,1091.483387711547
927.4211813,1117.4901960600123
931.6376378,1172.3976604830973
935.8477637,1186.0836537211278
940.0515701,1210.3337610026197
944.249068,1191.5533303845716
948.4402684,1132.067294471284
952.6251825,1263.8601009492172
956.8038212,1472.2175775337353
960.9761955,1564.5088454978777
965.1423166,1595.6214158043629
969.3021953,1545.3684786676865
973.4558427,1432.6493776113423
977.6032699,1373.6564339115375
981.7444877,1369.2643492693587
985.8795072,1345.4220774387193
990.0083394,1304.5546293258217
994.1309953,1304.6715958590946
998.2474857,1337.3015266091875
1002.357822,1402.3731674325822
1006.462014,1369.6892775736785
1010.560075,976.006254903122
1014.652013,468.3914334442043
1018.737841,268.38442387552095
1022.81757,172.1354887372284
1026.891209,2.5998020058127054
1030.958771,11.583744717329978
1035.020266,127.38842337216192
1039.075705,106.36357044725816
1043.1251,178.42003945067637
1047.16846,404.6404188480224
1051.205797,482.8096017531328
1055.237121,642.4050298394791
1059.262444,1279.7851227740243
1063.281777,2600.807713574875
1067.295131,4902.868306467463
1071.302515,7750.7406233629345
1075.303942,10000.83141983401
1079.299422,10364.250929944525
1083.288966,8045.513945779349
1087.272585,4546.950823903803
1091.250289,2099.3005910212946
1095.222091,855.7151308899138
1099.187999,280.05206851051884
1103.148026,116.00242045104835
1107.102183,26.661825604069918
1111.050479,-9.412149839012557
1114.992927,-19.337988275023235
1118.929536,136.2324519269082
1122.860318,650.4268513171364
1126.785283,1241.314323192133
1130.704443,2030.3169356560966
1134.617808,3077.682739274158
1138.52539,3521.171539842412
1142.427198,2924.5106256163554
1146.323244,1905.4134901464054
1150.213538,1217.8174762951728
1154.098093,934.0671410168063
1157.976917,755.0430690915495
1161.850023,806.1121000118762
1165.717421,1130.9965765488096
1169.579121,1409.2197836640087
1173.435135,1651.7445117318166
1177.285474,2007.7477289517346
1181.130148,2179.1573271471784
1184.969169,1859.7912219377763
1188.802547,1284.6508316251447
1192.630292,767.0326048219814
1196.452416,354.57838796360284
1200.26893,79.29554090564139
1204.079844,10.305306374162281
1207.88517,15.103117241553162
1211.684917,-59.00995434714712
1215.479098,37.31030424810829
1219.267722,244.44670371229125
1223.050801,176.05322425057227
1226.828346,156.90754229619438
1230.600366,419.88310510631385
1234.366874,516.8475919987651
1238.12788,373.61749087962505
1241.883395,372.6298454236587
1245.633429,522.414898954851
1249.377994,493.73122372544555
1253.1171,313.3479630849216
1256.850759,207.40403098111338
1260.578981,170.7802114324491
1264.301776,197.85674343998272
1268.019157,200.17993754003976
1271.731133,34.52064396368178
1275.437715,-52.16851046389874
1279.138915,146.1210311867115
1282.834743,261.69846188677417
1286.52521,69.41977369522223
1290.210328,-0.15856682135142108
1293.890106,240.10210169112617
1297.564555,361.17520378523307
1301.233688,264.2222143700267
1304.897514,262.2240258699781
1308.556044,323.2953195054971
1312.209289,203.4452192398631
1315.857261,2.1996778166247584
1319.499969,-0.3863099614442298
1323.137425,135.56980021104812
1326.769641,199.68269563770454
1330.396626,157.83147501802975
1334.018391,30.64721129086051
1337.634948,-54.759765460306554
1341.246307,-14.789021856486102
1344.85248,30.692446902834774
1348.453477,19.008889502970646
1352.049309,12.034460306043997
1355.639987,109.43016310632564
1359.225522,253.08039848158512
1362.805925,278.5009213981748
1366.381207,287.3708154898728
1369.951379,378.82613156284395
1373.516452,507.69198253344786
1377.076436,751.8678601966749
1380.631343,1074.4103721273138
1384.181184,1334.9068478979716
1387.725969,1448.981726637113
1391.26571,1271.6316182657754
1394.800417,824.346910957301
1398.330102,421.94371430172805
1401.854776,247.5104223043367
1405.374448,138.33301631771988
1408.889132,-3.5220639675242893
1412.398837,-7.708708598774077
1415.903574,293.9174850558896
1419.403355,761.0521658622108
1422.89819,1134.98194328795
1426.388091,1489.6904299150744
1429.873069,1726.1210097474884
1433.353134,1524.121759592497
1436.828298,1128.6633012095158
1440.298571,806.1768942336157
1443.763965,440.8904432206687
1447.224491,119.2505322276821
1450.68016,-6.365690184635973
1454.130983,-15.687173783418434
1457.576971,-7.572499635696658
1461.018135,-8.077039825427345
1464.454486,7.47295862515676
1467.886036,52.256550722025366
1471.312794,36.42684318910884
1474.734774,7.365227715974466
1478.151985,97.17526242225216
1481.564439,164.8257984712687
1484.972146,74.32267695017474
1488.375119,-2.95802943235082
1491.773368,58.7726060179459
1495.166904,77.75492441164147
1498.555739,18.728892094975052
1501.939883,3.6805422533364682
1505.319349,-47.7194088830165
1508.694146,-8.266766779334546
1512.064286,115.99809709882305
1515.429781,28.559978032936346
1518.790642,17.688026953485426
1522.146879,132.16266371296842
1525.498505,-21.694150425874465
1528.845529,-7.171018253710101
1532.187965,307.20760230962225
1535.525822,348.51289819664015
1538.859112,365.99899026792343
1542.187846,543.6074802008094
1545.512036,590.452189417539
1548.831693,750.7735445213234
1552.146829,957.1547057112255
1555.457453,955.5481545478394
1558.763579,1144.0362665647854
1562.065216,1592.1101314546781
1565.362377,2015.0893966709618
1568.655073,2416.10011286992
1571.943315,2729.2507175163687
1575.227114,2997.9327265264274
1578.506482,3410.442106224661
1581.781431,3846.5711742302833
1585.051971,4216.822878872817
1588.318114,4408.4297501747815
1591.579872,3998.812350390824
1594.837255,2954.4262517308525
1598.090275,1879.199314369067
1601.338945,1246.7464844966291
1604.583274,786.8538985036213
1607.823275,300.278685134298
1611.058959,272.25777859644427
1614.290338,438.4170313931656
1617.517422,180.61362526054472
1620.740224,-1.109510590991306
1623.958755,112.9653640986018
1627.173027,116.10163450370725
1630.38305,68.48629330471182
1633.588838,26.390859664350728
1636.7904,-3.934790702122669
1639.987749,32.525900142006776
1643.180896,-19.688152892852607
1646.369853,-8.2409506923713
1649.554632,137.53568242091853
1652.735244,42.62677363699291
1655.9117,-115.28787937523883
1659.084013,24.349785752649055
1662.252193,118.84897819794162
1665.416254,-1.3333637105558047
1668.576205,0.006661515495746784
1671.732059,84.35654697186656
1674.883828,33.135026649994494
1678.031523,20.019660097335127
1681.175157,86.83032482553517
1684.314739,50.846019234476906
1687.450284,13.950018446907759
1690.581801,23.7530485232025
1693.709304,-36.96044271762039
1696.832803,-56.79614238974121
1699.952311,14.49823646293082
1703.067839,85.37010833072077
1706.179399,169.95635247060295
1709.287003,163.15562817169047
1712.390663,24.837058525929837
1715.49039,16.642204937315007
1718.586197,141.24106649913267
1721.678095,118.83109088687002
1724.766096,-21.856049922205813
1727.850213,-59.619201836553664
1730.930456,13.214208372785134
1734.006838,30.682346929155432
1737.079372,-3.554111234373842
1740.148067,107.97854946096044
1743.212938,226.5971807710418
1746.273996,108.73293233679053
1749.331252,15.93647677153793
1752.384718,63.62112282672594
1755.434408,27.42871001616681
1758.480332,17.904754295862848
1761.522503,58.697861535490894
1764.560933,-37.08983300121218
1767.595634,-52.28981975409422
1770.626618,118.46811346942803
1773.653896,141.6656572029571
1776.677482,15.370927194840815
1779.697388,35.178492660610374
1782.713625,159.5527839841066
1785.726205,186.92506075557196
1788.735141,99.308528343988
1791.740445,20.685202458738978
1794.742129,63.47007262193042
1797.740206,133.04737840989102
1800.734687,116.1376752707788
1803.725585,100.23523723748882
1806.712912,134.20891479853887
1809.69668,125.96212474748626
1812.676902,13.443148086582816
1815.65359,-63.18457232084432
1818.626756,4.4308961481088645
1821.596413,75.96816708173995
1824.562573,112.94155045230556
1827.525247,132.40807460380879
1830.48445,63.528919868960784
1833.440192,-15.064950032023283
1836.392487,16.30869388673682
1839.341347,111.31868025842356
1842.286784,98.6382630708861
1845.22881,26.150140586908332
1848.167439,91.28150961650917
1851.102682,115.32893672611135
1854.034553,3.4865635969371738
1856.963063,65.05065890195708
1859.888226,221.9415874625185
1862.810053,163.873663807569
1865.728557,55.8133514509711
1868.643751,39.68424745717886
1871.555648,-23.486621757786274
1874.46426,-29.417831490545716
1877.369599,80.85190769248642
1880.271679,64.95611165510267
1883.170512,-1.7056979630395261
1886.06611,92.13231338166308
1888.958487,125.40261133887803
1891.847655,5.737496798276098
1894.733626,-27.56879045068202
1897.616414,-14.412325527150692
1900.496032,-38.70721589505083
1903.372491,24.19606045824474
1906.245805,88.05033939943155
1909.115987,41.404663872455785
1911.983049,10.001061860254882
1914.847004,32.462831045876484
1917.707866,11.359002328154382
1920.565646,-22.827875493206793
1923.420359,15.92001045194564
1926.272016,19.214701153207272
1929.120631,-43.09893763507753
1931.966216,4.345418818190102
1934.808786,70.22929397908962
1937.648351,5.928137253928908
1940.484927,-24.26711822895436
1943.318525,69.11394009205725
1946.149158,220.5072560090668
1948.97684,306.42056573424776
1951.801584,212.33015127467996
1954.623403,108.92762438598716
1957.44231,95.00086997779324
1960.258318,23.923908790917334
1963.071439,-40.12869538928756
1965.881688,-9.150568413035145
1968.689078,18.318193084688914
1971.493621,10.344646316301528
