Raman shift cm-1,4ATP_10uM_rep2_acc2_processed_intensity
-93.47115107,528.6928090265558
-87.69374369,113.62511424809861
-81.9253076,31.898521838188334
-76.16582701,142.18075705477818
-70.41528615,123.59553290066462
-64.67366933,-9.227796534985785
-58.94096086,-51.55483544401337
-53.21714512,7.8126048646276125
-47.50220652,89.7219388445246
-41.79612954,190.14399492099415
-36.09889866,276.5307248440912
-30.41049843,295.71932488709797
-24.73091343,257.8271472211076
-19.0601283,182.86383840855368
-13.39812769,78.66732389175161
-7.744896327,3.636007075616906
-2.100418946,35.94729346076398
3.535319659,139.0482682775668
9.162334658,169.1619940134206
14.78064118,77.90221454166266
20.39025432,15.671068513145526
25.99118913,127.93960997384977
31.58346061,279.74050778346276
37.16708375,243.0176332365555
42.74207347,96.25831650977878
48.30844468,26.878737996310242
53.86621222,-20.01615053369625
59.41539093,-91.9384931461688
64.95599558,-48.41469640253627
70.48804091,87.91533565098264
76.01154164,103.19035478508923
81.52651243,30.272640118223052
87.03296792,45.419106042822975
92.5309227,73.85957069942067
98.02039134,30.704720532992695
103.5013884,6.251674643836864
108.9739282,1.5611080477241046
114.4380255,30.53647747740895
119.8936944,187.2952257325389
125.3409495,294.50317110998765
130.779805,137.11957465489704
136.2102753,-45.9877068804838
141.6323747,10.20760111227947
147.0461174,111.08648062805932
152.4515176,45.174178443679494
157.8485895,-54.88870369748473
163.2373472,-44.73506368467274
168.6178049,38.19929175028825
173.9899766,126.41527840288074
179.3538764,173.83852948055912
184.7095182,169.234212401886
190.0569161,162.33056866644375
195.396084,169.14289565341662
200.7270358,131.49843289400224
206.0497854,38.917730917130235
211.3643466,-27.43298249431083
216.6707333,-21.933168858619233
221.9689593,11.54234045237101
227.2590382,26.489290388526214
232.5409839,14.913273529950175
237.8148101,-12.891179674399325
243.0805303,-31.28257394540133
248.3381582,-12.849831620659035
253.5877075,22.729202195780612
258.8291917,33.50660502226817
264.0626244,57.61271182643796
269.288019,120.14104390317085
274.5053891,117.85894967941775
279.7147481,22.630165736822583
284.9161094,-46.65985773472779
290.1094865,-29.52147290960818
295.2948927,75.38425451725647
300.4723414,293.2714983092086
305.6418459,648.3827564306584
310.8034194,1122.2078530714525
315.9570752,1579.0962322662679
321.1028267,1880.1786851602067
326.2406869,2057.2142063458477
331.370669,2175.600643651655
336.4927863,2278.567998798336
341.6070517,2476.6308536027555
346.7134786,2718.41140930798
351.8120798,2760.1943175228216
356.9028684,2667.018239151803
361.9858576,2763.259749699509
367.0610602,3045.1722558604647
372.1284892,3682.8226269764536
377.1881577,5855.678739890481
382.2400784,10261.728521617102
387.2842644,14813.068620142833
392.3207284,16104.104874708673
397.3494833,13470.394467595497
402.370542,9431.79912910391
407.3839172,6240.003963784622
412.3896217,4159.689991506983
417.3876683,2751.717540345676
422.3780697,1884.9538289921275
427.3608386,1507.1423841154988
432.3359876,1419.427727884241
437.3035295,1347.6497323389044
442.2634769,1076.6320747547948
447.2158423,673.2288282733879
452.1606383,399.2444657117228
457.0978776,285.6420529378248
462.0275727,166.83032901839294
466.9497361,38.346351283817626
471.8643802,16.474279106603035
476.7715176,136.14272616786843
481.6711608,333.9166921747759
486.5633221,466.8226538511361
491.448014,424.99539255585023
496.3252488,350.10529567491676
501.195039,458.42517270771623
506.0573969,600.2315944842835
510.9123349,489.8619227672257
515.7598651,277.95183637690445
520.6,257.68307907325476
525.4327518,286.3229767508188
530.2581327,190.0413223355016
535.076155,179.25487720636193
539.8868309,301.8869292954025
544.6901726,342.7795018268254
549.4861922,312.8379172839968
554.2749019,207.14432091830932
559.0563139,-28.63370952569008
563.8304402,-75.34063810319984
568.597293,152.75715282132467
573.3568844,202.5391979167014
578.1092263,44.47807835488297
582.8543308,21.396153606577187
587.5922101,37.69215642914196
592.322876,-28.259836008702223
597.0463405,14.882113133079145
601.7626157,107.08860441231045
606.4717135,36.01228998604911
611.1736458,-65.69579643879254
615.8684246,-21.145550197827
620.5560617,95.34754808262252
625.2365691,296.64243078706147
629.9099585,692.8187151023976
634.5762419,1082.9285081956734
639.2354312,1156.1715400723908
643.887538,924.2988810607947
648.5325743,580.1018921489657
653.1705518,272.44577869063966
657.8014823,76.87579565762424
662.4253775,-1.9253760449262387
667.0422493,8.959098072379646
671.6521092,29.692952763764097
676.2549691,5.96335395851105
680.8508407,-11.63518782997484
685.4397355,-3.4078380105584216
690.0216654,96.21900829232145
694.5966419,418.11473369017364
699.1646767,769.4063842035685
703.7257814,820.0596484388071
708.2799676,681.4991544641339
712.827247,603.8733235854055
717.367631,509.2609705722479
721.9011314,299.6343590881615
726.4277595,96.45154398294233
730.9475271,31.079043267450984
735.4604456,115.97088946346629
739.9665264,222.25465201735568
744.4657813,188.03542570865338
748.9582215,64.12877779812709
753.4438587,-1.3386110087873817
757.9227042,-24.988094599518632
762.3947696,-4.988655225018611
766.8600662,146.08920909575767
771.3186056,320.7155949992107
775.770399,360.87325668774974
780.215458,303.03799144899773
784.6537939,252.20011464548122
789.0854181,390.51902657336126
793.510342,817.5095350199647
797.9285769,1250.6660789025434
802.3401342,1430.4844464242747
806.7450253,1455.82345654948
811.1432614,1411.433829213439
815.5348538,1252.9442359945842
819.9198139,1025.241809889161
824.2981531,827.0983145259772
828.6698824,673.6617281466899
833.0350133,490.38814599016746
837.393557,278.3995847548765
841.7455248,172.097995868565
846.0909278,181.72148100063046
850.4297774,157.95485768476547
854.7620848,72.19802378612252
859.0878611,3.12251088427449
863.4071176,-6.560906437927784
867.7198655,91.21892693158523
872.026116,246.01769372521898
876.3258802,300.7570022469279
880.6191693,309.38232095388946
884.9059946,411.97273896190217
889.186367,455.83085525558766
893.4602979,325.8655061911787
897.7277982,265.64482812146355
901.9888793,420.8204952955397
906.2435521,586.3031494008073
910.4918277,615.2979821266339
914.7337174,642.9892534440296
918.9692321,791.9633382924967
923.1983831,953.8372819540408
927.4211813,997.6909459075996
931.6376378,975.6089926878044
935.8477637,1025.296717728082
940.0515701,1179.0186644243556
944.249068,1317.5988720674004
948.4402684,1370.0738712256998
952.6251825,1440.4891924177894
956.8038212,1597.4263885068312
960.9761955,1736.4829598150639
965.1423166,1748.6642911358142
969.3021953,1648.4966500112414
973.4558427,1534.7076270394102
977.6032699,1511.7378463232385
981.7444877,1548.318405233928
985.8795072,1497.3080394077342
990.0083394,1411.2602225116293
994.1309953,1586.0804787017505
998.2474857,2140.5852058143487
1002.357822,2678.5481774899517
1006.462014,2554.8250723084766
1010.560075,1716.8812224391477
1014.652013,854.681596824682
1018.737841,375.9854735771391
1022.81757,90.85608200759941
1026.891209,-50.015896942744064
1030.958771,35.080545223260685
1035.020266,122.22086676865246
1039.075705,40.728060297054185
1043.1251,-5.771769014525887
1047.16846,143.40295382796472
1051.205797,391.46364407422465
1055.237121,733.9448683237213
1059.262444,1446.2682769081005
1063.281777,3073.128219459636
1067.295131,6296.751307332411
1071.302515,11032.82973970939
1075.303942,15343.061224911266
1079.299422,16237.466195394047
1083.288966,12654.14602185089
1087.272585,7068.639991907129
1091.250289,2867.030312526174
1095.222091,1003.9581706744583
1099.187999,408.6798871348665
1103.148026,161.8014760023636
1107.102183,28.22481820761297
1111.050479,-39.23860053116786
1114.992927,-14.421650205466136
1118.929536,183.58359147919055
1122.860318,537.3199848954591
1126.785283,1128.9752299838487
1130.704443,2253.5636934309723
1134.617808,3743.893204813333
1138.52539,4694.219638770648
1142.427198,4476.1983320972395
1146.323244,3463.3832026094037
1150.213538,2412.5551803419926
1154.098093,1688.6300957604772
1157.976917,1322.2580182417132
1161.850023,1322.8320040441754
1165.717421,1614.2869094864168
1169.579121,1974.5290130888081
1173.435135,2260.3736568352906
1177.285474,2527.463396774452
1181.130148,2764.6777035850923
1184.969169,2660.1016547783847
1188.802547,2006.748074251099
1192.630292,1143.0983468952775
1196.452416,528.8021174017272
1200.26893,217.55526679402897
1204.079844,44.19365361012085
1207.88517,-45.32897676553803
1211.684917,22.81188546610641
1215.479098,220.57630051324057
1219.267722,290.9821217437731
1223.050801,169.7898162575496
1226.828346,150.13578229672456
1230.600366,291.0247016462362
1234.366874,348.460964432323
1238.12788,319.7786479439461
1241.883395,410.28530924352
1245.633429,577.3827506974654
1249.377994,540.7475875235081
1253.1171,280.4081442200861
1256.850759,111.21070852491536
1260.578981,151.70929593129617
1264.301776,188.0648575584671
1268.019157,76.81699826344375
1271.731133,-45.67087300463173
1275.437715,41.66421143320697
1279.138915,284.59418183418643
1282.834743,341.4584156627315
1286.52521,116.80109348475658
1290.210328,-25.389551271707134
1293.890106,130.95649340246683
1297.564555,318.56407822554155
1301.233688,353.65926679505577
1304.897514,398.9226216241562
1308.556044,461.4486296711708
1312.209289,363.17472933584844
1315.857261,199.62314171281997
1319.499969,175.7367368034595
1323.137425,240.71834544643485
1326.769641,269.4985436458783
1330.396626,227.46350106101264
1334.018391,108.53777336324929
1337.634948,-5.707882383317678
1341.246307,-8.919503080940636
1344.85248,37.804412739152895
1348.453477,11.968059288458804
1352.049309,-5.596617476036187
1355.639987,157.6437397271264
1359.225522,402.42903017350216
1362.805925,491.002112780043
1366.381207,452.98139819657104
1369.951379,468.36861101265305
1373.516452,595.8717048391932
1377.076436,853.2493284835158
1380.631343,1314.9093760675269
1384.181184,1916.055361108709
1387.725969,2282.519206928144
1391.26571,2111.443945974056
1394.800417,1578.418142782697
1398.330102,1018.2055662113067
1401.854776,549.5489890047659
1405.374448,190.6798688331872
1408.889132,-19.28890073324642
1412.398837,7.767033666189718
1415.903574,371.84160749111527
1419.403355,1009.6528539890465
1422.89819,1796.6644577470931
1426.388091,2635.3662307460513
1429.873069,3170.042777498112
1433.353134,3054.71622529973
1436.828298,2501.042988873397
1440.298571,1875.7117923762567
1443.763965,1225.9126132893612
1447.224491,644.4942647844182
1450.68016,370.48664362843164
1454.130983,340.827413141155
1457.576971,329.2136763993136
1461.018135,363.00301622857853
1464.454486,464.8833744277279
1467.886036,470.3836523012811
1471.312794,385.36975015022296
1474.734774,399.47097355085094
1478.151985,546.3375723329492
1481.564439,677.1022448652986
1484.972146,709.6531350089792
1488.375119,745.248731120475
1491.773368,800.4904048950207
1495.166904,651.1047558207723
1498.555739,273.621259429395
1501.939883,-3.4801306359221797
1505.319349,-17.707100563295537
1508.694146,73.40176575024574
1512.064286,108.59348037821002
1515.429781,90.88316443352085
1518.790642,100.36608099050898
1522.146879,93.06308083478663
1525.498505,12.99044223612455
1528.845529,8.195519347384348
1532.187965,179.02109594652848
1535.525822,428.31692876672105
1538.859112,636.498864226988
1542.187846,746.2992524371361
1545.512036,887.8028043635318
1548.831693,1175.2928082234457
1552.146829,1370.2067364770617
1555.457453,1347.805118862765
1558.763579,1432.377649983378
1562.065216,1851.0407182261304
1565.362377,2454.4754132523503
1568.655073,2982.7724306063014
1571.943315,3340.255325258647
1575.227114,3725.5126532090007
1578.506482,4336.877411239748
1581.781431,5066.2891415411095
1585.051971,5755.631984138351
1588.318114,6258.161128837764
1591.579872,6166.641149184882
1594.837255,5202.3286497850095
1598.090275,3758.034220746494
1601.338945,2469.554613235501
1604.583274,1520.861697353848
1607.823275,834.4258506002823
1611.058959,476.9366607356156
1614.290338,392.47909981475914
1617.517422,343.2204412557008
1620.740224,284.50504153000145
1623.958755,229.0089815034114
1627.173027,98.2568002925243
1630.38305,-16.126873616249583
1633.588838,25.865242634229872
1636.7904,120.76542169348303
1639.987749,90.67562726376522
1643.180896,-12.542196836515103
1646.369853,18.12300293266442
1649.554632,123.00771492388148
1652.735244,45.6603941478473
1655.9117,-71.8338062660482
1659.084013,32.55486409502494
1662.252193,106.28168225667687
1665.416254,-26.332903838930843
1668.576205,-19.014055081795068
1671.732059,183.55256652653674
1674.883828,214.1491772372313
1678.031523,72.64763972928763
1681.175157,11.773175895158703
1684.314739,17.930321181867335
1687.450284,1.8009733978551932
1690.581801,-16.930883703530853
1693.709304,-11.4587201302162
1696.832803,35.965507385947085
1699.952311,94.00798530757694
1703.067839,143.34173772982987
1706.179399,230.78443434532647
1709.287003,291.1252075228641
1712.390663,232.11066718210316
1715.49039,158.17697612649866
1718.586197,167.51266683723904
1721.678095,152.83754853988268
1724.766096,27.728379607633887
1727.850213,-70.25178046207307
1730.930456,-27.70410939344896
1734.006838,12.700291135655561
1737.079372,-20.372218554707278
1740.148067,43.274589678263624
1743.212938,189.66348594817387
1746.273996,204.97141479077314
1749.331252,99.98889886615588
1752.384718,19.136746985640855
1755.434408,10.053481673153623
1758.480332,79.03829524772416
1761.522503,115.54546251491037
1764.560933,12.30551043172871
1767.595634,-16.830855420395647
1770.626618,171.02371746672793
1773.653896,264.38904506488933
1776.677482,133.2868419124452
1779.697388,94.50803404962085
1782.713625,218.98327021898206
1785.726205,245.83418173166595
1788.735141,108.95073958258851
1791.740445,-5.983317332293623
1794.742129,68.33616408349812
1797.740206,246.909394617992
1800.734687,276.27357976922366
1803.725585,148.57369519078168
1806.712912,79.23935120281723
1809.69668,89.20932770941874
1812.676902,46.8481551087837
1815.65359,-28.48340444582922
1818.626756,-42.1837436875911
1821.596413,-7.018478977931353
1824.562573,31.277286238868268
1827.525247,43.89503485573912
1830.48445,-9.717810705715147
1833.440192,-74.91611478299444
1836.392487,-45.36863687612596
1839.341347,22.817605612922442
1842.286784,24.088053184583543
1845.22881,10.959411322420557
1848.167439,35.52170139302646
1851.102682,30.403241987344277
1854.034553,-3.0188317317674205
1856.963063,37.190110082817384
1859.888226,125.37710128236044
1862.810053,124.57341472627684
1865.728557,30.808146969970448
1868.643751,-64.6095989511198
1871.555648,-101.40881750090863
1874.46426,-17.530445761337845
1877.369599,113.68717674689881
1880.271679,101.45734902028471
1883.170512,6.576970060310494
1886.06611,23.108807356325983
1888.958487,79.12185733734479
1891.847655,59.84734983281781
1894.733626,42.74105695004552
1897.616414,39.74172825586898
1900.496032,0.731711801126437
1903.372491,5.869875200891414
1906.245805,87.18701493951248
1909.115987,133.56127726278476
1911.983049,104.92846397772087
1914.847004,84.00035742612009
1917.707866,106.91050390779344
1920.565646,97.5522930643236
1923.420359,12.980113044669793
1926.272016,-58.54492053450475
1929.120631,-35.727393855797445
1931.966216,38.666592141610984
1934.808786,96.88440502992037
1937.648351,123.23981886195206
1940.484927,130.48267238422994
1943.318525,204.79023418995683
1946.149158,396.76567251932096
1948.97684,520.9497821580759
1951.801584,426.99503711271876
1954.623403,260.0654927756192
1957.44231,132.22122200599858
1960.258318,5.229655468702873
1963.071439,-46.65488770433531
1965.881688,45.602571012615215
1968.689078,142.00790730187177
1971.493621,126.79507739494395
