Raman shift cm-1,4ATP_10nM_rep2_acc4_processed_intensity
-93.47115107,407.07186333408424
-87.69374369,63.54129097701159
-81.9253076,-58.603467693894146
-76.16582701,103.62950238711426
-70.41528615,124.6688223612918
-64.67366933,-50.99291030944398
-58.94096086,-21.793101735200775
-53.21714512,40.83074641644322
-47.50220652,-2.420155905237775
-41.79612954,86.40017086620641
-36.09889866,210.74937837644572
-30.41049843,161.5331866363431
-24.73091343,50.49806195343569
-19.0601283,128.96838852894297
-13.39812769,147.1431360007718
-7.744896327,-33.13794609785029
-2.100418946,24.235076831681077
3.535319659,109.66434253014144
9.162334658,19.903469162508593
14.78064118,17.76037752528839
20.39025432,-32.826588610494895
25.99118913,9.343732181394653
31.58346061,183.3657334225955
37.16708375,136.26887601101947
42.74207347,35.61432771395354
48.30844468,4.630088888604302
53.86621222,-41.11573572791811
59.41539093,-77.00337048950439
64.95599558,-55.990034483937904
70.48804091,55.80843533318059
76.01154164,30.886918526865696
81.52651243,-27.780239159599397
87.03296792,128.73351310793538
92.5309227,171.06225059596463
98.02039134,30.168184972618768
103.5013884,22.003788434410943
108.9739282,57.15732235990431
114.4380255,6.6569530068062805
119.8936944,154.87642958317775
125.3409495,328.3123192125461
130.779805,108.6553409247875
136.2102753,-89.84917049173482
141.6323747,21.371160164800276
147.0461174,94.36092713839233
152.4515176,12.198393192278896
157.8485895,-64.32544623167857
163.2373472,-57.83724171811126
168.6178049,50.24947156061782
173.9899766,157.1776970885771
179.3538764,91.8664587731381
184.7095182,66.40436886770468
190.0569161,122.83451684761272
195.396084,38.56995228107231
200.7270358,2.793535460131249
206.0497854,-16.629057454024917
211.3643466,-43.40983620514093
216.6707333,49.612501433656085
221.9689593,9.376849687639204
227.2590382,-27.910362496106337
232.5409839,37.75067189502281
237.8148101,-35.836685441650076
243.0805303,-56.60580608789564
248.3381582,11.699193931727368
253.5877075,3.924488926705763
258.8291917,58.08023827549765
264.0626244,104.94105759492935
269.288019,38.39033266972945
274.5053891,31.385732542182254
279.7147481,8.180226570221706
284.9161094,-78.19516343439386
290.1094865,-64.14316935620695
295.2948927,237.30579981235158
300.4723414,847.7840632282248
305.6418459,1460.828477144452
310.8034194,2148.289162843701
315.9570752,2717.5154062415086
321.1028267,2826.063351939371
326.2406869,2871.905296876554
331.370669,2928.3539438369703
336.4927863,3008.020284838461
341.6070517,3101.9301951951243
346.7134786,3135.226834891321
351.8120798,3288.5644406979823
356.9028684,3199.7033493049075
361.9858576,2965.5858639233334
367.0610602,2938.402643782638
372.1284892,2972.5023115839012
377.1881577,3482.250627790548
382.2400784,4952.577251403304
387.2842644,7087.39594529793
392.3207284,8501.06233900142
397.3494833,7967.070329843108
402.370542,6178.425367271357
407.3839172,4352.015964614056
412.3896217,2892.5967517088984
417.3876683,1955.0737049003324
422.3780697,1454.6774674209933
427.3608386,1070.8240330063097
432.3359876,831.5293860506167
437.3035295,861.3554752079197
442.2634769,740.4728936039687
447.2158423,376.59314722438535
452.1606383,241.60421280496462
457.0978776,191.0137136518597
462.0275727,33.149108434838354
466.9497361,-22.27980716770776
471.8643802,2.253988245149685
476.7715176,66.6105124117787
481.6711608,153.0159659936569
486.5633221,201.50719863438735
491.448014,141.03545052819095
496.3252488,-4.072354492338263
501.195039,39.497203077115046
506.0573969,137.87139019270148
510.9123349,15.451860846427167
515.7598651,-73.26182680219404
520.6,-9.52693630974045
525.4327518,145.06389309497047
530.2581327,113.37997670093307
535.076155,-73.84880093240338
539.8868309,56.179671886122264
544.6901726,36.121562522024874
549.4861922,17.10345650929679
554.2749019,317.7381383108961
559.0563139,97.38334987472359
563.8304402,15.689586625424624
568.597293,401.68236571505366
573.3568844,165.85985448654708
578.1092263,-146.72901343496332
582.8543308,18.997610489587558
587.5922101,51.080875629785325
592.322876,-41.631890343620874
597.0463405,-16.905392737347576
601.7626157,14.524746909293405
606.4717135,3.2858100204650853
611.1736458,-32.20482063806217
615.8684246,30.40049615003651
620.5560617,58.65372870798749
625.2365691,-33.35579385730986
629.9099585,141.2328233075094
634.5762419,274.79680580804103
639.2354312,189.80580161870344
643.887538,204.59841737622583
648.5325743,61.55407937023086
653.1705518,48.42841328381769
657.8014823,140.59490767281508
662.4253775,-78.31365141713914
667.0422493,-44.274032501475624
671.6521092,149.47803940437086
676.2549691,42.747914861170166
680.8508407,-26.340861589273317
685.4397355,11.335163171658515
690.0216654,8.53736378399605
694.5966419,148.71915156211793
699.1646767,322.49365322294574
703.7257814,316.5615917714865
708.2799676,267.32126506740855
712.827247,186.59987800240162
717.367631,88.69445325379256
721.9011314,11.667471756702845
726.4277595,-57.11125926276121
730.9475271,-16.74967973759458
735.4604456,48.96472930075542
739.9665264,63.53560941519861
744.4657813,162.94311146839507
748.9582215,158.54230096655763
753.4438587,-52.022376668794
757.9227042,-49.050213340921644
762.3947696,-11.577843891833918
766.8600662,2.1187973359577175
771.3186056,273.95685146550636
775.770399,212.8011842533361
780.215458,-14.597835127289336
784.6537939,56.00387012847157
789.0854181,53.08775672207735
793.510342,256.8380959328198
797.9285769,595.7168980528977
802.3401342,551.8429388083229
806.7450253,538.1622208407651
811.1432614,562.3091663818158
815.5348538,338.9030260802118
819.9198139,205.92875596887933
824.2981531,168.7075481553382
828.6698824,121.2501957277544
833.0350133,88.95709157428385
837.393557,-5.040745953530688
841.7455248,-19.410751700710918
846.0909278,-0.8020012882945764
850.4297774,-16.634585611932607
854.7620848,32.6570092249591
859.0878611,-10.526912431611947
863.4071176,-30.31026107341927
867.7198655,152.45333088124815
872.026116,253.8239447893563
876.3258802,214.44147214287503
880.6191693,179.89421260863708
884.9059946,230.12823970862888
889.186367,293.3249742887469
893.4602979,113.72551948508162
897.7277982,-32.02320429580885
901.9888793,153.01751534761877
906.2435521,347.48669828930537
910.4918277,253.3407116072935
914.7337174,48.529740096447846
918.9692321,191.14730915451622
923.1983831,443.18734376704543
927.4211813,522.4252788183009
931.6376378,590.338927317775
935.8477637,525.5319297978941
940.0515701,534.4354092475073
944.249068,570.7449404331453
948.4402684,494.4210522495405
952.6251825,629.8925880815937
956.8038212,816.353236163473
960.9761955,855.4102626816847
965.1423166,775.0182673204997
969.3021953,738.9259880045767
973.4558427,782.1224220228223
977.6032699,727.5656935681766
981.7444877,649.7711072289713
985.8795072,495.3687929742051
990.0083394,403.90557340578897
994.1309953,549.8511563545974
998.2474857,558.9491927278929
1002.357822,479.505858281021
1006.462014,535.589694356344
1010.560075,399.6316314863057
1014.652013,183.50624312654105
1018.737841,146.7307050714092
1022.81757,37.109545446321846
1026.891209,-72.31758341923627
1030.958771,3.148543870934642
1035.020266,85.54249529754074
1039.075705,62.97943546349224
1043.1251,36.70495943934049
1047.16846,18.396887909993946
1051.205797,-74.25092874038894
1055.237121,-22.01089675470009
1059.262444,169.52035354027478
1063.281777,407.415106701707
1067.295131,1228.6661836764881
1071.302515,2656.287225838498
1075.303942,4039.1636893343825
1079.299422,4663.914205815485
1083.288966,3887.2461650926484
1087.272585,2268.7278595051944
1091.250289,984.2536165058739
1095.222091,360.04654936438715
1099.187999,137.45811720183514
1103.148026,5.999548626586744
1107.102183,-19.12026168529392
1111.050479,88.02052860979262
1114.992927,27.883768649226184
1118.929536,-60.085105665655576
1122.860318,15.667807153935712
1126.785283,51.58739727695654
1130.704443,271.58688663017443
1134.617808,619.8341208037953
1138.52539,816.3077928421121
1142.427198,932.9702185654455
1146.323244,674.7082818855857
1150.213538,374.3341047994801
1154.098093,383.58492085589864
1157.976917,269.1656874775209
1161.850023,225.39978087409753
1165.717421,333.5723187756872
1169.579121,482.12957222370727
1173.435135,704.4778228013831
1177.285474,865.0769502566278
1181.130148,1119.2832808249766
1184.969169,1217.9900784081062
1188.802547,865.6398639861965
1192.630292,446.1453239361645
1196.452416,240.30679232968657
1200.26893,54.45432690437694
1204.079844,-104.15444534425771
1207.88517,-24.754213459941006
1211.684917,14.827188912069772
1215.479098,110.85715817379295
1219.267722,256.1003194694209
1223.050801,17.393464809832874
1226.828346,-106.42117227535184
1230.600366,59.69057125115228
1234.366874,96.91754428664973
1238.12788,58.99501825534399
1241.883395,113.45242421522816
1245.633429,303.04849708278334
1249.377994,276.2673765523012
1253.1171,44.50781191900438
1256.850759,42.99978693054169
1260.578981,54.11652749485764
1264.301776,43.39484187078338
1268.019157,131.2407930417625
1271.731133,-37.85054222221771
1275.437715,-94.71779592120397
1279.138915,214.44240354601908
1282.834743,197.90868131662737
1286.52521,-31.484825385091
1290.210328,-57.96487320896118
1293.890106,3.710503390515427
1297.564555,151.6715457309235
1301.233688,174.621623618012
1304.897514,105.30294863078515
1308.556044,196.4756825173378
1312.209289,64.28056485808901
1315.857261,-159.0136091256725
1319.499969,31.775701974997276
1323.137425,154.691469029774
1326.769641,52.86691110891553
1330.396626,45.386523610397106
1334.018391,31.644049476453816
1337.634948,44.927566196315496
1341.246307,9.117517680523349
1344.85248,-10.680214568412069
1348.453477,7.850563374234525
1352.049309,-110.96846751471625
1355.639987,-13.863659486857799
1359.225522,93.48254372857119
1362.805925,6.2096119341919405
1366.381207,56.64395877432982
1369.951379,-9.768018750112859
1373.516452,59.93871147204118
1377.076436,371.47773184984226
1380.631343,354.39115179595694
1384.181184,371.5381588939001
1387.725969,518.0514465581537
1391.26571,391.34628861885204
1394.800417,269.3113413188099
1398.330102,312.8207665955989
1401.854776,310.2348495427429
1405.374448,171.6887179765327
1408.889132,-6.143951671522302
1412.398837,-121.27705893751765
1415.903574,16.459051613923236
1419.403355,305.37861254347035
1422.89819,336.56469302343737
1426.388091,434.51837212859385
1429.873069,628.056080675859
1433.353134,508.17360419410824
1436.828298,437.3076092740097
1440.298571,356.7676910766274
1443.763965,92.20146234727116
1447.224491,-0.02874326245300196
1450.68016,21.48833089384872
1454.130983,63.983547875750595
1457.576971,121.45611325869379
1461.018135,112.86320083412167
1464.454486,94.51017542558921
1467.886036,19.653337148219578
1471.312794,-79.69663120657452
1474.734774,0.906511802920285
1478.151985,108.90309271216535
1481.564439,59.96029846984533
1484.972146,-6.360722724442315
1488.375119,-40.62510205008667
1491.773368,36.795084640001356
1495.166904,94.58257092158009
1498.555739,-2.1044105577765144
1501.939883,-7.490459057042841
1505.319349,6.156305273011995
1508.694146,12.971662851777339
1512.064286,137.1527458387363
1515.429781,145.8918495296702
1518.790642,132.13224196002574
1522.146879,204.44137755013537
1525.498505,10.107088182409939
1528.845529,-50.938385616195546
1532.187965,248.18039647433682
1535.525822,266.3884695610226
1538.859112,225.87707372986685
1542.187846,232.10703136385297
1545.512036,198.63423475349606
1548.831693,486.9731721044646
1552.146829,576.5218220468583
1555.457453,380.10311134389684
1558.763579,439.72853651960065
1562.065216,655.6458060388933
1565.362377,926.7185534556859
1568.655073,1150.7633878336737
1571.943315,1284.4067825912082
1575.227114,1437.8444675303872
1578.506482,1720.389498262212
1581.781431,2152.9691402196104
1585.051971,2408.6058559770127
1588.318114,2446.5271700592134
1591.579872,2323.874820158688
1594.837255,1833.5957008232513
1598.090275,1162.4788691812403
1601.338945,704.0333909759736
1604.583274,469.0223194298033
1607.823275,184.16563325091747
1611.058959,-15.051398727182372
1614.290338,14.74185907692404
1617.517422,-11.549460240047871
1620.740224,18.16499716927408
1623.958755,122.08798198675092
1627.173027,7.7390521414571865
1630.38305,-51.02366197689622
1633.588838,27.431903632309634
1636.7904,23.85705984167157
1639.987749,76.25803036413151
1643.180896,43.19626314952178
1646.369853,-10.99450153627825
1649.554632,135.92908351079134
1652.735244,58.3216198653243
1655.9117,-101.8981120133821
1659.084013,96.35141119617029
1662.252193,183.46077971401238
1665.416254,-11.632395639042493
1668.576205,3.6796575460726046
1671.732059,99.43625082952124
1674.883828,-1.002301236719135
1678.031523,-9.767012028133454
1681.175157,65.14855850557854
1684.314739,17.1449349116102
1687.450284,-10.554829972002793
1690.581801,-13.759450654766855
1693.709304,-68.24833825084536
1696.832803,-10.845945919214223
1699.952311,46.774764525835465
1703.067839,-19.864535105238456
1706.179399,110.95105397623793
1709.287003,206.64086805848078
1712.390663,8.323208185041615
1715.49039,39.2503302324961
1718.586197,168.86262604583956
1721.678095,52.80651424862215
1724.766096,-56.628833240973734
1727.850213,-87.16574959815362
1730.930456,-6.500524784976701
1734.006838,50.32671177691665
1737.079372,-36.906097428954126
1740.148067,4.605734251184837
1743.212938,95.77584523577313
1746.273996,47.579737997321836
1749.331252,3.930938718662354
1752.384718,13.939498273491076
1755.434408,42.20806267344424
1758.480332,57.6259633770529
1761.522503,16.259000380243943
1764.560933,-91.5641892998039
1767.595634,-98.9536019026101
1770.626618,88.92382218787904
1773.653896,149.03393643292083
1776.677482,30.92792063642737
1779.697388,25.382000510490464
1782.713625,110.27206300299952
1785.726205,172.41687794970107
1788.735141,159.9470497384434
1791.740445,24.720387367769646
1794.742129,-29.528236843780594
1797.740206,117.5946192216531
1800.734687,204.51347032225237
1803.725585,121.13337008528399
1806.712912,31.67545278513009
1809.69668,39.27899238891667
1812.676902,32.72270677543174
1815.65359,-47.21047649352397
1818.626756,-69.69379142055338
1821.596413,-32.85795006831631
1824.562573,46.70497271722837
1827.525247,84.72417041692943
1830.48445,-19.973790781304597
1833.440192,-78.0903148255965
1836.392487,9.06806938433404
1839.341347,52.49307395860215
1842.286784,11.808253420009367
1845.22881,43.90977445669763
1848.167439,67.38354414661852
1851.102682,7.146150782076919
1854.034553,-51.74714500580389
1856.963063,-12.024818351649168
1859.888226,168.91337547549657
1862.810053,146.1923328422365
1865.728557,-2.685058910786161
1868.643751,38.27613563008755
1871.555648,-57.6745079368499
1874.46426,-19.100460239318146
1877.369599,263.22019475699324
1880.271679,122.03243842694764
1883.170512,-38.715712423145284
1886.06611,136.4548948728385
1888.958487,155.8457008418299
1891.847655,64.4213261148758
1894.733626,54.28213997582024
1897.616414,-25.046375081114505
1900.496032,-74.0845231612521
1903.372491,52.72023460655924
1906.245805,138.9129824854796
1909.115987,158.30670020579387
1911.983049,94.32410621308364
1914.847004,21.950444518660948
1917.707866,122.61513592487977
1920.565646,18.666477361287114
1923.420359,-99.86809767463221
1926.272016,20.391666579402848
1929.120631,-31.73505016794559
1931.966216,-27.500885162894768
1934.808786,60.884460832705
1937.648351,1.533969445992812
1940.484927,13.147901435595381
1943.318525,20.301769688449085
1946.149158,155.1313795020475
1948.97684,376.74312630305053
1951.801584,206.585714381042
1954.623403,24.592645001875532
1957.44231,52.01574396745518
1960.258318,-69.50968924237928
1963.071439,-100.08968469260245
1965.881688,48.135054275787255
1968.689078,64.45099371527583
1971.493621,-31.78556813748437
