Raman shift cm-1,4ATP_100uM_rep1_acc1_processed_intensity
-93.47115107,307.9237340089295
-87.69374369,45.04382093631214
-81.9253076,-28.108054036666502
-76.16582701,64.46881084400911
-70.41528615,120.79692876336416
-64.67366933,-65.16097690425097
-58.94096086,-52.116197035447286
-53.21714512,-52.990019205309096
-47.50220652,24.138806008999786
-41.79612954,249.88830761306102
-36.09889866,218.54247854541782
-30.41049843,151.52785313716285
-24.73091343,129.05659039419365
-19.0601283,9.545206233355927
-13.39812769,86.91529379040017
-7.744896327,29.233145268799525
-2.100418946,-72.50432178651172
3.535319659,144.2185414952886
9.162334658,23.21013188666155
14.78064118,12.482126599926076
20.39025432,33.26591928371996
25.99118913,-5.656883573738341
31.58346061,300.08168951017865
37.16708375,258.2580505953483
42.74207347,50.681808984112166
48.30844468,11.101760946965396
53.86621222,-37.28398772317964
59.41539093,-83.62526080891939
64.95599558,-51.5434720410337
70.48804091,159.57328700694484
76.01154164,131.01251850939906
81.52651243,-25.27952917386075
87.03296792,186.64918064030826
92.5309227,238.81309014329358
98.02039134,26.238633348348706
103.5013884,59.760791709722625
108.9739282,154.7359137759652
114.4380255,-3.9462399069090797
119.8936944,69.36238261715235
125.3409495,210.44488719154052
130.779805,22.48290668341434
136.2102753,-68.71640567916485
141.6323747,-84.46283829151439
147.0461174,28.757661721277167
152.4515176,28.72653154069243
157.8485895,-93.4222341748321
163.2373472,4.519274514036731
168.6178049,85.53663868494382
173.9899766,115.49401501251273
179.3538764,79.81374239879591
184.7095182,134.21550757605797
190.0569161,260.0134555165595
195.396084,144.66296797882072
200.7270358,-14.581243788586702
206.0497854,-92.71741691778516
211.3643466,-69.73583793624631
216.6707333,67.51216290451688
221.9689593,63.6343330138118
227.2590382,11.116030973847836
232.5409839,-22.975195114598982
237.8148101,38.61441438404258
243.0805303,75.71596800796166
248.3381582,-4.935075738090035
253.5877075,13.594454315811717
258.8291917,-20.88958367602556
264.0626244,0.8496295619361973
269.288019,-32.67202336217076
274.5053891,-52.6734779408199
279.7147481,-51.855145133704575
284.9161094,-1.5672818864910454
290.1094865,424.766879473444
295.2948927,1865.7193648538703
300.4723414,5680.915536871238
305.6418459,11318.421299297786
310.8034194,16468.93627336352
315.9570752,19306.981353144107
321.1028267,20185.24887907748
326.2406869,20455.61542249621
331.370669,21114.24469983572
336.4927863,21998.386308766174
341.6070517,22461.36605489425
346.7134786,22939.78339751783
351.8120798,22809.005088474412
356.9028684,22182.036317892424
361.9858576,21700.454350097716
367.0610602,21244.288001444893
372.1284892,20931.62679855886
377.1881577,20909.901141307786
382.2400784,21265.669875911728
387.2842644,22351.982566135553
392.3207284,24066.223408237114
397.3494833,24418.079265945773
402.370542,23783.49744264002
407.3839172,22784.655303254818
412.3896217,21231.844518177313
417.3876683,20381.342326134
422.3780697,19157.709724059034
427.3608386,18041.08428224797
432.3359876,17440.5113339699
437.3035295,16840.325065755478
442.2634769,16573.241263858756
447.2158423,15519.483685841566
452.1606383,14639.950411718728
457.0978776,13942.837946715481
462.0275727,13243.250122640131
466.9497361,13166.159825360119
471.8643802,12969.488049588414
476.7715176,13078.36958124871
481.6711608,13663.153828215458
486.5633221,14312.308148745262
491.448014,14189.101277596137
496.3252488,13343.419404314109
501.195039,12497.974738075216
506.0573969,11230.341799020836
510.9123349,9984.361787411768
515.7598651,9223.401715954347
520.6,8638.698825638337
525.4327518,8384.125112315654
530.2581327,7847.9981046835965
535.076155,7244.379217137666
539.8868309,7161.847653207482
544.6901726,6821.516852977858
549.4861922,6410.856162918431
554.2749019,6061.212831570787
559.0563139,5244.31149127776
563.8304402,4614.7871644102215
568.597293,4756.2889082247475
573.3568844,4497.202609596816
578.1092263,3983.292213254397
582.8543308,4135.528085335411
587.5922101,4098.1295587458535
592.322876,3967.175510201914
597.0463405,3979.689833500548
601.7626157,3614.583777868629
606.4717135,3105.6800517946776
611.1736458,2686.507513343531
615.8684246,2349.244593159783
620.5560617,2105.0074750484637
625.2365691,1847.1589935285901
629.9099585,1702.7087960769313
634.5762419,1640.5883405681961
639.2354312,1556.652153021365
643.887538,1561.598814471583
648.5325743,1115.6408358280787
653.1705518,801.9045759455857
657.8014823,621.6190638876051
662.4253775,30.84658329681588
667.0422493,189.1060310857265
671.6521092,306.74117880494305
676.2549691,174.8168906786359
680.8508407,88.58679974743245
685.4397355,-82.82778490013152
690.0216654,27.662539666142038
694.5966419,5.210464029578361
699.1646767,210.30968731689063
703.7257814,373.5595589102395
708.2799676,806.2539459332893
712.827247,1538.1274932396354
717.367631,2059.2300201077887
721.9011314,2086.178634595859
726.4277595,1674.9486024933403
730.9475271,1365.8380943761904
735.4604456,870.7619399553132
739.9665264,769.2753812161291
744.4657813,892.7722885517915
748.9582215,934.4243019652959
753.4438587,603.8336492764947
757.9227042,338.80801391493605
762.3947696,352.84872535725026
766.8600662,127.00743283069914
771.3186056,230.29637218092284
775.770399,22.815383097132326
780.215458,18.247420186541603
784.6537939,76.05981019002138
789.0854181,-150.25997140993059
793.510342,156.71263388148236
797.9285769,253.99470767975072
802.3401342,290.70047041115413
806.7450253,560.5988998810894
811.1432614,604.5271735250803
815.5348538,577.0230525784054
819.9198139,651.387014274475
824.2981531,865.1340610737193
828.6698824,956.9633930325053
833.0350133,762.3798427300339
837.393557,846.9597342119855
841.7455248,1139.3176457930108
846.0909278,1385.965076585198
850.4297774,1442.218707927883
854.7620848,1232.2720664381586
859.0878611,1104.053045945697
863.4071176,1053.9052252707636
867.7198655,1011.5459066655226
872.026116,943.4474280585696
876.3258802,761.243536843866
880.6191693,528.6711370236249
884.9059946,532.8076159945002
889.186367,412.96825195234317
893.4602979,-0.6639886181687871
897.7277982,-44.39521747846209
901.9888793,302.0240057196472
906.2435521,465.05145817984146
910.4918277,473.22075311460964
914.7337174,503.9209939973982
918.9692321,886.5664395702304
923.1983831,1269.24111426861
927.4211813,1227.0330461129247
931.6376378,1463.2139604846534
935.8477637,1325.4888716213054
940.0515701,1139.7454995102837
944.249068,1031.7333423146129
948.4402684,641.000488949343
952.6251825,673.2881653500626
956.8038212,701.161189704478
960.9761955,730.0408724735729
965.1423166,529.1694852319845
969.3021953,301.338881097001
973.4558427,236.4072610215599
977.6032699,31.891934154594157
981.7444877,30.151762040864927
985.8795072,81.06752433295541
990.0083394,-98.63929767834787
994.1309953,-38.7890299086532
998.2474857,428.5612377532408
1002.357822,1068.7262612848388
1006.462014,2202.090104696221
1010.560075,3234.2239497869737
1014.652013,3495.3486539807245
1018.737841,2663.0745031008946
1022.81757,1524.8389480305143
1026.891209,888.777000116076
1030.958771,423.94786525151085
1035.020266,234.57256616695383
1039.075705,-13.317487850151764
1043.1251,42.79998236991713
1047.16846,483.27875694298575
1051.205797,872.0674985861873
1055.237121,1712.3979049599632
1059.262444,3479.775756511411
1063.281777,6901.291989629849
1067.295131,12465.753210611108
1071.302515,18535.67274984223
1075.303942,22836.4590154364
1079.299422,24263.577346089558
1083.288966,21767.67385885689
1087.272585,16226.99474182192
1091.250289,10933.961977401557
1095.222091,6921.291554497915
1099.187999,3997.304831968352
1103.148026,2989.149788224551
1107.102183,2655.0449822342225
1111.050479,2654.7511550622717
1114.992927,3315.408630313424
1118.929536,4135.372184956925
1122.860318,5640.990201836527
1126.785283,7960.808452967178
1130.704443,12085.753972970826
1134.617808,18523.82147476795
1138.52539,26293.78785153632
1142.427198,31086.55225608944
1146.323244,31113.555627807364
1150.213538,31489.8355675429
1154.098093,29376.940955871465
1157.976917,21308.663530156653
1161.850023,14159.727931299736
1165.717421,9795.484017686987
1169.579121,7244.495652705322
1173.435135,6494.588176552887
1177.285474,5500.36657229087
1181.130148,5496.6557047371325
1184.969169,5654.1096127679475
1188.802547,5334.485466477371
1192.630292,5474.089544056072
1196.452416,5038.2246745964
1200.26893,4108.283553232569
1204.079844,2366.2255719265077
1207.88517,1253.9674718579647
1211.684917,808.9876257560825
1215.479098,352.42442046450884
1219.267722,569.3663898861707
1223.050801,36.87774362403704
1226.828346,36.95452188603271
1230.600366,299.31767823133
1234.366874,-66.03963546566654
1238.12788,322.65631524872896
1241.883395,263.45401777215153
1245.633429,246.91187860471433
1249.377994,450.4861583733324
1253.1171,475.1602099288716
1256.850759,642.9829600186891
1260.578981,392.06152025071003
1264.301776,377.56221076746954
1268.019157,244.75100764123195
1271.731133,37.57373298201084
1275.437715,44.90185457261909
1279.138915,90.5182336704618
1282.834743,193.8982734209298
1286.52521,-118.1710824385702
1290.210328,-223.48926518763307
1293.890106,71.25471358041051
1297.564555,553.1266451565939
1301.233688,1258.942387739352
1304.897514,1777.6610254452817
1308.556044,2087.142912716361
1312.209289,2070.0515729511208
1315.857261,1324.5037530713903
1319.499969,1023.5104888180276
1323.137425,988.5403463294265
1326.769641,452.2734550149546
1330.396626,450.30456186197443
1334.018391,216.01051606218493
1337.634948,25.303608541330732
1341.246307,144.360678280181
1344.85248,68.72872359015219
1348.453477,598.190249822245
1352.049309,995.9591467784626
1355.639987,1496.6480986760016
1359.225522,2196.805957438166
1362.805925,2099.789376329446
1366.381207,2374.8359639298415
1369.951379,2777.937796331663
1373.516452,2828.2890668155464
1377.076436,3372.4651788442807
1380.631343,3900.8933853743483
1384.181184,5219.243325660618
1387.725969,7487.785680985907
1391.26571,9867.38325454389
1394.800417,11539.58376264345
1398.330102,11502.986202624445
1401.854776,9606.179922522113
1405.374448,6086.83234963406
1408.889132,3355.722419626148
1412.398837,2030.999436680068
1415.903574,1890.4345963753412
1419.403355,3253.845757143772
1422.89819,4919.0426387854895
1426.388091,7630.183388136515
1429.873069,11619.774986635799
1433.353134,15788.935438410364
1436.828298,19551.989911229866
1440.298571,21951.474404436456
1443.763965,22937.02557722843
1447.224491,22253.748733188142
1450.68016,19559.983336453915
1454.130983,15957.950156879242
1457.576971,12061.085403414261
1461.018135,8746.976138186834
1464.454486,6462.915746722386
1467.886036,4941.510324333443
1471.312794,4310.59640117341
1474.734774,4332.04148424226
1478.151985,4396.554910207107
1481.564439,3661.9125654985287
1484.972146,2426.773993586215
1488.375119,1345.9357908495617
1491.773368,933.1679278396723
1495.166904,769.1797676487959
1498.555739,442.64263842146283
1501.939883,272.5753309331112
1505.319349,-11.664600150028036
1508.694146,-98.32848173354432
1512.064286,34.02386848451988
1515.429781,169.77344694161866
1518.790642,6.1587364094648365
1522.146879,64.45834313361047
1525.498505,172.83599789201708
1528.845529,13.845403622144204
1532.187965,702.0209938146577
1535.525822,1139.1200488968461
1538.859112,1332.0664161318796
1542.187846,1776.6025730744486
1545.512036,2200.4894464760773
1548.831693,2976.5600668114935
1552.146829,3543.473166842335
1555.457453,3954.46547061955
1558.763579,4552.13374749721
1562.065216,5605.015697812478
1565.362377,6718.920908896458
1568.655073,7827.252114343042
1571.943315,8824.994525838338
1575.227114,9457.515022393645
1578.506482,10127.730539762957
1581.781431,9979.496629098636
1585.051971,9031.045097263723
1588.318114,8019.291630905814
1591.579872,6924.184044445833
1594.837255,5845.52456676789
1598.090275,4966.9904495125365
1601.338945,4221.436273665493
1604.583274,3495.669746233108
1607.823275,2757.235921591345
1611.058959,1891.6376771158152
1614.290338,1302.6583163375194
1617.517422,1283.0268902842195
1620.740224,1357.4470832609977
1623.958755,1196.5584638936698
1627.173027,868.132740798723
1630.38305,696.6236157523571
1633.588838,717.6573890883542
1636.7904,556.874518694568
1639.987749,598.5609872186684
1643.180896,519.8893461505318
1646.369853,256.36176507872005
1649.554632,467.1272707252213
1652.735244,288.8677681681826
1655.9117,-64.45721061696929
1659.084013,43.80132361397085
1662.252193,-19.150761679732966
1665.416254,-44.0799701850913
1668.576205,67.59434856798208
1671.732059,34.67575865910679
1674.883828,71.2905847381399
1678.031523,31.48372334680856
1681.175157,-50.64673618419137
1684.314739,-89.37765191114794
1687.450284,-57.67643890717932
1690.581801,10.58447543512436
1693.709304,-39.432012395181935
1696.832803,-49.76798521710384
1699.952311,1.5549903055221606
1703.067839,56.322741853066255
1706.179399,162.20024792783283
1709.287003,209.64849546828063
1712.390663,57.42877699813128
1715.49039,36.74695046828854
1718.586197,61.8350183401472
1721.678095,119.41940126771495
1724.766096,125.95371530538917
1727.850213,-40.54779666889716
1730.930456,-19.020818615320778
1734.006838,-17.8510495439751
1737.079372,-65.33976390614757
1740.148067,35.44269499160478
1743.212938,210.1729337732361
1746.273996,147.42386839298285
1749.331252,53.56544436088344
1752.384718,57.62251678623605
1755.434408,2.09264689665104
1758.480332,75.00515790527322
1761.522503,146.6169691134175
1764.560933,-58.533475751976425
1767.595634,-244.2141989388034
1770.626618,13.207672929020681
1773.653896,140.5110395629
1776.677482,3.615167338947181
1779.697388,8.195133304150067
1782.713625,61.7586743847328
1785.726205,75.20558379804447
1788.735141,36.84078164846891
1791.740445,-11.105424433097504
1794.742129,-28.137552850389277
1797.740206,116.9907970507588
1800.734687,261.5555611904556
1803.725585,228.90776890570632
1806.712912,166.09468507369854
1809.69668,78.31797931260996
1812.676902,11.188206120971028
1815.65359,-81.20693148976154
1818.626756,-98.28734576093711
1821.596413,13.172036076111706
1824.562573,50.02677323160706
1827.525247,106.53228446241178
1830.48445,41.901095939956235
1833.440192,-43.39030765604482
1836.392487,30.751234401478325
1839.341347,-22.831528077607196
1842.286784,-47.163208456915825
1845.22881,59.35621467788893
1848.167439,169.6744111349579
1851.102682,121.46080935847925
1854.034553,-25.978952165814174
1856.963063,133.5610324129816
1859.888226,269.6810879328959
1862.810053,194.96586744001954
1865.728557,74.8053438531279
1868.643751,56.732832440223525
1871.555648,9.180517145068206
1874.46426,-138.71659794718784
1877.369599,136.88774132471116
1880.271679,121.03728129050681
1883.170512,-8.825877139332476
1886.06611,241.8023703969395
1888.958487,84.33112287217077
1891.847655,-64.97769206766193
1894.733626,6.4764485191483185
1897.616414,-18.08436563330855
1900.496032,-42.12677841853892
1903.372491,40.36979242114146
1906.245805,151.62316727475636
1909.115987,228.23091710545668
1911.983049,123.55254937672667
1914.847004,57.38437886654369
1917.707866,182.28223090129086
1920.565646,28.564023020058215
1923.420359,-74.10759739485108
1926.272016,-24.90484249806553
1929.120631,2.974875450991399
1931.966216,27.199041233846813
1934.808786,68.258463644024
1937.648351,4.772193825046837
1940.484927,-136.40866531304093
1943.318525,49.50231178218476
1946.149158,243.16495731086235
1948.97684,338.9906693613579
1951.801584,249.29122030683897
1954.623403,28.666873619773426
1957.44231,5.086947048580713
1960.258318,-6.8311994784315555
1963.071439,-44.67876463683683
1965.881688,26.12210386264957
1968.689078,77.37065322800225
1971.493621,-66.77965704639365
