Raman shift cm-1,4ATP_10uM_rep1_acc3_processed_intensity
-93.47115107,447.05271901616186
-87.69374369,77.18906123624325
-81.9253076,-59.10762948803657
-76.16582701,39.50486527471751
-70.41528615,22.72224105010779
-64.67366933,-51.78996377729755
-58.94096086,-7.567866362569542
-53.21714512,-46.769673161669694
-47.50220652,-101.72447729769293
-41.79612954,6.967079275138772
-36.09889866,185.51937909998202
-30.41049843,210.40417587316108
-24.73091343,99.96206339188151
-19.0601283,136.11397469443244
-13.39812769,96.08655259919767
-7.744896327,-84.67438772635876
-2.100418946,-7.964933683390896
3.535319659,64.27881075368565
9.162334658,-13.541508216567763
14.78064118,-1.252544598179881
20.39025432,-23.939101088633123
25.99118913,15.232374593127531
31.58346061,166.69374912416012
37.16708375,88.62609765804615
42.74207347,-55.822673790436255
48.30844468,51.569640463932586
53.86621222,38.061555735440834
59.41539093,-181.47536684998036
64.95599558,-66.38755083289954
70.48804091,193.67798738853966
76.01154164,74.2777240625214
81.52651243,-37.2919138924899
87.03296792,145.807786767746
92.5309227,183.43424639677045
98.02039134,41.71057880382375
103.5013884,8.600397314314897
108.9739282,15.329617068153155
114.4380255,2.035824528586474
119.8936944,175.44600818927745
125.3409495,338.3015684417604
130.779805,98.79807782313783
136.2102753,-142.1765963427639
141.6323747,-40.02574576415557
147.0461174,116.52179975908882
152.4515176,86.25176572329804
157.8485895,-95.65096917447642
163.2373472,-138.19742240767417
168.6178049,50.306942519753704
173.9899766,173.88206258290234
179.3538764,67.10700129082008
184.7095182,22.648623908596115
190.0569161,176.0533528565357
195.396084,147.06358030877178
200.7270358,-12.256060193653937
206.0497854,-8.830329951030288
211.3643466,41.86355850101364
216.6707333,40.35283351971463
221.9689593,-23.017294373252703
227.2590382,-19.276717023026567
232.5409839,19.187781217330436
237.8148101,-26.407024922567444
243.0805303,-28.171821541452765
248.3381582,-49.332513819845865
253.5877075,-18.251633415764633
258.8291917,76.64522027963795
264.0626244,29.127887450481808
269.288019,48.881379810782406
274.5053891,96.78673990482594
279.7147481,-18.33901003450731
284.9161094,-101.64198615696363
290.1094865,-126.38358399332287
295.2948927,268.5964783339225
300.4723414,1311.7709277364443
305.6418459,2334.201136970543
310.8034194,3357.497072844766
315.9570752,4376.789059118202
321.1028267,4705.001467998374
326.2406869,4875.009138308964
331.370669,5218.3139848219425
336.4927863,5182.363679535548
341.6070517,5150.794341462315
346.7134786,5369.586186171481
351.8120798,5401.676081491361
356.9028684,5312.429590993948
361.9858576,5430.136773989805
367.0610602,5850.211085300591
372.1284892,6941.874442433489
377.1881577,9880.129366695728
382.2400784,15504.189177497896
387.2842644,21437.660015762158
392.3207284,22787.718706250067
397.3494833,18692.513614456177
402.370542,13387.38586341585
407.3839172,9394.78895085568
412.3896217,6496.288203205024
417.3876683,4713.5295597445065
422.3780697,3615.2568371024286
427.3608386,2838.1500652841355
432.3359876,2709.48170527958
437.3035295,2752.073106519692
442.2634769,2239.428315333421
447.2158423,1438.6228696316853
452.1606383,835.518741352782
457.0978776,354.5787604397078
462.0275727,44.24564378667719
466.9497361,-44.82812535526318
471.8643802,-57.23356131098444
476.7715176,174.5689421819011
481.6711608,538.0552898374835
486.5633221,627.5205938023169
491.448014,358.32001491484743
496.3252488,79.2842033062152
501.195039,93.56577529166225
506.0573969,160.83814110163985
510.9123349,95.52007616038418
515.7598651,6.617840622267522
520.6,84.70167953395412
525.4327518,330.5997189889181
530.2581327,212.25577910275751
535.076155,-8.944482326616708
539.8868309,211.80974084254422
544.6901726,111.24141830082817
549.4861922,-102.14675558685622
554.2749019,50.11566786491085
559.0563139,-189.27236921437043
563.8304402,-258.7029610907066
568.597293,190.79395762903823
573.3568844,165.2387104129216
578.1092263,-68.29622783980676
582.8543308,97.0650170134586
587.5922101,153.5806375695911
592.322876,-0.10545509256826335
597.0463405,64.83824377623591
601.7626157,113.85008625134378
606.4717135,-5.0653946909426395
611.1736458,-93.51802839335119
615.8684246,-69.00212475445733
620.5560617,76.20757746972072
625.2365691,388.2651425778165
629.9099585,1056.428151525753
634.5762419,1670.480107881495
639.2354312,1737.1066550664732
643.887538,1248.625726923359
648.5325743,541.4236941044314
653.1705518,280.7536576659188
657.8014823,244.23398475068166
662.4253775,72.89247722405798
667.0422493,-41.976806477875016
671.6521092,-64.36920892653825
676.2549691,27.027452051868067
680.8508407,1.6705069159504546
685.4397355,-51.32135098547292
690.0216654,68.81606683169935
694.5966419,306.0565237005419
699.1646767,700.1420534662536
703.7257814,918.1166281855621
708.2799676,903.0167019522305
712.827247,990.1468723641265
717.367631,980.0954459631737
721.9011314,566.8762057114964
726.4277595,111.11947964520186
730.9475271,26.90917621311246
735.4604456,194.82729055703544
739.9665264,258.5651735710803
744.4657813,180.3401243484609
748.9582215,200.0754077108702
753.4438587,88.17158690116025
757.9227042,-157.740246673221
762.3947696,-236.66303434511212
766.8600662,-61.361591570095015
771.3186056,184.97280819704417
775.770399,106.52423774297324
780.215458,68.13332203445896
784.6537939,89.4092312108254
789.0854181,28.189777543687683
793.510342,515.4421819607331
797.9285769,1100.6978589236915
802.3401342,1289.3546931680426
806.7450253,1447.815681564212
811.1432614,1430.0153944120862
815.5348538,1243.6450700211765
819.9198139,1066.5339525126014
824.2981531,834.203589602962
828.6698824,618.3390656653164
833.0350133,365.131955575009
837.393557,229.11790520972073
841.7455248,268.89695874023425
846.0909278,173.53236103038202
850.4297774,38.37563102644012
854.7620848,-12.100116284192055
859.0878611,1.1575481447265332
863.4071176,14.947875570373437
867.7198655,23.64920602652509
872.026116,259.5248818961346
876.3258802,315.13448587523106
880.6191693,74.6911805050431
884.9059946,185.3121731503905
889.186367,184.79965576255196
893.4602979,-221.0924753294718
897.7277982,-274.4419972036074
901.9888793,-47.6593096694819
906.2435521,80.72435213132371
910.4918277,49.352700179926956
914.7337174,-19.83134556839491
918.9692321,172.12802439232166
923.1983831,222.0666984028444
927.4211813,99.90628054957688
931.6376378,71.38955372307305
935.8477637,-65.27031344930924
940.0515701,6.6007034413960355
944.249068,32.66437627114101
948.4402684,-114.95263958234523
952.6251825,3.371389633077797
956.8038212,87.00984793219072
960.9761955,97.0794177473897
965.1423166,51.23432526043598
969.3021953,77.57825321689711
973.4558427,237.27104111615654
977.6032699,73.19230527943864
981.7444877,33.97852077381822
985.8795072,303.5366364460865
990.0083394,406.12027020539176
994.1309953,849.1980822211185
998.2474857,1886.2241300432902
1002.357822,3079.9702565480993
1006.462014,3538.585852115805
1010.560075,2356.1006664273855
1014.652013,791.3030296393231
1018.737841,162.35052538348543
1022.81757,-53.82869093274667
1026.891209,-150.0952203846731
1030.958771,-113.14725403375212
1035.020266,-33.35285246816716
1039.075705,-26.315057558514127
1043.1251,110.4615065645662
1047.16846,575.6589971751324
1051.205797,978.6934187473477
1055.237121,1806.313275690507
1059.262444,3527.9647632991337
1063.281777,6490.300968114706
1067.295131,11791.560868361854
1071.302515,18507.252646524787
1075.303942,24191.490933113055
1079.299422,25192.35124659388
1083.288966,19036.923225931554
1087.272585,10385.477345182611
1091.250289,4598.847047548623
1095.222091,1656.5913297014586
1099.187999,534.4514550705107
1103.148026,243.0183036147323
1107.102183,15.640358137118255
1111.050479,58.87991167470568
1114.992927,217.44785970875932
1118.929536,590.7577397616933
1122.860318,1528.1018843982656
1126.785283,2882.98595626359
1130.704443,5319.660314124025
1134.617808,8714.139402148667
1138.52539,10860.007928934192
1142.427198,10548.097963626224
1146.323244,8229.867659661892
1150.213538,5648.202058668545
1154.098093,4300.033520334391
1157.976917,3604.9352350710133
1161.850023,3505.4743518112036
1165.717421,4090.3929528731405
1169.579121,4452.003579969046
1173.435135,4414.117944883497
1177.285474,4218.59244038242
1181.130148,4087.5743951049576
1184.969169,3784.9378123529214
1188.802547,2965.960552262609
1192.630292,1916.1612730686168
1196.452416,1022.4328043915876
1200.26893,376.0829681563621
1204.079844,-41.19913829051325
1207.88517,-44.56490778465229
1211.684917,19.59920696995391
1215.479098,144.54043528639943
1219.267722,362.0574646936103
1223.050801,44.015727634549194
1226.828346,-116.1678481688428
1230.600366,107.91763085220924
1234.366874,88.03727625862888
1238.12788,58.02898699635978
1241.883395,83.38341017229214
1245.633429,226.53968615219517
1249.377994,190.67126270695286
1253.1171,-118.57411401148948
1256.850759,-102.0210383587765
1260.578981,-17.368553408787804
1264.301776,6.111772616223924
1268.019157,68.09352894870243
1271.731133,-75.3660208924075
1275.437715,-31.031564688142034
1279.138915,230.83750535203743
1282.834743,182.71943999840505
1286.52521,-37.99921513248249
1290.210328,52.631181435405175
1293.890106,447.10694266778063
1297.564555,696.8643481699469
1301.233688,719.8342821120111
1304.897514,664.0911540073201
1308.556044,572.6495063826841
1312.209289,311.8129222378501
1315.857261,-28.027171141549502
1319.499969,78.2211156081323
1323.137425,165.83972956116037
1326.769641,-60.10795560609472
1330.396626,-28.178908040430798
1334.018391,43.18650437925862
1337.634948,19.07953831531529
1341.246307,43.88701506974121
1344.85248,184.38612834705685
1348.453477,349.6984246529774
1352.049309,366.29717106869066
1355.639987,611.673792965767
1359.225522,846.5715297632938
1362.805925,782.1852780968535
1366.381207,888.0260957410653
1369.951379,1107.3184968426654
1373.516452,1383.8197325192402
1377.076436,1994.248264631101
1380.631343,2881.0352231375
1384.181184,3903.3301157980773
1387.725969,4606.960563445672
1391.26571,4164.477835824696
1394.800417,2799.1534005295653
1398.330102,1519.7555981754736
1401.854776,526.5776037442571
1405.374448,-36.88876138602711
1408.889132,-86.00105311152339
1412.398837,33.90865769782795
1415.903574,861.5432090437026
1419.403355,2419.062538666378
1422.89819,3784.2976852213833
1426.388091,5066.993094253749
1429.873069,5937.9409035569415
1433.353134,5645.0332055969875
1436.828298,4643.502880147687
1440.298571,3398.50702325143
1443.763965,2224.558880393143
1447.224491,1316.3924454477801
1450.68016,653.363139891844
1454.130983,299.4496070448736
1457.576971,87.3706664327924
1461.018135,68.02921137440717
1464.454486,225.49070260777614
1467.886036,305.88509797574716
1471.312794,310.8796525310627
1474.734774,365.6801958943214
1478.151985,461.3197182872053
1481.564439,530.2757599657523
1484.972146,700.7283672799621
1488.375119,948.9824204028457
1491.773368,988.6502538206946
1495.166904,554.002639417361
1498.555739,36.86252891613458
1501.939883,-35.233915776198614
1505.319349,-93.3714691679765
1508.694146,-173.06678139214566
1512.064286,44.81146816092436
1515.429781,82.3551190410771
1518.790642,20.649741059398565
1522.146879,240.61650140397666
1525.498505,351.6409948395632
1528.845529,527.6638184713485
1532.187965,1036.90743913708
1535.525822,1517.132469490563
1538.859112,2020.8219025508386
1542.187846,2480.128481312183
1545.512036,2968.9639672922503
1548.831693,3568.4756432759154
1552.146829,3653.356456649783
1555.457453,3455.615322836597
1558.763579,3632.809801385466
1562.065216,4122.738496697469
1565.362377,4625.39040721673
1568.655073,5071.638894193655
1571.943315,5448.379943748462
1575.227114,5479.891848490749
1578.506482,5674.797576268359
1581.781431,6298.0417707665565
1585.051971,6834.169182470176
1588.318114,7312.605439423812
1591.579872,7333.941603438757
1594.837255,6537.029240292816
1598.090275,4978.684192849453
1601.338945,3253.3989674409527
1604.583274,2131.9581167221863
1607.823275,1159.9040824466524
1611.058959,772.1668533324417
1614.290338,924.8046828232976
1617.517422,471.8773201121867
1620.740224,219.90579213124147
1623.958755,312.69015595936673
1627.173027,82.53636795041956
1630.38305,46.94048591155553
1633.588838,79.77610858953369
1636.7904,-70.46208009464027
1639.987749,11.931961896130588
1643.180896,31.393412018198404
1646.369853,-118.54253615197817
1649.554632,71.42071246106977
1652.735244,54.50454558374186
1655.9117,-216.40707006360978
1659.084013,33.41521741089238
1662.252193,162.78360269361352
1665.416254,-93.71739378071966
1668.576205,13.33551375596019
1671.732059,207.7639533002261
1674.883828,75.05786577531877
1678.031523,-6.506940783548831
1681.175157,49.88228426406147
1684.314739,-47.876951906872726
1687.450284,-84.96079369925198
1690.581801,90.61114693297083
1693.709304,40.35013449544147
1696.832803,-102.45948455986773
1699.952311,-6.689153116827828
1703.067839,12.971140623136932
1706.179399,55.491843040683456
1709.287003,181.85386960119155
1712.390663,64.79835558683686
1715.49039,-0.3744178927363322
1718.586197,77.58447230526065
1721.678095,41.438758928542754
1724.766096,-33.43761697917472
1727.850213,-91.19624282226822
1730.930456,-34.3441214086261
1734.006838,3.326143026690369
1737.079372,-116.81734839038174
1740.148067,14.437557480247023
1743.212938,217.45452150211204
1746.273996,65.1349910105141
1749.331252,-35.053759945417426
1752.384718,50.37674856142125
1755.434408,28.30788647187005
1758.480332,3.9879762154267553
1761.522503,89.6263041868887
1764.560933,-14.496619442069317
1767.595634,-152.90876418203936
1770.626618,60.46040303966802
1773.653896,71.28670192611037
1776.677482,-161.07355285378407
1779.697388,5.306239330931177
1782.713625,190.0871905387698
1785.726205,103.90247491076643
1788.735141,72.56178618915874
1791.740445,-47.628128073230826
1794.742129,-171.10401547636633
1797.740206,69.05314902778156
1800.734687,233.44936656405196
1803.725585,86.6758519693347
1806.712912,60.41142431807363
1809.69668,77.29171654711475
1812.676902,-34.891703762337706
1815.65359,-117.2018543156018
1818.626756,-72.73396637301275
1821.596413,8.273535339395224
1824.562573,-11.498264280800022
1827.525247,24.34995024978911
1830.48445,77.9634210663237
1833.440192,-43.0098142156601
1836.392487,-61.142727847254264
1839.341347,65.83912600623677
1842.286784,10.2414205113743
1845.22881,-42.26831374938954
1848.167439,78.81932707073766
1851.102682,38.8215948431104
1854.034553,-98.23538287159737
1856.963063,22.13964255370133
1859.888226,251.01747067937146
1862.810053,202.4902458701618
1865.728557,22.919248145599944
1868.643751,38.81977051614115
1871.555648,-35.131103191349396
1874.46426,-135.2986823183885
1877.369599,17.758411114137832
1880.271679,20.789160610733628
1883.170512,-44.67024916915528
1886.06611,69.20532681614375
1888.958487,67.13969841150002
1891.847655,24.560312691384805
1894.733626,39.33785605723199
1897.616414,-77.7525110653391
1900.496032,-119.58023634842195
1903.372491,18.667642671655884
1906.245805,42.6462242293777
1909.115987,35.222829750918876
1911.983049,36.074091029385826
1914.847004,-20.584278473677486
1917.707866,39.98995619526967
1920.565646,31.831052313910998
1923.420359,-22.98287410246412
1926.272016,0.5663084258973399
1929.120631,-71.65469490283992
1931.966216,-38.01903044814755
1934.808786,27.126169692758413
1937.648351,-0.3201603740222593
1940.484927,27.486547635446854
1943.318525,-23.400488339900416
1946.149158,210.76928601785787
1948.97684,564.0848452100853
1951.801584,262.220198395261
1954.623403,20.17864112078832
1957.44231,176.08039179420555
1960.258318,11.769661073795888
1963.071439,-99.54538093330294
1965.881688,88.01804072761914
1968.689078,82.47904784127006
1971.493621,-85.19443600252274
