Raman shift cm-1,4ATP_10uM_rep3_acc1_processed_intensity
-93.47115107,518.5333988659992
-87.69374369,65.57181804454613
-81.9253076,-47.84581663083123
-76.16582701,9.048147522032068
-70.41528615,71.81231065416816
-64.67366933,-84.25073727306942
-58.94096086,-78.28540346419636
-53.21714512,-18.700354096845714
-47.50220652,36.33582832057273
-41.79612954,198.79710098712678
-36.09889866,196.54705070573326
-30.41049843,216.74255526667648
-24.73091343,146.94430349515048
-19.0601283,62.412074032138975
-13.39812769,155.89336786020638
-7.744896327,15.314919024642522
-2.100418946,-56.3506192677553
3.535319659,132.05887605576183
9.162334658,124.97262648414105
14.78064118,67.04870971351988
20.39025432,18.78582314571833
25.99118913,106.73840054395431
31.58346061,267.92356045523627
37.16708375,146.37462133240572
42.74207347,118.20775483415625
48.30844468,196.66557573071168
53.86621222,24.33662918298384
59.41539093,-123.30750122369805
64.95599558,1.455925437831894
70.48804091,195.37057208478288
76.01154164,109.83394113081951
81.52651243,-50.13412272478628
87.03296792,184.64673285009093
92.5309227,244.14509301782675
98.02039134,10.878352454107507
103.5013884,74.93622338636716
108.9739282,144.83650523858424
114.4380255,67.88112455793974
119.8936944,163.03886290144806
125.3409495,359.65189097142377
130.779805,164.80304798543463
136.2102753,-127.5755416191684
141.6323747,38.033780511007244
147.0461174,133.55684793358512
152.4515176,39.51125668506188
157.8485895,-2.792016380896902
163.2373472,-85.03072445070362
168.6178049,-0.09283058665008959
173.9899766,134.67998197549167
179.3538764,66.44857307018268
184.7095182,-45.993247487241675
190.0569161,79.67285888862273
195.396084,187.93458070266263
200.7270358,33.339902372540024
206.0497854,-31.84667687079687
211.3643466,15.938121514719167
216.6707333,37.18315026519479
221.9689593,-64.54107514117362
227.2590382,-15.727306374488098
232.5409839,34.607745969297476
237.8148101,-71.15550747109492
243.0805303,58.96607108697239
248.3381582,1.675382365982692
253.5877075,-17.14108961665019
258.8291917,123.9941403248153
264.0626244,157.6681001925543
269.288019,297.8043014843574
274.5053891,216.85634237442673
279.7147481,110.38518329707166
284.9161094,28.49935540752712
290.1094865,-87.0289264328485
295.2948927,52.9651732244056
300.4723414,51.89708752762024
305.6418459,-83.23264611657142
310.8034194,3.1399058891894214
315.9570752,385.171534624446
321.1028267,735.3420357378618
326.2406869,743.9151449299809
331.370669,784.801885324285
336.4927863,847.9783976459388
341.6070517,660.3740078950459
346.7134786,684.3142708500194
351.8120798,853.362140159489
356.9028684,612.0422910584005
361.9858576,676.8591895126212
367.0610602,925.2742558383627
372.1284892,996.4733797533788
377.1881577,1664.7860889776712
382.2400784,2803.3372484773076
387.2842644,4474.7226262076165
392.3207284,5250.734772701148
397.3494833,4255.848571681992
402.370542,3337.710531270145
407.3839172,2347.2222464610186
412.3896217,1413.6923169992701
417.3876683,1132.16234524175
422.3780697,675.9667783105092
427.3608386,453.4696352492623
432.3359876,478.5726981699398
437.3035295,468.53255239156874
442.2634769,508.05622391273846
447.2158423,190.87569711492858
452.1606383,41.840965300446555
457.0978776,77.13272984647585
462.0275727,20.366289431405903
466.9497361,103.52875139822879
471.8643802,-20.256918405185445
476.7715176,-95.48283701339841
481.6711608,165.631177119033
486.5633221,329.83380263973356
491.448014,285.52843756763167
496.3252488,236.26008304556564
501.195039,286.6924913772656
506.0573969,388.62594899038635
510.9123349,185.28041444083505
515.7598651,1.8569535692433305
520.6,249.81876789862645
525.4327518,311.2218240855598
530.2581327,133.22259540137102
535.076155,68.97924933715599
539.8868309,247.6893655022967
544.6901726,249.89809343657595
549.4861922,156.6468291813225
554.2749019,376.09876180764
559.0563139,7.6041429762173784
563.8304402,-132.85135464587648
568.597293,363.84159566791305
573.3568844,176.0570817569144
578.1092263,23.354778645139987
582.8543308,167.26277110505575
587.5922101,53.104217279035986
592.322876,-79.74069330838057
597.0463405,-7.506289505488134
601.7626157,13.071512105723833
606.4717135,-62.61512735914149
611.1736458,26.589950048274382
615.8684246,-3.7508319323896195
620.5560617,77.58031500983711
625.2365691,48.00389829585941
629.9099585,147.6106397157645
634.5762419,505.6740905081088
639.2354312,398.8765295408391
643.887538,416.8055555778308
648.5325743,232.44755816902955
653.1705518,9.118788191469584
657.8014823,3.394127105844376
662.4253775,-133.84571954916066
667.0422493,52.43521616016643
671.6521092,27.36538387146419
676.2549691,-13.338702000654536
680.8508407,48.225501454960586
685.4397355,6.57750844445561
690.0216654,-16.779604063587826
694.5966419,-22.810133438736685
699.1646767,185.0117628108797
703.7257814,206.11509673277055
708.2799676,299.3640171144127
712.827247,389.5553735648885
717.367631,299.8392253808666
721.9011314,258.342085017919
726.4277595,46.8874468185977
730.9475271,-42.24737020871285
735.4604456,132.0208076773894
739.9665264,210.10866765974222
744.4657813,166.87775338468796
748.9582215,123.7639022131689
753.4438587,-13.471281971610743
757.9227042,27.506622413823877
762.3947696,-13.993465029417436
766.8600662,74.73029754414551
771.3186056,347.375581082797
775.770399,218.60617550310295
780.215458,335.75963649532224
784.6537939,199.3376566226213
789.0854181,-131.15466196353825
793.510342,173.1607525888232
797.9285769,449.26374009449296
802.3401342,448.96389754283314
806.7450253,446.5083402606201
811.1432614,496.00170001123155
815.5348538,358.3957627400984
819.9198139,236.82202763799987
824.2981531,301.2007558154489
828.6698824,264.0876122960475
833.0350133,118.22191285302544
837.393557,4.838762816318318
841.7455248,60.48199086612599
846.0909278,67.90322046511828
850.4297774,-23.562700263126267
854.7620848,38.099737182381155
859.0878611,29.115710007332886
863.4071176,-87.31114667214027
867.7198655,30.030274150774048
872.026116,224.86076396976313
876.3258802,241.96045589835802
880.6191693,189.53876953357855
884.9059946,279.28654928836795
889.186367,328.6502417075249
893.4602979,1.2460247512239988
897.7277982,-126.81942675765849
901.9888793,113.62569665137175
906.2435521,226.8699136628978
910.4918277,137.32711135585592
914.7337174,-96.44261590334018
918.9692321,46.61722507694452
923.1983831,129.64502705754808
927.4211813,69.55205750841596
931.6376378,228.26576776633485
935.8477637,42.95874223520073
940.0515701,168.80422299287957
944.249068,185.73481492532466
948.4402684,-72.2204936799622
952.6251825,76.89503372294561
956.8038212,132.86651594406544
960.9761955,274.8616143637192
965.1423166,169.38588935571548
969.3021953,31.00682540780221
973.4558427,185.24731048225465
977.6032699,13.062483282595224
981.7444877,-7.889596293208513
985.8795072,112.3083383081599
990.0083394,-3.5877333134016
994.1309953,160.20280112016871
998.2474857,381.4924685822213
1002.357822,615.4210924978061
1006.462014,1024.2989999756496
1010.560075,909.5696939152455
1014.652013,622.565979866306
1018.737841,355.43702453047825
1022.81757,7.464044489742143
1026.891209,-70.32649926805946
1030.958771,-34.52066438325656
1035.020266,52.4646755681757
1039.075705,-12.47644310295032
1043.1251,14.097966083608053
1047.16846,239.57103568911108
1051.205797,225.50396956373865
1055.237121,335.5082001592901
1059.262444,641.4102891543532
1063.281777,1141.3497472073802
1067.295131,2785.746331794369
1071.302515,5182.3498507606255
1075.303942,7351.107682941475
1079.299422,8635.358161420301
1083.288966,7383.511293682097
1087.272585,4455.31756752187
1091.250289,2261.5653135593507
1095.222091,946.9997528261223
1099.187999,313.62307553056866
1103.148026,207.76110618665774
1107.102183,126.11293141934956
1111.050479,25.34862341921016
1114.992927,-59.53390588535375
1118.929536,41.286209570633105
1122.860318,332.0561854140267
1126.785283,474.96741251785664
1130.704443,1071.6247320635641
1134.617808,2407.575254786925
1138.52539,3559.914356788693
1142.427198,4233.686007872098
1146.323244,3844.9924841193997
1150.213538,2690.519222348111
1154.098093,1974.5431185474474
1157.976917,1273.0740750268799
1161.850023,1161.7942967638153
1165.717421,1641.6549428323885
1169.579121,1840.6149456767919
1173.435135,1987.0668863896262
1177.285474,1784.7371393151348
1181.130148,1806.5662371571284
1184.969169,1859.3134472065224
1188.802547,1490.289042963461
1192.630292,1063.3667594239566
1196.452416,594.5696509136803
1200.26893,399.85264451001797
1204.079844,38.668040578896594
1207.88517,-95.48260188902078
1211.684917,6.388337824030245
1215.479098,63.006120931908555
1219.267722,331.46561989295753
1223.050801,7.328396871058899
1226.828346,-82.18451733580375
1230.600366,170.24584802311057
1234.366874,63.59498362804089
1238.12788,54.23617638929747
1241.883395,-25.419377668055276
1245.633429,125.3946124487828
1249.377994,153.1867800881442
1253.1171,-57.38896964564859
1256.850759,58.15714411174682
1260.578981,59.59349443963877
1264.301776,10.098302219208144
1268.019157,55.91903486431191
1271.731133,-68.7386373784174
1275.437715,-147.66344065374057
1279.138915,163.87617779705027
1282.834743,323.95647627051704
1286.52521,54.82747759725802
1290.210328,-109.35001960861308
1293.890106,79.23620389986232
1297.564555,305.1807557012264
1301.233688,293.0714919601255
1304.897514,332.43674324275264
1308.556044,380.3283843624322
1312.209289,278.95012553779424
1315.857261,12.305070092840388
1319.499969,118.58783413634687
1323.137425,417.978460569185
1326.769641,235.68771082909018
1330.396626,131.72630216989086
1334.018391,19.423636467133917
1337.634948,-1.7083433118375808
1341.246307,111.5750628793817
1344.85248,-9.200844544390662
1348.453477,14.93712001163236
1352.049309,-4.490105132211838
1355.639987,41.2977434992612
1359.225522,316.71478438541317
1362.805925,299.53447559843636
1366.381207,238.78437638163706
1369.951379,359.0863836044177
1373.516452,394.655533566494
1377.076436,594.1920511477801
1380.631343,822.2880142695558
1384.181184,1033.2805776060468
1387.725969,1606.2896010712068
1391.26571,1863.7380641947595
1394.800417,1644.0281320236118
1398.330102,1318.1942592702817
1401.854776,813.2232572329829
1405.374448,362.01064757800987
1408.889132,-10.647248083731156
1412.398837,-127.06253824813903
1415.903574,53.31259645052236
1419.403355,317.6379063584509
1422.89819,670.2587323450126
1426.388091,1237.2050660422133
1429.873069,1934.8706879314736
1433.353134,2211.36430745447
1436.828298,2239.2264255005193
1440.298571,2160.3765042598307
1443.763965,1676.0518940772993
1447.224491,987.8019971657515
1450.68016,608.1704413969172
1454.130983,387.19172352345026
1457.576971,49.63106307838203
1461.018135,79.72658302924803
1464.454486,99.08405321074281
1467.886036,-27.003443102407957
1471.312794,-73.0277431694911
1474.734774,-0.0099084786779855
1478.151985,256.04144085259026
1481.564439,183.1444945119056
1484.972146,44.3822722047843
1488.375119,41.87363502788945
1491.773368,199.37799084964584
1495.166904,277.01678270779627
1498.555739,23.731142205012375
1501.939883,-31.83894389714219
1505.319349,-63.09704884843398
1508.694146,-98.72635407897002
1512.064286,63.021922567906934
1515.429781,32.891781391167385
1518.790642,30.8611430655954
1522.146879,259.25755657792786
1525.498505,-15.574522043434143
1528.845529,-28.96803975326076
1532.187965,435.7831872531148
1535.525822,345.9950076811451
1538.859112,613.754807182924
1542.187846,811.9396614575327
1545.512036,799.7543411333263
1548.831693,1327.781677248819
1552.146829,1441.1852187509362
1555.457453,1340.931398179245
1558.763579,1313.7925584110849
1562.065216,1525.8195152863307
1565.362377,1962.8965962947577
1568.655073,2056.6603927815413
1571.943315,2078.238759388964
1575.227114,2131.2247454754465
1578.506482,2392.4233612266003
1581.781431,2582.9196315179192
1585.051971,2638.555476849081
1588.318114,2937.788384772701
1591.579872,2900.3349903007406
1594.837255,2553.503975582031
1598.090275,1867.3129922948149
1601.338945,1147.3122728475169
1604.583274,900.609353145315
1607.823275,375.9515232049932
1611.058959,20.114295692404255
1614.290338,63.687935966540664
1617.517422,10.752916951351665
1620.740224,114.97163039797064
1623.958755,136.60594601529692
1627.173027,-21.719333070353144
1630.38305,-24.36362348345685
1633.588838,10.880222143364634
1636.7904,12.087347714808416
1639.987749,255.3379843908673
1643.180896,155.33024348527533
1646.369853,-48.10733950679892
1649.554632,235.8956436599837
1652.735244,122.73836262723088
1655.9117,-64.49462870792591
1659.084013,170.3256336534729
1662.252193,223.74613844496685
1665.416254,44.85586250086554
1668.576205,5.089911612764126
1671.732059,178.62322779185118
1674.883828,164.3648545330353
1678.031523,-5.49171154090984
1681.175157,-4.92571191708933
1684.314739,3.1546160424793825
1687.450284,33.77840992096965
1690.581801,76.25427158113877
1693.709304,-87.7664684312671
1696.832803,-128.05849732357396
1699.952311,39.82993103601166
1703.067839,7.419213066721319
1706.179399,77.6895802645064
1709.287003,164.7351901966225
1712.390663,-24.181602450117765
1715.49039,54.7662186748624
1718.586197,172.17343618810176
1721.678095,68.35324852166573
1724.766096,0.3055292742065165
1727.850213,-64.89217972223595
1730.930456,-63.52473573406906
1734.006838,4.5280078021130805
1737.079372,-60.04206082367091
1740.148067,27.849980465948825
1743.212938,239.64444180801686
1746.273996,72.00312628990952
1749.331252,31.89157955130102
1752.384718,146.562460363615
1755.434408,105.70733671732256
1758.480332,124.19030151434703
1761.522503,168.31363951158625
1764.560933,27.853544848911554
1767.595634,-116.53448573468413
1770.626618,205.8851736906823
1773.653896,276.65227323378423
1776.677482,-2.8762777406744107
1779.697388,124.14746547334478
1782.713625,275.0262961618351
1785.726205,222.27660654164433
1788.735141,171.72963708464914
1791.740445,27.629463398581464
1794.742129,30.778212416194926
1797.740206,273.62464417983807
1800.734687,257.45084747037544
1803.725585,175.4698287545578
1806.712912,110.45812596934893
1809.69668,7.783524904811987
1812.676902,41.30139148649197
1815.65359,-35.504077553740935
1818.626756,-47.86929879308023
1821.596413,-18.846811851311433
1824.562573,9.753741286985626
1827.525247,61.620266935863405
1830.48445,-21.078059310355762
1833.440192,-48.81237831697925
1836.392487,4.106881965408334
1839.341347,111.80548160158534
1842.286784,64.40623154314929
1845.22881,-17.011135020858276
1848.167439,146.23975107499865
1851.102682,152.979278109442
1854.034553,5.968528395250644
1856.963063,119.35414340553825
1859.888226,318.9200508876153
1862.810053,225.3294827105674
1865.728557,-20.96376619009004
1868.643751,41.541666831112806
1871.555648,24.84167953334277
1874.46426,-101.96727300362667
1877.369599,194.79168462298242
1880.271679,102.78367916679704
1883.170512,-20.63169678646684
1886.06611,255.72342838993788
1888.958487,138.39330487858587
1891.847655,21.60051814096137
1894.733626,36.26918231473364
1897.616414,-14.824581910688725
1900.496032,-46.57501505052892
1903.372491,28.982746898347923
1906.245805,38.24748245037527
1909.115987,11.926797914328677
1911.983049,131.01150756881697
1914.847004,20.727857579774234
1917.707866,37.29027412880417
1920.565646,123.76924848661172
1923.420359,-5.539029964427439
1926.272016,-6.159303890277107
1929.120631,-82.87389192498715
1931.966216,-54.39866250954832
1934.808786,103.06824220143284
1937.648351,32.26829082181432
1940.484927,26.235425668379445
1943.318525,38.827000713474824
1946.149158,258.41838863542597
1948.97684,573.8447722890924
1951.801584,293.14976709070146
1954.623403,137.71821906779277
1957.44231,122.54751550977129
1960.258318,-78.12837284495616
1963.071439,-14.499895595151095
1965.881688,33.011573062261995
1968.689078,52.94136469815221
1971.493621,-19.734113436422962
