Raman shift cm-1,4ATP_100uM_rep3_acc2_processed_intensity
-93.47115107,536.2766339926173
-87.69374369,185.62470613680205
-81.9253076,4.0062047512937795
-76.16582701,189.47591761550598
-70.41528615,222.57412457011247
-64.67366933,-12.82504462961046
-58.94096086,-19.24621926772366
-53.21714512,-11.03536486534066
-47.50220652,-26.99821146115052
-41.79612954,172.77379489635942
-36.09889866,216.9238775890016
-30.41049843,75.76200765772406
-24.73091343,29.55464906163469
-19.0601283,21.72075408917624
-13.39812769,53.703945293643784
-7.744896327,16.323910246549673
-2.100418946,-24.929498022416567
3.535319659,1.8045767911962116
9.162334658,-28.673704497310666
14.78064118,41.90327683024316
20.39025432,17.90021554952048
25.99118913,25.227602869851836
31.58346061,209.32874945110927
37.16708375,124.30555855468617
42.74207347,-4.324019288843701
48.30844468,-4.053266662397405
53.86621222,-15.82224993529875
59.41539093,-64.54504216231051
64.95599558,-24.613425727903227
70.48804091,277.10117398616717
76.01154164,271.67988327273144
81.52651243,10.471621731801477
87.03296792,209.16245134797066
92.5309227,346.145783359416
98.02039134,140.43605462857664
103.5013884,207.1987382664097
108.9739282,288.1656601913825
114.4380255,163.82490618116015
119.8936944,227.8599897667621
125.3409495,329.9947279704923
130.779805,195.82472034492355
136.2102753,-59.46416742458774
141.6323747,2.451639352602001
147.0461174,163.3026339112056
152.4515176,6.780240306678593
157.8485895,-6.155968230237704
163.2373472,14.217370548433337
168.6178049,-20.282898367176244
173.9899766,119.76873437273014
179.3538764,94.21333767120097
184.7095182,76.07206390917133
190.0569161,164.52941955402878
195.396084,46.187535316978256
200.7270358,9.950198334643915
206.0497854,57.46471847487908
211.3643466,18.302193102634988
216.6707333,128.74461423530363
221.9689593,217.91912172018067
227.2590382,274.8811676593441
232.5409839,291.7307862029463
237.8148101,274.03890897768974
243.0805303,406.9234221568379
248.3381582,440.6615345359223
253.5877075,600.3619524098063
258.8291917,811.4564685912554
264.0626244,875.9831721497771
269.288019,1106.366345731387
274.5053891,1140.9932691698493
279.7147481,1012.6160315586322
284.9161094,1135.2693935615164
290.1094865,1218.7987497118293
295.2948927,1068.0742287471837
300.4723414,742.1052013876824
305.6418459,208.91212704160085
310.8034194,-121.87974633259545
315.9570752,52.31091444408338
321.1028267,293.25502698840637
326.2406869,424.4869225579498
331.370669,593.1733315409708
336.4927863,638.9197118101749
341.6070517,540.2521742358114
346.7134786,570.4046590725566
351.8120798,576.7122211846012
356.9028684,417.29356771899984
361.9858576,447.81240529485547
367.0610602,736.3500070944095
372.1284892,1147.2990378201762
377.1881577,1900.9155695149695
382.2400784,3562.489660409128
387.2842644,5963.527248963588
392.3207284,7504.213947362341
397.3494833,7068.250799588101
402.370542,5189.694029097523
407.3839172,3143.105579683767
412.3896217,1931.866929226825
417.3876683,1356.4971186805385
422.3780697,879.2685161791039
427.3608386,586.7669104306351
432.3359876,400.4954057822203
437.3035295,342.5049737721941
442.2634769,274.6210425041279
447.2158423,13.962032474619612
452.1606383,41.04247838699219
457.0978776,36.257076798883105
462.0275727,-114.40803056216629
466.9497361,11.86055347801147
471.8643802,132.7764390649672
476.7715176,335.35967714617425
481.6711608,527.1431870130596
486.5633221,559.1128423147799
491.448014,644.5116770813587
496.3252488,565.1176236306861
501.195039,455.38079745338376
506.0573969,465.8336866744782
510.9123349,238.34987548867628
515.7598651,61.16667608589438
520.6,212.5683546205351
525.4327518,354.3408784841779
530.2581327,248.79891861835188
535.076155,148.16960734716997
539.8868309,496.8102903171882
544.6901726,633.7365597354527
549.4861922,564.4099839801054
554.2749019,709.5446528249506
559.0563139,304.26983091377303
563.8304402,-20.355077705838703
568.597293,227.14195493219498
573.3568844,223.67188014012982
578.1092263,32.7762967177933
582.8543308,142.6378400012071
587.5922101,191.05890082686537
592.322876,-91.37529229982574
597.0463405,53.928529507775934
601.7626157,161.70826103008437
606.4717135,-80.7195184238237
611.1736458,-27.123879166755238
615.8684246,-25.099590955640025
620.5560617,44.751520142972794
625.2365691,51.888437488202754
629.9099585,117.49568064516359
634.5762419,515.4176463950083
639.2354312,744.289909935098
643.887538,802.3435327910022
648.5325743,455.200866007448
653.1705518,254.66977224638225
657.8014823,256.3031715851008
662.4253775,-1.37830391266192
667.0422493,55.450522133955644
671.6521092,150.19190124191925
676.2549691,74.32607188044699
680.8508407,-3.5911970515732605
685.4397355,17.346373061631766
690.0216654,-1.4400719725558133
694.5966419,-22.38051509635696
699.1646767,214.6712716299756
703.7257814,261.55680492262013
708.2799676,404.7178133723561
712.827247,729.2264581361119
717.367631,807.5311628278524
721.9011314,761.2731284081639
726.4277595,534.0613897708378
730.9475271,321.2386955298544
735.4604456,358.36017442579407
739.9665264,353.5637039296824
744.4657813,307.7528011973673
748.9582215,234.05513663347114
753.4438587,-32.23039493549186
757.9227042,11.115729056432162
762.3947696,28.33818580292162
766.8600662,-18.30788237531851
771.3186056,324.49308219993003
775.770399,251.98278559134116
780.215458,156.30666913967886
784.6537939,190.04692164114067
789.0854181,-28.825212246937102
793.510342,132.4557535315397
797.9285769,407.4557588643805
802.3401342,425.8959412149018
806.7450253,386.60644754759977
811.1432614,439.68530762325355
815.5348538,440.7478930224872
819.9198139,334.72255505177765
824.2981531,427.7656509520499
828.6698824,484.3836058800084
833.0350133,397.55459166674643
837.393557,303.6633830606992
841.7455248,218.16056454514336
846.0909278,290.1293382845862
850.4297774,200.37196854154993
854.7620848,43.26829271150251
859.0878611,54.72144949617629
863.4071176,-75.93504699477845
867.7198655,57.0993165627683
872.026116,403.8993130834613
876.3258802,376.1187630108926
880.6191693,263.4565709550588
884.9059946,265.33641122678773
889.186367,247.21449837207075
893.4602979,-27.598833833134307
897.7277982,-114.6075107611816
901.9888793,238.50169385256996
906.2435521,178.71973168062172
910.4918277,7.085208637609501
914.7337174,18.566890308281266
918.9692321,20.49830596108014
923.1983831,59.13736967116958
927.4211813,158.560602480799
931.6376378,357.338587661747
935.8477637,195.6390315366805
940.0515701,136.10556548655558
944.249068,92.59538610716211
948.4402684,-60.95761935525256
952.6251825,97.58779636845146
956.8038212,55.43526286793159
960.9761955,135.41028922743993
965.1423166,184.93769102338672
969.3021953,11.223575515178474
973.4558427,3.8969878424284765
977.6032699,-65.23723540269404
981.7444877,41.88165347786298
985.8795072,173.0452944576542
990.0083394,-13.501441007093709
994.1309953,40.60480855139502
998.2474857,315.42282088358485
1002.357822,674.5793008503653
1006.462014,1306.5591123965933
1010.560075,1415.8448322091876
1014.652013,937.2102631605853
1018.737841,491.9481975415124
1022.81757,120.61435997202695
1026.891209,-38.45107366251021
1030.958771,-18.87717674141953
1035.020266,46.12270677799897
1039.075705,-21.23404294565251
1043.1251,-35.38286259215136
1047.16846,277.65563554194694
1051.205797,380.8391342989213
1055.237121,354.46055634535776
1059.262444,807.2963032261266
1063.281777,1601.9652090692425
1067.295131,3336.8860231134177
1071.302515,5999.671148487485
1075.303942,8507.214830889017
1079.299422,10630.811093511813
1083.288966,10540.2022340036
1087.272585,7700.786734348909
1091.250289,4581.545049915398
1095.222091,2077.204962896281
1099.187999,730.8337307659083
1103.148026,355.30129057571605
1107.102183,16.258871484837925
1111.050479,10.504466828573356
1114.992927,27.967977242130416
1118.929536,115.26758599738298
1122.860318,542.2873677477694
1126.785283,1040.6200885882256
1130.704443,2181.8450255464345
1134.617808,4149.084329042158
1138.52539,6290.150449784338
1142.427198,7814.065567868545
1146.323244,7624.840931364396
1150.213538,5980.459465390854
1154.098093,4157.809374210938
1157.976917,2339.8110314067244
1161.850023,1246.8051565404464
1165.717421,941.4732051836617
1169.579121,803.0042661549884
1173.435135,950.618281458354
1177.285474,939.2729955406228
1181.130148,1233.447507275078
1184.969169,1742.804523140277
1188.802547,1821.9802577980176
1192.630292,1688.5957954868663
1196.452416,1412.9704307239763
1200.26893,971.2954401620656
1204.079844,359.8093689975638
1207.88517,155.40520269448575
1211.684917,20.36843084165213
1215.479098,-31.22729422911004
1219.267722,193.17773012040456
1223.050801,-41.516689193211555
1226.828346,-11.851195678102798
1230.600366,132.99408410704194
1234.366874,54.139772961760215
1238.12788,74.27671159752578
1241.883395,-26.975390342504916
1245.633429,209.09481406704916
1249.377994,216.3762675665251
1253.1171,-68.49439771492368
1256.850759,56.55097630993684
1260.578981,122.6175752957796
1264.301776,87.20007194142443
1268.019157,55.79611253006166
1271.731133,-32.02469008456587
1275.437715,-9.499027995297967
1279.138915,197.89460181934646
1282.834743,234.97593761146172
1286.52521,59.37640693953912
1290.210328,-45.92037267204633
1293.890106,18.305556044457052
1297.564555,277.3012665979128
1301.233688,428.7355986597474
1304.897514,616.0427241576264
1308.556044,749.6609448025984
1312.209289,610.8111418420742
1315.857261,378.26860454825055
1319.499969,322.82262908994073
1323.137425,479.1925944532074
1326.769641,397.93967495844083
1330.396626,312.56869008267734
1334.018391,243.36961101973017
1337.634948,121.68792676712198
1341.246307,10.518529150015866
1344.85248,-93.54232634697662
1348.453477,44.106330681655365
1352.049309,88.37823070844155
1355.639987,300.38456459986554
1359.225522,589.4377934459873
1362.805925,649.3131415015928
1366.381207,827.9375127762399
1369.951379,826.0788571312225
1373.516452,989.3582240632225
1377.076436,1397.394386461398
1380.631343,1721.6772356438348
1384.181184,2401.560903793168
1387.725969,3142.2531134814917
1391.26571,3498.307471492966
1394.800417,3304.4604056987796
1398.330102,2619.300116649925
1401.854776,1751.184009522162
1405.374448,714.2708659243733
1408.889132,59.88820361279613
1412.398837,-30.859052133806244
1415.903574,238.96661444742693
1419.403355,1060.8857513154824
1422.89819,1880.0645933397427
1426.388091,2923.9953149005805
1429.873069,4224.366967790925
1433.353134,4616.247109802728
1436.828298,4442.835533630404
1440.298571,3920.0794555573448
1443.763965,2926.0629128859177
1447.224491,1985.9128614288647
1450.68016,1251.4429174276906
1454.130983,804.5329085306025
1457.576971,507.77720784366454
1461.018135,417.111772338347
1464.454486,395.87513631137426
1467.886036,356.83130462122523
1471.312794,419.9386312888927
1474.734774,475.1607577509078
1478.151985,540.069654361099
1481.564439,425.02975729616963
1484.972146,359.01482905074363
1488.375119,392.4493950806583
1491.773368,544.5167942994879
1495.166904,656.0273423899937
1498.555739,389.20257852862585
1501.939883,214.90819514348073
1505.319349,26.8708023605502
1508.694146,-23.294025290713428
1512.064286,171.4136318918236
1515.429781,130.3641078168054
1518.790642,23.234531632040056
1522.146879,12.597111109361474
1525.498505,-39.52809258239788
1528.845529,-17.46803098752423
1532.187965,181.57995869480618
1535.525822,193.19068724985445
1538.859112,323.9874346675525
1542.187846,424.3268092116844
1545.512036,361.62903090102975
1548.831693,719.8610070222541
1552.146829,750.6621604036596
1555.457453,547.4873316815874
1558.763579,751.514539285404
1562.065216,1072.782643402087
1565.362377,1414.8392422649247
1568.655073,1836.135881102328
1571.943315,2242.4395686614976
1575.227114,2264.7488799252897
1578.506482,2392.9107749704845
1581.781431,2592.638273178576
1585.051971,2347.9715590598385
1588.318114,2423.522730838968
1591.579872,2761.643161758488
1594.837255,2898.563891800776
1598.090275,2685.0579735075053
1601.338945,2172.448600923347
1604.583274,1690.3027589761557
1607.823275,943.868089816487
1611.058959,270.6864919085117
1614.290338,9.704082828508803
1617.517422,-47.187083060382506
1620.740224,129.87460244342543
1623.958755,213.65936703058674
1627.173027,53.350939211267985
1630.38305,30.08061364239225
1633.588838,77.68351450438385
1636.7904,-8.009083318429148
1639.987749,122.13888285199067
1643.180896,157.41584856429978
1646.369853,-14.642811262756382
1649.554632,154.9068912179528
1652.735244,214.76680682125996
1655.9117,-5.68129135768212
1659.084013,23.749072843250126
1662.252193,52.19299083694329
1665.416254,-105.95467887581131
1668.576205,-3.7535756407629792
1671.732059,186.44711452162989
1674.883828,50.29891505229345
1678.031523,10.769166200744209
1681.175157,97.5547931054091
1684.314739,-28.466417047529696
1687.450284,73.34262339348555
1690.581801,138.44527207693056
1693.709304,-74.15199676648967
1696.832803,-17.413278760862077
1699.952311,43.86710472852378
1703.067839,18.304362274545095
1706.179399,136.3924358652117
1709.287003,156.43553669025619
1712.390663,49.0071148533735
1715.49039,33.94723429438336
1718.586197,101.48555312941201
1721.678095,30.652830164459814
1724.766096,-87.9262817324226
1727.850213,-47.35927457599632
1730.930456,6.219778425414848
1734.006838,5.5902667015807515
1737.079372,-28.68106919443317
1740.148067,40.26004715434209
1743.212938,177.42991626123035
1746.273996,165.88584162282643
1749.331252,129.2044912575803
1752.384718,25.03604796079339
1755.434408,50.531638000182156
1758.480332,222.85858868536
1761.522503,244.2414570108858
1764.560933,87.36784203300468
1767.595634,-83.45975795291801
1770.626618,152.40071908404636
1773.653896,248.62389286345447
1776.677482,-8.45814033850526
1779.697388,45.067503830928594
1782.713625,167.22531443950564
1785.726205,182.47922746599332
1788.735141,209.45555696814014
1791.740445,144.90411896422006
1794.742129,118.90126920479364
1797.740206,281.2867901505994
1800.734687,422.64928209834477
1803.725585,337.06885801240884
1806.712912,193.60334174195228
1809.69668,211.3672711856846
1812.676902,168.70757397011263
1815.65359,-47.15728418058846
1818.626756,-31.618020669832813
1821.596413,91.92135058829757
1824.562573,40.18449388475269
1827.525247,49.86439254461584
1830.48445,100.36998345318679
1833.440192,-6.944229055228637
1836.392487,15.641697140832848
1839.341347,196.3795242091187
1842.286784,110.93997978561202
1845.22881,36.13395686593522
1848.167439,186.59874124722887
1851.102682,130.7551068489376
1854.034553,-95.95008009463893
1856.963063,30.268156474233308
1859.888226,331.78325549032763
1862.810053,308.3030446225083
1865.728557,153.1048088017442
1868.643751,94.43816334996836
1871.555648,9.575954069714498
1874.46426,-59.84372652691529
1877.369599,82.77662411875426
1880.271679,109.78465009200113
1883.170512,23.125152588755917
1886.06611,146.27200012434142
1888.958487,123.97873844829309
1891.847655,32.88209604545844
1894.733626,78.78589417547178
1897.616414,12.157450670189975
1900.496032,3.1159433187744483
1903.372491,141.7760819453385
1906.245805,195.40829847377447
1909.115987,259.2920425535098
1911.983049,249.71902997755598
1914.847004,120.14182929192215
1917.707866,97.51858974689824
1920.565646,-1.6786214785077256
1923.420359,-47.349545615660325
1926.272016,28.173510526097772
1929.120631,-41.80510988250107
1931.966216,10.571342016456063
1934.808786,45.4009965793576
1937.648351,1.3287342308267895
1940.484927,124.50560586061154
1943.318525,146.99221582351515
1946.149158,305.98968520867527
1948.97684,530.569755781944
1951.801584,341.98385318679794
1954.623403,173.2513918056151
1957.44231,229.3956716239862
1960.258318,129.55347101291494
1963.071439,-53.17014328901712
1965.881688,13.70854406042373
1968.689078,143.58052798064176
1971.493621,25.77470644186473
