Raman shift cm-1,4ATP_100uM_rep2_acc5_processed_intensity
-93.47115107,522.1301443157066
-87.69374369,89.72445650669931
-81.9253076,-140.7724784147132
-76.16582701,64.68010134273437
-70.41528615,278.28805776944705
-64.67366933,-10.441902616397783
-58.94096086,-34.3212641968809
-53.21714512,-83.94893435239439
-47.50220652,69.45529415156925
-41.79612954,217.33398309310934
-36.09889866,206.06789899797937
-30.41049843,213.13090727770526
-24.73091343,257.872127245299
-19.0601283,89.78644130362203
-13.39812769,12.605354183401516
-7.744896327,-30.347334868566847
-2.100418946,2.2000209505418695
3.535319659,175.71926772819165
9.162334658,-57.32867769378466
14.78064118,67.47748599158382
20.39025432,13.970899847956069
25.99118913,4.40950459351307
31.58346061,228.59966893242049
37.16708375,194.15612480067406
42.74207347,59.75128369967017
48.30844468,-74.95776460571194
53.86621222,-43.47319904573162
59.41539093,-40.1324620476018
64.95599558,-26.245995553806154
70.48804091,88.18145110564097
76.01154164,17.10357809824515
81.52651243,-140.4541098329173
87.03296792,163.51609611505185
92.5309227,324.6729542900058
98.02039134,81.4654317671301
103.5013884,28.26575316798344
108.9739282,14.479253317690967
114.4380255,-8.394060957890513
119.8936944,56.3287540139749
125.3409495,194.97715306849858
130.779805,-33.55669027830369
136.2102753,-43.92437098047407
141.6323747,-68.97797376588107
147.0461174,105.44290797358664
152.4515176,15.520417717652037
157.8485895,-104.15094570081655
163.2373472,-92.23952777616499
168.6178049,-56.70095957978827
173.9899766,89.34819193881626
179.3538764,97.64491217791895
184.7095182,93.44293848432424
190.0569161,63.01258005297234
195.396084,22.21055093664365
200.7270358,-4.125188534443119
206.0497854,-18.2282484757846
211.3643466,-134.69518000633636
216.6707333,70.6960643510495
221.9689593,-34.85622921768346
227.2590382,-38.85204527175406
232.5409839,13.10777105601867
237.8148101,25.395313570557292
243.0805303,-10.392811561340693
248.3381582,-9.031768574439297
253.5877075,62.418794982416856
258.8291917,24.365034701573137
264.0626244,21.145150954380934
269.288019,169.3937730644878
274.5053891,46.27840524516186
279.7147481,-24.710895546223
284.9161094,-211.19036469715007
290.1094865,3.227118442430168
295.2948927,355.7972100877014
300.4723414,1497.641364154371
305.6418459,3040.4711764106523
310.8034194,4552.455953613868
315.9570752,5713.17941172914
321.1028267,5872.429673068217
326.2406869,6045.304508405888
331.370669,6442.082773932289
336.4927863,6636.8414129929315
341.6070517,6510.746758400179
346.7134786,6507.661070148293
351.8120798,6180.87109620584
356.9028684,5718.9381783901235
361.9858576,5242.970421995195
367.0610602,5330.662348592317
372.1284892,4857.274407704437
377.1881577,5074.1222185433535
382.2400784,5485.664377648433
387.2842644,6717.247671773644
392.3207284,8225.722191938221
397.3494833,8521.548964529884
402.370542,7942.085729006895
407.3839172,6686.139223864864
412.3896217,5723.713788735149
417.3876683,5205.825598808717
422.3780697,4290.395256035463
427.3608386,3197.101248641652
432.3359876,2787.7391642187395
437.3035295,1978.5553265981143
442.2634769,1763.5234090234007
447.2158423,1079.4791159154893
452.1606383,634.9232433511934
457.0978776,462.6363906302049
462.0275727,85.80123780032864
466.9497361,239.84793700675982
471.8643802,292.87503760951677
476.7715176,979.3464909665081
481.6711608,2114.622544983893
486.5633221,3308.3217786791038
491.448014,3839.826214401938
496.3252488,3474.103342157454
501.195039,2667.372924917733
506.0573969,1538.6840243173547
510.9123349,669.7469015155257
515.7598651,80.27923730349175
520.6,201.59459608529596
525.4327518,176.25634297107354
530.2581327,95.72614648197305
535.076155,227.78843155784034
539.8868309,796.3985768372113
544.6901726,1379.458174970092
549.4861922,1331.58228928597
554.2749019,1019.8943521853334
559.0563139,75.80182474739877
563.8304402,-234.00111678636995
568.597293,-35.954300525459075
573.3568844,39.82851319376232
578.1092263,-156.84113348264282
582.8543308,-53.33668005216805
587.5922101,280.85708541841814
592.322876,304.78151490634355
597.0463405,510.4612766341447
601.7626157,763.4101254334573
606.4717135,548.9888805348041
611.1736458,264.0359126180306
615.8684246,40.36623216118187
620.5560617,99.49462067684863
625.2365691,85.4666162063204
629.9099585,185.01522752816027
634.5762419,422.30721653998717
639.2354312,440.45516668667506
643.887538,683.6532534984535
648.5325743,382.3274485668203
653.1705518,472.29236750835935
657.8014823,335.72679163410385
662.4253775,58.658681636040455
667.0422493,-17.265925496747514
671.6521092,0.5495043691767023
676.2549691,-25.162220061991775
680.8508407,-155.0726469167671
685.4397355,12.29995846368547
690.0216654,12.768022086027031
694.5966419,-7.379334429379924
699.1646767,258.99015602307645
703.7257814,487.1966406152401
708.2799676,866.8599754172078
712.827247,1797.829053474953
717.367631,2508.530978552024
721.9011314,2583.427490891795
726.4277595,1872.3413763737465
730.9475271,1210.0018405989242
735.4604456,451.49419923687014
739.9665264,473.68201589711293
744.4657813,308.2288409817711
748.9582215,163.75057905323115
753.4438587,81.95178949799038
757.9227042,104.35402627476424
762.3947696,37.1804533954662
766.8600662,-40.45442367590499
771.3186056,318.81049522501485
775.770399,-11.276713896620095
780.215458,84.17292825384106
784.6537939,-19.743050649189627
789.0854181,-158.20063166654688
793.510342,-51.671674211330014
797.9285769,262.7141979110007
802.3401342,460.72228914441985
806.7450253,571.3439844537651
811.1432614,545.684089204483
815.5348538,644.1917593774476
819.9198139,692.1501331424836
824.2981531,774.4692886271915
828.6698824,1037.7543488687118
833.0350133,707.3782663599309
837.393557,427.5243215977894
841.7455248,435.24270646454056
846.0909278,390.6627055985089
850.4297774,205.99518768847207
854.7620848,48.122243719600135
859.0878611,57.175916265375974
863.4071176,15.798489438905335
867.7198655,225.91016370583043
872.026116,396.0204338163907
876.3258802,399.2195137875275
880.6191693,167.1876301659062
884.9059946,103.9498721108327
889.186367,178.89888197827182
893.4602979,-180.99724504177465
897.7277982,-244.57502715148132
901.9888793,-28.516857488959886
906.2435521,110.20729828003965
910.4918277,20.808899112323672
914.7337174,70.01535040200946
918.9692321,500.72240824682814
923.1983831,841.5857537744735
927.4211813,831.4208360710239
931.6376378,1006.7666790735302
935.8477637,498.06433904869664
940.0515701,487.4015444196201
944.249068,388.77017927140116
948.4402684,98.52537990163569
952.6251825,352.46933509195776
956.8038212,169.59119116671116
960.9761955,475.1886095026241
965.1423166,183.88011768358467
969.3021953,96.9957519193764
973.4558427,42.74698096262341
977.6032699,-51.5984251333125
981.7444877,-100.76201637071176
985.8795072,-30.32269225407697
990.0083394,39.539642935754046
994.1309953,31.439883257215683
998.2474857,589.4210247998112
1002.357822,1202.7285156063442
1006.462014,2798.904406139879
1010.560075,4307.46141040015
1014.652013,4783.464692046876
1018.737841,3982.724187757675
1022.81757,2410.0406496035534
1026.891209,1451.704900057855
1030.958771,774.082556262256
1035.020266,301.64892921634987
1039.075705,-114.78737476242327
1043.1251,-89.6410034781843
1047.16846,345.51999298228975
1051.205797,560.2673756365089
1055.237121,1222.366580824886
1059.262444,3237.5446080257398
1063.281777,7228.148819914961
1067.295131,14077.509139639023
1071.302515,22639.128978304307
1075.303942,28677.339479276936
1079.299422,30144.627389167897
1083.288966,25697.516580407177
1087.272585,17735.16543084295
1091.250289,10252.819787071578
1095.222091,4939.714976356372
1099.187999,2057.6741733048716
1103.148026,893.7603195161751
1107.102183,118.14193996126778
1111.050479,87.30589620860928
1114.992927,623.0041060311755
1118.929536,1355.767977436375
1122.860318,3168.0396857977585
1126.785283,5809.187560686521
1130.704443,10838.469431053943
1134.617808,19712.343931570078
1138.52539,31310.29565176279
1142.427198,39855.51859308093
1146.323244,40398.68737193557
1150.213538,40823.40854142354
1154.098093,38828.13672148201
1157.976917,25888.10824431462
1161.850023,15351.923875733752
1165.717421,9698.344959019161
1169.579121,6655.21922925069
1173.435135,5832.886508539319
1177.285474,4999.302737279333
1181.130148,5080.529582685604
1184.969169,5423.202142904576
1188.802547,6436.285826078743
1192.630292,7180.730779380172
1196.452416,7268.7476881643925
1200.26893,5663.148137798052
1204.079844,3139.9344370403787
1207.88517,1349.1356001132383
1211.684917,465.8871073273874
1215.479098,45.40500901045971
1219.267722,397.143654988575
1223.050801,-120.14459254940948
1226.828346,-36.28840245099627
1230.600366,95.35499973489152
1234.366874,-61.22352886626459
1238.12788,146.48318940517902
1241.883395,-48.600249273838585
1245.633429,252.9544924967566
1249.377994,422.7061644398176
1253.1171,56.47282999480342
1256.850759,61.88622428667668
1260.578981,79.41122081800407
1264.301776,50.865349630571004
1268.019157,3.8909785850761978
1271.731133,-233.94668939219991
1275.437715,-85.37591570620616
1279.138915,25.668948949953545
1282.834743,194.40008626417546
1286.52521,63.77127826849197
1290.210328,-21.036418769527245
1293.890106,158.73352851272762
1297.564555,712.7032302079568
1301.233688,1395.9281930481843
1304.897514,2269.7214639446424
1308.556044,2388.4578987179307
1312.209289,2093.909240693529
1315.857261,1244.4079964188002
1319.499969,854.802347878589
1323.137425,857.64618656888
1326.769641,398.0319704377365
1330.396626,364.240931658779
1334.018391,18.3956882223805
1337.634948,-59.72780870906854
1341.246307,-2.042194974441827
1344.85248,116.85866747502064
1348.453477,434.60881211914045
1352.049309,906.3908227283022
1355.639987,1462.2560370958709
1359.225522,2250.2599916681643
1362.805925,2515.940539659475
1366.381207,2846.720154160278
1369.951379,2991.848121374416
1373.516452,3237.196491638212
1377.076436,3872.985248702309
1380.631343,4735.678695449612
1384.181184,6795.57358615037
1387.725969,10365.5334722
1391.26571,14726.40915892523
1394.800417,17507.596771429577
1398.330102,17343.43859781445
1401.854776,13505.754303710437
1405.374448,8341.990084661793
1408.889132,4542.806556208963
1412.398837,2408.905635453454
1415.903574,2251.6522774634777
1419.403355,3502.0706571402634
1422.89819,5767.4269256196785
1426.388091,9744.714436510858
1429.873069,15495.633173063374
1433.353134,22304.235825343545
1436.828298,28378.174429577924
1440.298571,32535.19336352787
1443.763965,33696.46698352798
1447.224491,31311.40896683548
1450.68016,26388.88705738432
1454.130983,20409.48039366571
1457.576971,14626.723927922516
1461.018135,10441.180053046392
1464.454486,7496.994628892032
1467.886036,5736.763683020979
1471.312794,5664.294764434092
1474.734774,6078.194265597879
1478.151985,6334.211761314578
1481.564439,5635.081477114459
1484.972146,3774.530443071545
1488.375119,1955.0119490875577
1491.773368,1239.5378082172997
1495.166904,839.8450718907786
1498.555739,515.2060938869404
1501.939883,66.12241633337646
1505.319349,57.83569012694227
1508.694146,-181.11111998696492
1512.064286,-29.57582193124307
1515.429781,105.43163104417502
1518.790642,-140.1493171464556
1522.146879,76.20054200389012
1525.498505,4.77243127279462
1528.845529,1.5119836879198942
1532.187965,382.05438288250735
1535.525822,505.7756044858911
1538.859112,936.9984750980567
1542.187846,1514.8958424070736
1545.512036,1673.6846964271163
1548.831693,2444.326312976471
1552.146829,2850.926889080515
1555.457453,3328.512291184623
1558.763579,3896.943442701168
1562.065216,5022.580667925649
1565.362377,6105.626789240492
1568.655073,7375.4196262747355
1571.943315,8717.576362123
1575.227114,9856.652003789437
1578.506482,10783.450456395221
1581.781431,10989.057842095186
1585.051971,9705.967547868555
1588.318114,7998.499819520567
1591.579872,6353.5723230816275
1594.837255,4667.965399951381
1598.090275,3745.6936114418904
1601.338945,2802.7812500231694
1604.583274,2165.991918644446
1607.823275,1315.710829209182
1611.058959,754.6111738287638
1614.290338,269.6612195879313
1617.517422,79.68410412931041
1620.740224,209.81931846200246
1623.958755,187.63643395107647
1627.173027,71.95130595921239
1630.38305,-95.83212632581467
1633.588838,-1.468907223855922
1636.7904,-16.032570117255318
1639.987749,94.2838249095571
1643.180896,152.04882487128543
1646.369853,-114.41533428337095
1649.554632,110.70422447065101
1652.735244,84.8650560840029
1655.9117,-124.47965346146765
1659.084013,-54.46897390015994
1662.252193,75.2882701727673
1665.416254,-169.25652078815938
1668.576205,-19.091954656159118
1671.732059,196.29025773867684
1674.883828,107.29544734217812
1678.031523,-34.8078746235486
1681.175157,52.016215424481125
1684.314739,-20.055530105912663
1687.450284,15.26185185837901
1690.581801,176.29184215208087
1693.709304,-156.70207205806184
1696.832803,-86.36551774019733
1699.952311,46.01587427268094
1703.067839,115.74106642250219
1706.179399,107.95879176931919
1709.287003,219.40074488690016
1712.390663,-33.20309096313784
1715.49039,71.65757940635066
1718.586197,63.01889059973846
1721.678095,161.40500780768087
1724.766096,-59.00733704641866
1727.850213,-107.8528153298619
1730.930456,-16.854332754678822
1734.006838,20.46993776721021
1737.079372,-10.027022988251472
1740.148067,-68.85176395813828
1743.212938,326.9073899739301
1746.273996,79.92193336580712
1749.331252,95.53784166653755
1752.384718,-60.169701178964715
1755.434408,0.05711538209887834
1758.480332,87.97456468937813
1761.522503,166.817140597417
1764.560933,39.52182628957083
1767.595634,-243.50558475617746
1770.626618,-32.61802199819158
1773.653896,-3.404609055353177
1776.677482,-74.4832923312506
1779.697388,65.94800509645674
1782.713625,95.32624598477113
1785.726205,44.586813506954854
1788.735141,78.22632965533492
1791.740445,-60.33256431838083
1794.742129,-132.07623621390258
1797.740206,103.70427453499906
1800.734687,273.70621872282914
1803.725585,112.38500388500009
1806.712912,92.47320077036252
1809.69668,25.09877554276089
1812.676902,4.990215092478849
1815.65359,-167.56568551224896
1818.626756,-76.32939247183478
1821.596413,66.34003935576209
1824.562573,-104.40393951519383
1827.525247,74.88240361590377
1830.48445,-50.76777642571144
1833.440192,-35.11505816452995
1836.392487,-65.15555563771947
1839.341347,41.641038096220186
1842.286784,-6.997683945354414
1845.22881,-7.265783882785044
1848.167439,88.93248221626564
1851.102682,55.00506319760206
1854.034553,-16.817501739909282
1856.963063,-40.25300922160196
1859.888226,167.56948669735334
1862.810053,101.02850205017518
1865.728557,95.96372196225332
1868.643751,-30.989626123920274
1871.555648,-98.06732031624728
1874.46426,-146.256426987392
1877.369599,163.92625406470398
1880.271679,74.48203388273936
1883.170512,17.796105371035047
1886.06611,172.0366855115149
1888.958487,67.36316440327114
1891.847655,-7.651163101552479
1894.733626,-14.047374086323579
1897.616414,38.955943530576086
1900.496032,-101.88692030594022
1903.372491,-20.817780707638768
1906.245805,241.4003364370712
1909.115987,245.77026428473687
1911.983049,142.31447689637974
1914.847004,23.904907934672266
1917.707866,44.342993765306446
1920.565646,24.50385165180509
1923.420359,8.595989720191135
1926.272016,-20.47446338648574
1929.120631,-152.60583661526732
1931.966216,60.26589119646267
1934.808786,55.07490642357482
1937.648351,-63.43284416184762
1940.484927,-43.622398846224954
1943.318525,88.15122059247388
1946.149158,262.27918553657594
1948.97684,386.8439542541035
1951.801584,176.8750185564249
1954.623403,96.81316776829934
1957.44231,58.45179389239497
1960.258318,-22.768334041996056
1963.071439,-48.928329225175304
1965.881688,-95.48043894594696
1968.689078,166.9736370521116
1971.493621,33.367739133429545
