Raman shift cm-1,4ATP_10uM_rep1_acc5_processed_intensity
-93.47115107,661.1463747295466
-87.69374369,135.8600212508474
-81.9253076,-1.0998557489761396
-76.16582701,124.0439792367402
-70.41528615,88.96899281188698
-64.67366933,-41.583000316937074
-58.94096086,-2.8315211705859937
-53.21714512,41.60302273767302
-47.50220652,63.37071763987969
-41.79612954,176.44896293608596
-36.09889866,244.2457731855849
-30.41049843,212.798424721437
-24.73091343,112.27802053453821
-19.0601283,82.0486883670241
-13.39812769,97.7597382986147
-7.744896327,-24.84679472858633
-2.100418946,24.913961215335192
3.535319659,134.44672960533566
9.162334658,32.41096962698587
14.78064118,80.43125439887027
20.39025432,22.66452693109256
25.99118913,-21.142732782030123
31.58346061,298.13674417224513
37.16708375,243.0308754040449
42.74207347,26.43088943185746
48.30844468,87.53880161558595
53.86621222,-5.929396769729401
59.41539093,-82.08222117587212
64.95599558,-2.2200383230981657
70.48804091,131.00335824175824
76.01154164,146.02377394264906
81.52651243,-16.681099305493852
87.03296792,101.89789120905297
92.5309227,236.8213362978784
98.02039134,39.24289326487825
103.5013884,44.7721421739314
108.9739282,164.78034049154837
114.4380255,68.54905724469735
119.8936944,235.96800931637574
125.3409495,448.0515517047476
130.779805,164.3264288513295
136.2102753,-80.46659231588161
141.6323747,29.04923530946054
147.0461174,134.07303702981295
152.4515176,31.712618859133062
157.8485895,-42.66195843457186
163.2373472,-8.742815055856042
168.6178049,11.63724324598425
173.9899766,159.14336954728225
179.3538764,138.72808474273978
184.7095182,14.241796940956906
190.0569161,143.8170602736958
195.396084,133.28613648043216
200.7270358,34.15091674170081
206.0497854,-1.5406618768510185
211.3643466,1.1549110659648427
216.6707333,73.25420575321431
221.9689593,-2.4416771160829462
227.2590382,2.058815727733047
232.5409839,31.46085116824863
237.8148101,-23.382491929807365
243.0805303,22.217721062095265
248.3381582,-29.191782613907353
253.5877075,-34.22114289306737
258.8291917,42.75487786554816
264.0626244,65.9990115282006
269.288019,157.73882479694026
274.5053891,116.08453638593326
279.7147481,-33.717316810514646
284.9161094,-6.550807949981811
290.1094865,96.69366601435743
295.2948927,563.7039964127895
300.4723414,1768.368304655431
305.6418459,3177.733428360299
310.8034194,4518.203402309635
315.9570752,5690.821542291582
321.1028267,6196.250559732458
326.2406869,6420.732250867343
331.370669,6855.92974544704
336.4927863,7133.863196468676
341.6070517,7236.129744166516
346.7134786,7460.463571965595
351.8120798,7625.791388460852
356.9028684,7638.403712573188
361.9858576,7766.233597393036
367.0610602,8172.658690510249
372.1284892,9180.179615815892
377.1881577,11634.864047749092
382.2400784,16733.181646232737
387.2842644,23160.349604350955
392.3207284,25758.254995694722
397.3494833,22621.22999900056
402.370542,17677.74294886567
407.3839172,13629.912582942334
412.3896217,10653.080770246557
417.3876683,8786.790025758639
422.3780697,7481.194711138546
427.3608386,6732.5922432236885
432.3359876,6825.468944016898
437.3035295,6965.02250211228
442.2634769,6487.454906004066
447.2158423,5546.659481087807
452.1606383,4692.89627292291
457.0978776,4146.515918025056
462.0275727,3854.7344156468807
466.9497361,3777.7119919249735
471.8643802,3606.9386086108266
476.7715176,3638.023199000261
481.6711608,4095.0469350073554
486.5633221,4215.267660252956
491.448014,3896.121439270967
496.3252488,3543.4905253258444
501.195039,3303.3444508063153
506.0573969,3232.647327015265
510.9123349,2902.023856492374
515.7598651,2539.9184353553082
520.6,2658.296013490573
525.4327518,2738.809945873648
530.2581327,2351.5071101071285
535.076155,1926.8917895796408
539.8868309,1985.9790998918356
544.6901726,1809.2560839688904
549.4861922,1269.9335887716247
554.2749019,1103.2461787401598
559.0563139,746.3673273787294
563.8304402,534.7757574655188
568.597293,920.1946649497136
573.3568844,888.4952020231858
578.1092263,628.9613905977153
582.8543308,783.6839198073026
587.5922101,758.5638330092916
592.322876,352.13851044048533
597.0463405,240.3026023001753
601.7626157,378.47333559562003
606.4717135,287.85454258484424
611.1736458,34.60257096591067
615.8684246,0.7587691949343025
620.5560617,162.02365851709874
625.2365691,339.6698693931103
629.9099585,1039.715441457895
634.5762419,1785.2013960907261
639.2354312,1825.629909259094
643.887538,1514.0184140317897
648.5325743,904.043016845631
653.1705518,488.7288184483764
657.8014823,342.82899637374885
662.4253775,-9.14400117528794
667.0422493,-19.333109147030427
671.6521092,217.74273292121097
676.2549691,232.29335490988933
680.8508407,288.2652024662598
685.4397355,363.7272686932761
690.0216654,309.87923276772835
694.5966419,571.1922356145737
699.1646767,1099.070851214492
703.7257814,1209.9418382517865
708.2799676,1199.0922283543234
712.827247,1452.0554915940745
717.367631,1479.6676080484
721.9011314,1033.044772250376
726.4277595,545.8043193940155
730.9475271,362.3451023711368
735.4604456,389.6127618347998
739.9665264,595.0568919446257
744.4657813,732.5333723135532
748.9582215,563.0677599065825
753.4438587,386.51455407819617
757.9227042,238.50012596033184
762.3947696,-27.960394383028188
766.8600662,38.969513464490774
771.3186056,293.2525115169233
775.770399,197.4027372628816
780.215458,176.94728747146587
784.6537939,176.02876920676454
789.0854181,125.23530505968142
793.510342,607.5087233776462
797.9285769,1196.0727070468495
802.3401342,1402.841667607496
806.7450253,1540.7525842466653
811.1432614,1606.8108606353435
815.5348538,1422.2141325918453
819.9198139,1225.3468932981705
824.2981531,1061.5122151184407
828.6698824,736.641101503395
833.0350133,487.3988011767227
837.393557,420.6591332795937
841.7455248,258.0188125303457
846.0909278,149.44432924214357
850.4297774,131.01239268120827
854.7620848,-6.957473260726317
859.0878611,25.49063943798319
863.4071176,32.92399550211826
867.7198655,-47.85213257207138
872.026116,294.7890889571908
876.3258802,379.72632588561066
880.6191693,68.04737216199618
884.9059946,287.70824681710735
889.186367,407.1874505452982
893.4602979,-5.3135192232049775
897.7277982,-14.409872268380715
901.9888793,370.3218076726849
906.2435521,605.4747181555392
910.4918277,565.3132027849763
914.7337174,628.8164806997004
918.9692321,1096.1799945092291
923.1983831,1201.3395371269328
927.4211813,1169.671916044995
931.6376378,1427.10524007711
935.8477637,1355.0736336223124
940.0515701,1423.0591421027593
944.249068,1549.638787506803
948.4402684,1448.0165767459819
952.6251825,1572.7777889504227
956.8038212,1716.0163887601707
960.9761955,1914.2821210906009
965.1423166,1860.6986242352539
969.3021953,1699.529719183601
973.4558427,1875.7751835089744
977.6032699,1766.7276361614583
981.7444877,1691.693172006285
985.8795072,1720.1233185913543
990.0083394,1587.014437145144
994.1309953,1947.7713891209416
998.2474857,2686.5931102472655
1002.357822,3882.1669394131713
1006.462014,4732.239833961106
1010.560075,3609.4958409830047
1014.652013,1841.7018887965037
1018.737841,910.4629917087549
1022.81757,333.40127282663514
1026.891209,-13.958888465349787
1030.958771,-45.28797681476789
1035.020266,47.38955931726093
1039.075705,14.01715463310677
1043.1251,87.31101046250967
1047.16846,582.8643142824785
1051.205797,962.5647808479793
1055.237121,1546.247173005429
1059.262444,3303.353737747204
1063.281777,6407.555552747002
1067.295131,11702.136131756892
1071.302515,18675.548208043136
1075.303942,24786.32226889509
1079.299422,26953.15816526528
1083.288966,21886.924355861505
1087.272585,12644.203004668469
1091.250289,5761.443303653722
1095.222091,2124.7703706483735
1099.187999,628.1827685163776
1103.148026,275.13256861300033
1107.102183,-9.699312323377399
1111.050479,-8.762966420223847
1114.992927,20.516955208313448
1118.929536,373.01455028489204
1122.860318,1384.7153594339889
1126.785283,2696.0715650443817
1130.704443,5241.255915200511
1134.617808,8985.604336036922
1138.52539,12033.82289436894
1142.427198,12710.969041179644
1146.323244,10544.76463758184
1150.213538,7503.690862161833
1154.098093,5454.360519738211
1157.976917,4314.405959814158
1161.850023,4202.092673900186
1165.717421,4751.094938409236
1169.579121,5176.008031497244
1173.435135,5178.183611261157
1177.285474,4804.1231112762
1181.130148,4640.796718072454
1184.969169,4338.183234330085
1188.802547,3460.3484397629313
1192.630292,2427.712738477416
1196.452416,1473.512475253262
1200.26893,676.4625794721082
1204.079844,130.3342775367861
1207.88517,24.039190930166683
1211.684917,40.451692419362644
1215.479098,277.3930204984125
1219.267722,578.8293148990815
1223.050801,216.4587844878041
1226.828346,110.6385582602237
1230.600366,328.69403911220354
1234.366874,255.06678394897227
1238.12788,253.8598044337956
1241.883395,205.9758315408963
1245.633429,368.1657560239601
1249.377994,435.6148086237795
1253.1171,75.597525850642
1256.850759,-13.48490406634329
1260.578981,-19.2568718104841
1264.301776,46.74495916072519
1268.019157,181.59420050597686
1271.731133,-65.95191690688816
1275.437715,-97.97306576166828
1279.138915,216.1045982543599
1282.834743,264.80602471822976
1286.52521,40.21546079958938
1290.210328,-13.704097386851998
1293.890106,409.5037460558371
1297.564555,761.3168045725108
1301.233688,735.9723756719332
1304.897514,723.9939222034029
1308.556044,716.9929692677467
1312.209289,420.3584572713151
1315.857261,9.232553777130192
1319.499969,-12.351484443028767
1323.137425,39.058571232862505
1326.769641,-10.246129516421206
1330.396626,38.97041156465241
1334.018391,-0.5949941887012073
1337.634948,94.10894017649912
1341.246307,213.35440863986582
1344.85248,231.03005414230415
1348.453477,357.81062896712547
1352.049309,472.54859139808616
1355.639987,690.1319320124751
1359.225522,872.1628218831188
1362.805925,898.1544505460859
1366.381207,1071.9677756212645
1369.951379,1210.9998494573629
1373.516452,1417.3837340297107
1377.076436,2104.5288235550843
1380.631343,2989.5253911982127
1384.181184,4083.534242924712
1387.725969,5279.649391122659
1391.26571,5323.908203164683
1394.800417,3871.078418619444
1398.330102,2167.036193348529
1401.854776,974.3553862455785
1405.374448,264.51328023927044
1408.889132,1.9135911693799699
1412.398837,104.79188863460195
1415.903574,853.3491328472085
1419.403355,2366.078782332565
1422.89819,4115.997829840488
1426.388091,5965.477062901031
1429.873069,7294.99888104258
1433.353134,7300.274126712231
1436.828298,6483.551758156663
1440.298571,5204.7090848197
1443.763965,3662.936991611239
1447.224491,2423.0588129418893
1450.68016,1618.7024248455025
1454.130983,1083.3580889584543
1457.576971,727.1375413584587
1461.018135,671.5557922752866
1464.454486,754.1598536417719
1467.886036,820.2627872289945
1471.312794,933.7881569634947
1474.734774,905.3875603644642
1478.151985,850.9385912458158
1481.564439,983.6198926542154
1484.972146,1053.533883093046
1488.375119,1140.8623699250393
1491.773368,1321.5514663650947
1495.166904,971.7440405792963
1498.555739,376.26035079885105
1501.939883,140.8302165890043
1505.319349,-39.638185433592525
1508.694146,-24.34347764669883
1512.064286,132.96087429885597
1515.429781,37.80575491691229
1518.790642,31.24225425085683
1522.146879,223.43944385307123
1525.498505,268.59878803746415
1528.845529,489.52195306741305
1532.187965,1141.266894690682
1535.525822,1694.3487329545808
1538.859112,2251.801706880531
1542.187846,2866.1770265730092
1545.512036,3327.211521280802
1548.831693,4046.419675505277
1552.146829,4485.187783193995
1555.457453,4392.119794754721
1558.763579,4644.762190889548
1562.065216,5166.996701830722
1565.362377,5650.475386637717
1568.655073,6189.8875060010405
1571.943315,6607.186479098079
1575.227114,6748.85168763944
1578.506482,6927.066270163611
1581.781431,7260.478664212366
1585.051971,7586.49291647745
1588.318114,8139.083018048255
1591.579872,8375.741310701307
1594.837255,7635.805962269834
1598.090275,6139.080367240892
1601.338945,4482.778827428321
1604.583274,3231.881196039093
1607.823275,2100.009264110459
1611.058959,1631.8452770675299
1614.290338,1737.1410014043497
1617.517422,1186.0771650047334
1620.740224,882.4148883857359
1623.958755,986.4519095412012
1627.173027,751.5378410542919
1630.38305,691.9090259813094
1633.588838,621.5957942644554
1636.7904,473.53960030260276
1639.987749,554.9116382628679
1643.180896,416.7595582854823
1646.369853,261.2884171248182
1649.554632,389.22154598889387
1652.735244,218.40944130093186
1655.9117,-19.31663884673555
1659.084013,191.81468600452638
1662.252193,278.1086902073299
1665.416254,-13.544720367515737
1668.576205,-54.2419679438089
1671.732059,207.14748125658554
1674.883828,194.6792440947705
1678.031523,27.66517323956535
1681.175157,42.37005705037016
1684.314739,31.88347957004021
1687.450284,24.641431649549396
1690.581801,92.20394866489568
1693.709304,-4.911866159670719
1696.832803,-42.2465509079143
1699.952311,144.5322585209392
1703.067839,173.92669922094103
1706.179399,185.84733229683434
1709.287003,256.50128161094995
1712.390663,107.70059630292192
1715.49039,100.42764235125746
1718.586197,190.28209035540988
1721.678095,103.04743496365643
1724.766096,31.63901395843489
1727.850213,-39.140187231365786
1730.930456,18.1287576071094
1734.006838,69.69064494822604
1737.079372,-38.04195170606765
1740.148067,103.38077885943534
1743.212938,300.08184222084475
1746.273996,176.42526934212984
1749.331252,24.548203209290026
1752.384718,84.97474763236772
1755.434408,164.07835880588607
1758.480332,115.45684670104029
1761.522503,81.44524470840852
1764.560933,17.667650528027636
1767.595634,-20.1535255477625
1770.626618,171.83678105711238
1773.653896,206.61412815503286
1776.677482,-4.325364564429524
1779.697388,91.90675355816387
1782.713625,294.22901650187816
1785.726205,239.33225946705744
1788.735141,241.74962217743573
1791.740445,170.46438195526366
1794.742129,26.66539875670768
1797.740206,234.04532578529404
1800.734687,344.7003951842936
1803.725585,169.31858412849772
1806.712912,168.77158410753307
1809.69668,184.92706656937145
1812.676902,20.316056273097466
1815.65359,-76.54868351502256
1818.626756,-21.40238610398946
1821.596413,43.07715008890288
1824.562573,83.93616661916047
1827.525247,118.77170616393019
1830.48445,116.87365388769153
1833.440192,29.260887488041966
1836.392487,8.934135708234642
1839.341347,150.50173939674687
1842.286784,94.58594393330483
1845.22881,11.325419068328827
1848.167439,209.481102509194
1851.102682,168.91981548364504
1854.034553,-87.95448703586261
1856.963063,10.289782209569907
1859.888226,233.92358059985432
1862.810053,140.2963194849006
1865.728557,45.12540619063785
1868.643751,153.2324396963402
1871.555648,35.743984716303395
1874.46426,-32.909237633347246
1877.369599,211.51210505683827
1880.271679,155.0025330770801
1883.170512,32.54068264503608
1886.06611,174.4314372950813
1888.958487,79.87055872319355
1891.847655,-35.11161186189017
1894.733626,132.31362133500335
1897.616414,110.32819376620746
1900.496032,-13.513606721085779
1903.372491,160.44504158725007
1906.245805,286.7701740883341
1909.115987,237.63991119409826
1911.983049,176.30662075653913
1914.847004,105.20014577586409
1917.707866,188.5014984281367
1920.565646,215.24150309076785
1923.420359,96.34356489179864
1926.272016,29.156283316850978
1929.120631,-35.58466766406386
1931.966216,10.729778958645952
1934.808786,8.691376747473498
1937.648351,-15.449555089023434
1940.484927,90.84848440147715
1943.318525,34.02034124537907
1946.149158,231.59498712498524
1948.97684,529.6795667624483
1951.801584,231.349453967993
1954.623403,75.02995471151237
1957.44231,191.23366520040963
1960.258318,9.533044550003787
1963.071439,-55.24736995326714
1965.881688,86.97145880136054
1968.689078,96.7098347925789
1971.493621,26.42857329564281
