Raman shift cm-1,4ATP_100nM_rep2_acc2_processed_intensity
-93.47115107,507.23734177156894
-87.69374369,61.73185131088669
-81.9253076,-26.21819351740102
-76.16582701,111.27978594063629
-70.41528615,132.55094240861433
-64.67366933,6.294283914532912
-58.94096086,-69.58851853982186
-53.21714512,-18.115848849878695
-47.50220652,111.32373261417979
-41.79612954,252.23801284695315
-36.09889866,325.93610150831455
-30.41049843,285.99683594971333
-24.73091343,189.31994165533033
-19.0601283,134.53858530031033
-13.39812769,100.06212140455453
-7.744896327,23.716199544609395
-2.100418946,-12.570981261968363
3.535319659,38.29763287671097
9.162334658,52.0476379747205
14.78064118,-19.755600817182636
20.39025432,-44.04634347571549
25.99118913,58.523143286800305
31.58346061,155.41943435521512
37.16708375,116.27335353353308
42.74207347,39.31628124712244
48.30844468,25.480647618897393
53.86621222,-23.401114323239575
59.41539093,-114.41764239139363
64.95599558,-67.09802938107077
70.48804091,58.60522181695205
76.01154164,20.137554198988386
81.52651243,-47.54464602580631
87.03296792,88.25755180886394
92.5309227,210.84009836673056
98.02039134,133.40446040719695
103.5013884,39.934271851251566
108.9739282,15.869968619318252
114.4380255,43.481239291212304
119.8936944,191.72016093216348
125.3409495,273.4294587401785
130.779805,68.38449480960209
136.2102753,-125.70154211346265
141.6323747,-23.48583540226676
147.0461174,119.98854484233212
152.4515176,62.6491516422679
157.8485895,-57.976724184496945
163.2373472,-60.089674633373406
168.6178049,36.24663492449781
173.9899766,83.37597201151749
179.3538764,44.1389241566305
184.7095182,47.94031027881015
190.0569161,125.90732914559946
195.396084,154.0405280554003
200.7270358,94.36764332416848
206.0497854,28.615839531756723
211.3643466,6.354665842763278
216.6707333,6.0559449860840875
221.9689593,-9.077653769234868
227.2590382,-29.30575140943062
232.5409839,-10.104473767458465
237.8148101,26.337916026924795
243.0805303,0.4079477240447744
248.3381582,-53.179302827607806
253.5877075,-21.301193426185804
258.8291917,43.735841619263496
264.0626244,37.80286324124935
269.288019,25.317145053792483
274.5053891,25.187500247555878
279.7147481,-51.72735722627232
284.9161094,-125.74581530142206
290.1094865,44.7745556713285
295.2948927,782.8316971007059
300.4723414,2420.731179335357
305.6418459,4796.281983711951
310.8034194,7054.0974373023955
315.9570752,8421.086816974934
321.1028267,8891.610926290754
326.2406869,8952.897540408785
331.370669,8980.938715917671
336.4927863,9083.293364179868
341.6070517,9266.303341675362
346.7134786,9459.321710871804
351.8120798,9501.37528109678
356.9028684,9361.138423046008
361.9858576,9194.652459247112
367.0610602,9078.297803607824
372.1284892,9051.36553575192
377.1881577,9444.126296906088
382.2400784,10633.648488166862
387.2842644,12238.198965212447
392.3207284,13084.473286479239
397.3494833,12483.536716928968
402.370542,10964.59247361779
407.3839172,9384.22250117145
412.3896217,8128.154548353081
417.3876683,7236.887008033812
422.3780697,6599.091233372581
427.3608386,6103.073364340451
432.3359876,5754.998196691802
437.3035295,5502.406969178983
442.2634769,5156.390291177535
447.2158423,4663.8787970046815
452.1606383,4189.229448897855
457.0978776,3867.3351299600636
462.0275727,3720.452129374504
466.9497361,3703.8766458376085
471.8643802,3744.942669360008
476.7715176,3879.7290430769017
481.6711608,4139.810533077789
486.5633221,4241.662969386335
491.448014,3862.353973330718
496.3252488,3234.2912953025634
501.195039,2834.1444943448496
506.0573969,2595.6065830329526
510.9123349,2198.238649494182
515.7598651,1807.4553369668747
520.6,1691.615199639914
525.4327518,1628.2884446327644
530.2581327,1423.717211208589
535.076155,1296.100505603643
539.8868309,1290.9640918690657
544.6901726,1186.8349155009282
549.4861922,959.9046332475782
554.2749019,642.6321454839335
559.0563139,312.44301992412875
563.8304402,283.4473418652442
568.597293,460.1780091778901
573.3568844,332.58320845149774
578.1092263,37.32858594565914
582.8543308,10.325360340813859
587.5922101,65.26235025311689
592.322876,27.970900504500605
597.0463405,87.53610664419011
601.7626157,130.04732963531023
606.4717135,-17.062959665374365
611.1736458,-101.94785123708698
615.8684246,-10.287869017748562
620.5560617,18.730744665792372
625.2365691,-12.211104998285009
629.9099585,96.3351182839533
634.5762419,231.95415925023735
639.2354312,184.13641984640253
643.887538,57.350761942125246
648.5325743,44.018735925978035
653.1705518,66.01468861594549
657.8014823,-40.07722378392464
662.4253775,-154.69169945569683
667.0422493,-100.22694964953916
671.6521092,7.035362634253943
676.2549691,42.05398975610569
680.8508407,49.212868457126206
685.4397355,26.640406663132126
690.0216654,8.892017086979195
694.5966419,100.06859637524121
699.1646767,268.20400746175346
703.7257814,467.10804197193784
708.2799676,714.7037918882243
712.827247,882.9052243625665
717.367631,789.5842830266265
721.9011314,468.4830828141626
726.4277595,157.3471329426875
730.9475271,60.83410489989865
735.4604456,160.87642727247885
739.9665264,293.3166415216656
744.4657813,315.22009110188355
748.9582215,184.40688413853604
753.4438587,10.137051900800088
757.9227042,-74.69466092426956
762.3947696,-56.92016089270919
766.8600662,54.98174686584616
771.3186056,222.02481863347157
775.770399,296.54259131046274
780.215458,182.4147468522815
784.6537939,-2.5362488853147624
789.0854181,-10.563103782519192
793.510342,172.2819973584633
797.9285769,279.4835985245579
802.3401342,286.8845829480956
806.7450253,362.26751621044605
811.1432614,369.5497725898972
815.5348538,190.4129531138817
819.9198139,68.44397031452513
824.2981531,115.68064553207091
828.6698824,116.6751133856053
833.0350133,6.124268388861083
837.393557,-49.704068461818906
841.7455248,-18.878420053798322
846.0909278,17.74274312384921
850.4297774,58.73054338500776
854.7620848,57.53616642925533
859.0878611,-33.77319976322667
863.4071176,-39.06786097378961
867.7198655,168.6455163596939
872.026116,338.91113861290665
876.3258802,275.772037886544
880.6191693,241.8174434439121
884.9059946,372.64405389966515
889.186367,283.91654020423834
893.4602979,-82.52036715221215
897.7277982,-169.58928379180253
901.9888793,105.60111505644005
906.2435521,211.7061756869436
910.4918277,68.61216202271811
914.7337174,59.16648287010918
918.9692321,221.87483896158597
923.1983831,277.8754540811892
927.4211813,152.41508497629547
931.6376378,19.083822634499825
935.8477637,3.0880956791658036
940.0515701,37.696284232875996
944.249068,16.651891942574252
948.4402684,-32.314105103651514
952.6251825,-26.19956876177855
956.8038212,49.81645274201321
960.9761955,133.41890352744963
965.1423166,151.20964650009398
969.3021953,114.26190208057994
973.4558427,56.80714662082585
977.6032699,-10.940563118726459
981.7444877,-30.156517259746124
985.8795072,12.84735196427323
990.0083394,34.72327395426828
994.1309953,12.813125939159022
998.2474857,37.10672620381621
1002.357822,203.21309030332947
1006.462014,432.4027005347453
1010.560075,471.1377786094041
1014.652013,256.7747724726988
1018.737841,34.87967879251718
1022.81757,-47.905371647073906
1026.891209,-75.52468862519227
1030.958771,-65.61697622845561
1035.020266,-0.6675018780143582
1039.075705,13.506109748069381
1043.1251,-5.421036157228343
1047.16846,113.3431532315712
1051.205797,384.9468401174775
1055.237121,764.1839913996555
1059.262444,1472.1418542203287
1063.281777,2909.2024874148733
1067.295131,5000.993048336423
1071.302515,6849.928868778804
1075.303942,7537.775064527575
1079.299422,6810.369436488292
1083.288966,4922.3697271728415
1087.272585,2687.8742248424205
1091.250289,1105.4367694835332
1095.222091,363.27463808321545
1099.187999,43.393336196215245
1103.148026,-44.37441757469962
1107.102183,7.794874428879012
1111.050479,48.48557677863468
1114.992927,194.8900355758968
1118.929536,641.0835280344053
1122.860318,1342.9028211984419
1126.785283,2409.0331594588893
1130.704443,4173.210834269818
1134.617808,6327.0135876381155
1138.52539,7606.906973694922
1142.427198,6993.612570163107
1146.323244,4992.858303889804
1150.213538,3042.277944293431
1154.098093,1854.1753828292076
1157.976917,1232.8508581743351
1161.850023,951.6833467511284
1165.717421,886.7731346789195
1169.579121,888.5940037405671
1173.435135,915.1693122090834
1177.285474,1037.330098643372
1181.130148,1311.6311076712689
1184.969169,1602.2039952031362
1188.802547,1620.3147654282504
1192.630292,1265.686376667042
1196.452416,760.4210248990643
1200.26893,372.11861388287787
1204.079844,133.6882662981974
1207.88517,-37.03283679301649
1211.684917,-43.91010799020471
1215.479098,159.8164209710437
1219.267722,234.4690837838969
1223.050801,34.57135550513657
1226.828346,-61.94958140461347
1230.600366,40.82766731213766
1234.366874,63.99600071127709
1238.12788,24.757780725695916
1241.883395,91.9970701903421
1245.633429,220.88640009872103
1249.377994,259.7170951065632
1253.1171,141.13431441596316
1256.850759,11.878078830712706
1260.578981,51.3677496692666
1264.301776,151.59238898080204
1268.019157,91.58549561183324
1271.731133,-69.98478599943596
1275.437715,-45.24918380517306
1279.138915,214.48374012889883
1282.834743,329.6043458362392
1286.52521,107.30351306491076
1290.210328,-42.97666365331263
1293.890106,167.2717945653326
1297.564555,422.8423028247519
1301.233688,487.5314135619876
1304.897514,529.3982572833885
1308.556044,539.5799104624673
1312.209289,318.8712192817092
1315.857261,44.385991659090486
1319.499969,-5.500699405734835
1323.137425,33.380978211465305
1326.769641,31.170304995512623
1330.396626,60.72236470117309
1334.018391,26.603323854263394
1337.634948,-90.61494873628244
1341.246307,-90.27297379246077
1344.85248,-12.243186475051345
1348.453477,-6.067724904029632
1352.049309,68.32193524284969
1355.639987,299.3199783780053
1359.225522,454.12914195347577
1362.805925,442.8363527124988
1366.381207,477.7751912953814
1369.951379,636.9452932917375
1373.516452,860.4802359877602
1377.076436,1221.8782100406022
1380.631343,1811.439589463464
1384.181184,2549.053322998985
1387.725969,3073.4153533168333
1391.26571,2914.384805296345
1394.800417,2098.8559706649685
1398.330102,1203.5206563010845
1401.854776,617.8756680700958
1405.374448,247.75862675887595
1408.889132,-26.118365580592126
1412.398837,-2.7697200561965474
1415.903574,569.6439025167679
1419.403355,1570.8105611375595
1422.89819,2643.693082130618
1426.388091,3527.9093151974694
1429.873069,3971.612238032436
1433.353134,3742.401381500704
1436.828298,2950.950867381873
1440.298571,1981.5708054295499
1443.763965,1118.6657731915525
1447.224491,499.462678790388
1450.68016,176.49261153591124
1454.130983,42.73089659498379
1457.576971,-12.484674686674737
1461.018135,23.26574351023379
1464.454486,65.90548241479894
1467.886036,6.579296277980006
1471.312794,-32.50067150748836
1474.734774,69.83652834655831
1478.151985,188.2692250950219
1481.564439,145.84373635054519
1484.972146,-29.54067030809746
1488.375119,-120.76273057469427
1491.773368,-35.49586218656888
1495.166904,45.425217809403776
1498.555739,6.904232559884317
1501.939883,-51.7057902379086
1505.319349,-53.24890833453463
1508.694146,-1.8897416244826175
1512.064286,35.95357067274618
1515.429781,35.97557563517937
1518.790642,102.05994997255094
1522.146879,153.83411531280026
1525.498505,43.85483117091578
1528.845529,-10.092706573926645
1532.187965,147.5656251578756
1535.525822,314.8544954564584
1538.859112,373.59709090581606
1542.187846,392.56869493499084
1545.512036,506.63849334528004
1548.831693,760.7765820765972
1552.146829,916.6777761983609
1555.457453,863.784828186947
1558.763579,925.3511276740344
1562.065216,1317.2728702424133
1565.362377,1829.8602722039823
1568.655073,2173.924923633207
1571.943315,2279.757114502866
1575.227114,2323.874249089038
1578.506482,2462.444722116391
1581.781431,2560.643186475234
1585.051971,2478.0982699522165
1588.318114,2304.134366958261
1591.579872,2018.7572796618622
1594.837255,1495.5650826527278
1598.090275,928.0998686841101
1601.338945,615.1732532766036
1604.583274,438.2448433042936
1607.823275,176.76120393557073
1611.058959,-17.383032298077097
1614.290338,-18.76868416770329
1617.517422,19.015896756540158
1620.740224,34.50189464508623
1623.958755,46.9536295634022
1627.173027,0.2942532762893961
1630.38305,-69.1200200928198
1633.588838,-64.7800123549808
1636.7904,4.301918247195616
1639.987749,39.171969209563514
1643.180896,1.6809384736977293
1646.369853,18.32064079810224
1649.554632,102.99185591258836
1652.735244,66.86773190367398
1655.9117,-24.054749954844983
1659.084013,16.087521140904016
1662.252193,28.470102105504328
1665.416254,-69.08402156964338
1668.576205,-33.74664144963399
1671.732059,111.51979200197641
1674.883828,102.87878467827676
1678.031523,-3.3081073243039256
1681.175157,-12.107054592960907
1684.314739,31.808818890008116
1687.450284,25.397459859643853
1690.581801,-7.612207130003746
1693.709304,-12.612802259097109
1696.832803,-4.7550544195578155
1699.952311,-17.628475713343974
1703.067839,12.627770646427258
1706.179399,120.92216300353365
1709.287003,173.39310562754156
1712.390663,124.77425258438686
1715.49039,126.72544045716947
1718.586197,193.1478982953372
1721.678095,156.00294379779376
1724.766096,17.126095201101947
1727.850213,-42.492365485612495
1730.930456,5.926333941385998
1734.006838,24.905317348242896
1737.079372,-2.4853970454681757
1740.148067,56.038231183328854
1743.212938,191.26831887813
1746.273996,220.44990258726608
1749.331252,133.40918820927382
1752.384718,104.19592638889047
1755.434408,173.2227265192182
1758.480332,231.84423968693926
1761.522503,158.07328068777747
1764.560933,-38.46788373963183
1767.595634,-98.43679065955128
1770.626618,96.78122947738025
1773.653896,232.1748524974647
1776.677482,134.51713015903522
1779.697388,61.84918562307282
1782.713625,147.81016922382133
1785.726205,221.0076696760767
1788.735141,157.17604585894264
1791.740445,22.169683058146575
1794.742129,-16.560238077466085
1797.740206,103.11760772161078
1800.734687,215.67826173428006
1803.725585,168.39289986164687
1806.712912,55.885300424056084
1809.69668,24.93709988471721
1812.676902,33.60788448001685
1815.65359,-0.8846988316356352
1818.626756,-46.53842496602984
1821.596413,-64.86868536765421
1824.562573,-40.59449241879062
1827.525247,22.035745160147396
1830.48445,38.46405737777399
1833.440192,-9.280067226835483
1836.392487,-10.811322209756437
1839.341347,25.01146435105468
1842.286784,-6.076988824264342
1845.22881,-36.58048057957746
1848.167439,14.058075011284501
1851.102682,31.757240360578777
1854.034553,6.231077244667205
1856.963063,90.2505300343072
1859.888226,203.61466145103142
1862.810053,164.17315429638043
1865.728557,58.92764618546469
1868.643751,-12.405363033780338
1871.555648,-83.06968515698276
1874.46426,-72.17931440335575
1877.369599,24.541705020160656
1880.271679,36.90446949992143
1883.170512,-5.327541082984765
1886.06611,13.305810838994473
1888.958487,26.482027621443272
1891.847655,17.18934709072196
1894.733626,26.37548775016652
1897.616414,-10.075883724067875
1900.496032,-69.34801205150099
1903.372491,-32.01511977484516
1906.245805,54.70275949109399
1909.115987,53.160903510257654
1911.983049,-7.066096919285606
1914.847004,8.840080616084357
1917.707866,94.20720356312309
1920.565646,114.23299035189983
1923.420359,34.45037067224712
1926.272016,-56.23039326656835
1929.120631,-92.15768219043696
1931.966216,-66.63477530146615
1934.808786,0.39511095974991806
1937.648351,53.17230349604032
1940.484927,41.54135844593053
1943.318525,59.14003972963067
1946.149158,208.77607124161537
1948.97684,310.04956089817233
1951.801584,199.17760913631037
1954.623403,57.77351335394635
1957.44231,7.576346066999298
1960.258318,-48.43319334931225
1963.071439,-74.79633248358745
1965.881688,-0.7689201224208118
1968.689078,50.53644608826668
1971.493621,-11.873831435774576
