Raman shift cm-1,4ATP_1fM_rep1_acc5_processed_intensity
-93.47115107,1213.4686292498059
-87.69374369,133.23164982701695
-81.9253076,-78.20908142611293
-76.16582701,230.92791072495012
-70.41528615,249.27309432854315
-64.67366933,-47.72158052636543
-58.94096086,-143.22370569202786
-53.21714512,-37.72913353720537
-47.50220652,21.116129690607274
-41.79612954,209.80214990803418
-36.09889866,454.4470291133363
-30.41049843,351.10066114403384
-24.73091343,114.2797001410751
-19.0601283,130.30567842027784
-13.39812769,87.52395081382798
-7.744896327,-129.5930509489347
-2.100418946,-35.57937361657673
3.535319659,185.01498806516042
9.162334658,72.54136755511657
14.78064118,-66.53699847704726
20.39025432,-25.163137440170203
25.99118913,124.55958257904268
31.58346061,300.75814575975454
37.16708375,215.3697339285782
42.74207347,33.57331246928917
48.30844468,69.70312416338173
53.86621222,17.229320286987658
59.41539093,-235.39301039210352
64.95599558,-136.69185216423452
70.48804091,319.0639997627983
76.01154164,259.00813213093653
81.52651243,-74.3208497432227
87.03296792,230.53683226470105
92.5309227,429.14901131423613
98.02039134,78.98242453003307
103.5013884,55.27797115971819
108.9739282,115.58219125472098
114.4380255,2.583101297657765
119.8936944,405.6584408738478
125.3409495,729.8237757413812
130.779805,198.80262048360703
136.2102753,-217.5112529421877
141.6323747,88.35561194098655
147.0461174,328.7077467672755
152.4515176,149.88493105002476
157.8485895,-16.16355917627505
163.2373472,56.28352221692163
168.6178049,310.68303408557705
173.9899766,499.4225616862424
179.3538764,421.3422995623006
184.7095182,406.37153906262586
190.0569161,621.7447376799616
195.396084,653.9294668697964
200.7270358,437.90266618135064
206.0497854,303.8364746713491
211.3643466,330.8024881846697
216.6707333,384.9655912391532
221.9689593,381.54197545095997
227.2590382,367.6371189579454
232.5409839,337.26759921887026
237.8148101,208.39888307284903
243.0805303,193.16154350850076
248.3381582,265.1879499786528
253.5877075,12.174605849452405
258.8291917,141.47450917670199
264.0626244,304.6576211394579
269.288019,-323.5102972044613
274.5053891,718.9904518490894
279.7147481,982.4696586503946
284.9161094,1731.8353546811168
290.1094865,17784.83059832295
295.2948927,40715.60756469722
300.4723414,45601.37898512429
305.6418459,40476.2433293692
310.8034194,40166.28944334545
315.9570752,39526.079480469416
321.1028267,37962.91455295005
326.2406869,37958.45894027492
331.370669,37297.426798375294
336.4927863,36464.16937598228
341.6070517,36095.247578149225
346.7134786,35448.9387896053
351.8120798,34833.5141511305
356.9028684,34342.10209329777
361.9858576,33661.33743769737
367.0610602,32978.75696836847
372.1284892,32356.64985083633
377.1881577,31694.57600194807
382.2400784,31136.537872108653
387.2842644,30572.45849120618
392.3207284,29914.019674296913
397.3494833,29260.70097582395
402.370542,28498.81932514972
407.3839172,27759.01964944695
412.3896217,27247.045472190686
417.3876683,26676.90829338559
422.3780697,25842.082446523076
427.3608386,24958.038050601957
432.3359876,24041.535555349612
437.3035295,23067.616974066223
442.2634769,22451.232361662434
447.2158423,22034.70453562249
452.1606383,21273.43252580469
457.0978776,20496.513140868374
462.0275727,19902.862131055153
466.9497361,19230.650769726937
471.8643802,18533.651943529298
476.7715176,17724.61688097582
481.6711608,16783.97483015535
486.5633221,15965.732697824045
491.448014,15327.745449299025
496.3252488,14727.534419569009
501.195039,13895.585685628976
506.0573969,13005.277573476043
510.9123349,12502.369043120176
515.7598651,12074.414660721883
520.6,11282.651830313247
525.4327518,10468.118876653327
530.2581327,10012.946274305956
535.076155,9499.915942418982
539.8868309,8710.82046499331
544.6901726,8134.22078168275
549.4861922,7444.979535083501
554.2749019,6591.8586956692925
559.0563139,6372.458806355735
563.8304402,5960.497889963375
568.597293,4914.367134546981
573.3568844,4492.135844782089
578.1092263,4308.060394422679
582.8543308,3588.1366721151317
587.5922101,3154.242316582615
592.322876,3017.2321481881518
597.0463405,2480.876974221381
601.7626157,1944.5547353254733
606.4717135,1837.5165843830873
611.1736458,1648.6735691089416
615.8684246,1154.8901270531314
620.5560617,874.5432041160493
625.2365691,656.4266428400697
629.9099585,133.99493083410562
634.5762419,-67.51462738159898
639.2354312,113.01782322895087
643.887538,93.65475267723741
648.5325743,20.69545327985543
653.1705518,-19.41339636063276
657.8014823,-32.42809346191643
662.4253775,106.43627802747505
667.0422493,106.41516024105294
671.6521092,-61.84232278749187
676.2549691,-114.12852726300116
680.8508407,-83.39049945506122
685.4397355,-32.270603966306226
690.0216654,33.91027353338359
694.5966419,-8.047643416364735
699.1646767,-88.58856816349726
703.7257814,-33.59712167008183
708.2799676,20.474796254202374
712.827247,-32.84185754306964
717.367631,5.304956040556135
721.9011314,241.95843722269638
726.4277595,404.83021153196023
730.9475271,242.936273442534
735.4604456,14.479035807729815
739.9665264,-23.53332505326034
744.4657813,48.765266151811375
748.9582215,266.3035345652679
753.4438587,475.7019462791286
757.9227042,438.92933028201514
762.3947696,350.0319264015161
766.8600662,117.58422532818804
771.3186056,-216.457500198856
775.770399,-182.5328799360359
780.215458,-4.474147653530963
784.6537939,148.297815143982
789.0854181,300.08797306316774
793.510342,92.89612986986322
797.9285769,-107.0527053447804
802.3401342,47.09371530552744
806.7450253,45.630929130798904
811.1432614,-89.45564784200906
815.5348538,27.352634557326382
819.9198139,153.42834532878987
824.2981531,-4.097805091241753
828.6698824,-144.0960932129874
833.0350133,37.97327379511262
837.393557,146.71425229854503
841.7455248,-6.8139567334055755
846.0909278,62.81732065442884
850.4297774,207.50256863365576
854.7620848,31.61187240768413
859.0878611,13.147257814840486
863.4071176,307.6306091437036
867.7198655,285.25937799129133
872.026116,-114.89153434640684
876.3258802,-206.19864129257985
880.6191693,66.0027945627462
884.9059946,-11.490564976958922
889.186367,-127.95294401622778
893.4602979,342.809767621422
897.7277982,566.1263035244192
901.9888793,154.17391383158974
906.2435521,4.293588995060418
910.4918277,275.8257259742186
914.7337174,373.59515415197893
918.9692321,239.91032933139104
923.1983831,139.76052087587777
927.4211813,11.880158738496903
931.6376378,-74.42831413118802
935.8477637,-28.204837116740237
940.0515701,-52.665295547428286
944.249068,38.4051595092842
948.4402684,228.568264687593
952.6251825,118.30369405003512
956.8038212,-85.38213896150228
960.9761955,-101.07719598035055
965.1423166,-21.685755888875974
969.3021953,13.98101287719328
973.4558427,8.603233829004239
977.6032699,46.061222408377944
981.7444877,26.349764260251504
985.8795072,-8.471105323702432
990.0083394,24.610640253911697
994.1309953,2.1022385098958694
998.2474857,67.73746080933506
1002.357822,215.60881471629273
1006.462014,204.2094933392209
1010.560075,109.56425839854
1014.652013,-81.41889337448356
1018.737841,-257.21831155070095
1022.81757,-101.02563967826336
1026.891209,131.4304553756633
1030.958771,43.749720150855865
1035.020266,-122.07569297828559
1039.075705,8.648675255818944
1043.1251,130.27578059595908
1047.16846,14.282154837459075
1051.205797,25.55114024083332
1055.237121,106.00617720138234
1059.262444,192.33075016857447
1063.281777,396.6527307583483
1067.295131,301.3756623322088
1071.302515,54.59332742465449
1075.303942,13.172811040194802
1079.299422,-97.00467174782034
1083.288966,-86.18179264238574
1087.272585,49.55938063604685
1091.250289,-79.24486546769253
1095.222091,-135.31977858627965
1099.187999,46.49788568876579
1103.148026,125.11034212713378
1107.102183,32.154055124238084
1111.050479,-20.50588815028084
1114.992927,72.0253486291765
1118.929536,2.4118245243247998
1122.860318,-59.444434353854035
1126.785283,274.93811635842536
1130.704443,336.57409426785483
1134.617808,-16.043063899247386
1138.52539,-74.63638684202
1142.427198,20.461175880730323
1146.323244,14.96578757272811
1150.213538,-18.492950804864158
1154.098093,6.5989288195419995
1157.976917,205.9152275285714
1161.850023,252.7949315949519
1165.717421,46.317219479010035
1169.579121,-71.74942775979466
1173.435135,40.284366696082145
1177.285474,333.6804380127146
1181.130148,372.6760728719476
1184.969169,50.248891378780286
1188.802547,24.575305718828588
1192.630292,303.493430296149
1196.452416,317.7812085512073
1200.26893,275.96369349094607
1204.079844,432.84210696857895
1207.88517,514.7677889795928
1211.684917,451.47646556118605
1215.479098,63.59231443838931
1219.267722,-308.97213523193
1223.050801,59.03934245516942
1226.828346,382.3891108132491
1230.600366,73.77242349838339
1234.366874,-0.7464311438413631
1238.12788,224.09643493499675
1241.883395,106.49457691098283
1245.633429,-142.88788096840818
1249.377994,11.629092997558008
1253.1171,256.12818653084673
1256.850759,130.3858160746156
1260.578981,2.4432285189309058
1264.301776,31.860946658370544
1268.019157,45.014483182142484
1271.731133,208.3210890865682
1275.437715,281.09249694493536
1279.138915,-27.441492405584903
1282.834743,-194.28572668834227
1286.52521,77.45017190938901
1290.210328,234.9318927247364
1293.890106,-5.246557717536
1297.564555,-99.57538651486351
1301.233688,147.20005094882572
1304.897514,148.2403548259302
1308.556044,-102.11379233837114
1312.209289,28.057775649995136
1315.857261,323.45822917937824
1319.499969,193.2643635370991
1323.137425,-44.7929317320622
1326.769641,-79.61437536892907
1330.396626,-99.37039344964687
1334.018391,-58.08333872042054
1337.634948,54.20137813634156
1341.246307,135.9972555373443
1344.85248,198.4845805123912
1348.453477,267.89542100081525
1352.049309,299.1995825666247
1355.639987,107.13981489931624
1359.225522,-90.4287591084097
1362.805925,17.831413311874556
1366.381207,106.5557980949228
1369.951379,-2.736059346587119
1373.516452,-121.94809125046
1377.076436,-149.49839015983176
1380.631343,-28.87593887107274
1384.181184,52.883307267468986
1387.725969,26.94039502484687
1391.26571,127.08217243619765
1394.800417,218.79820496623194
1398.330102,92.95216948366942
1401.854776,-77.23764367485639
1405.374448,-73.53688985975586
1408.889132,208.33283074276414
1412.398837,407.1161158472299
1415.903574,71.45646034996163
1419.403355,-183.10812291371616
1422.89819,70.52986688952195
1426.388091,61.940596072071514
1429.873069,-132.7318296154921
1433.353134,67.82567353073212
1436.828298,126.20446358164364
1440.298571,-61.4600896471089
1443.763965,68.35392108262108
1447.224491,254.45717767126712
1450.68016,124.14880968160608
1454.130983,-39.914064674072115
1457.576971,-70.59923836980948
1461.018135,-107.88104794420882
1464.454486,-91.77455852676407
1467.886036,80.07792297997366
1471.312794,247.1747246150477
1474.734774,217.3610645813157
1478.151985,27.98166189566578
1481.564439,-54.16286603364614
1484.972146,150.77969390505126
1488.375119,297.7702213324808
1491.773368,23.957200228673088
1495.166904,-225.08762829044753
1498.555739,-60.2948061060571
1501.939883,195.04738625559196
1505.319349,247.47782974745203
1508.694146,68.86215217468082
1512.064286,-33.32098874037116
1515.429781,95.30173419627883
1518.790642,51.372960022583506
1522.146879,46.49046874855711
1525.498505,302.61897904723537
1528.845529,147.70959502636575
1532.187965,-97.46721083913025
1535.525822,75.99211889075897
1538.859112,26.46904718006988
1542.187846,-12.246506281416359
1545.512036,93.4200804380263
1548.831693,-257.8948128781157
1552.146829,-258.7150980983859
1555.457453,396.9658354465525
1558.763579,592.4396175552779
1562.065216,299.64276641550686
1565.362377,96.95687598751937
1568.655073,-3.0953561699059726
1571.943315,32.15598331908443
1575.227114,136.54480586525247
1578.506482,40.89595510558784
1581.781431,-100.0395177771778
1585.051971,-21.935634815067907
1588.318114,84.7498507194987
1591.579872,71.16037833714596
1594.837255,121.92341590237405
1598.090275,210.12585465222017
1601.338945,18.555380724211467
1604.583274,-185.95525499702984
1607.823275,-33.508010548659016
1611.058959,-38.90341902252813
1614.290338,-221.78004349382874
1617.517422,-62.83651272427431
1620.740224,90.69017454709106
1623.958755,98.05246707514883
1627.173027,216.66494810304198
1630.38305,192.98561183970884
1633.588838,93.79757474489091
1636.7904,81.89414090706174
1639.987749,-24.01934841618919
1643.180896,21.010508929923382
1646.369853,80.29543175411916
1649.554632,-127.70642758862148
1652.735244,74.44267092791094
1655.9117,426.494093845708
1659.084013,44.044321164968764
1662.252193,-244.17977358416263
1665.416254,104.68512198280965
1668.576205,137.1535134860398
1671.732059,-197.97554629601262
1674.883828,-152.56687815544294
1678.031523,84.04281224521762
1681.175157,53.19129625873692
1684.314739,-46.475061800633945
1687.450284,-5.022543535410861
1690.581801,99.09879411409429
1693.709304,190.2785384854345
1696.832803,122.39298109991624
1699.952311,-0.7239917869003634
1703.067839,55.79876435304574
1706.179399,28.761426431192145
1709.287003,-94.6663937627946
1712.390663,5.878767426638024
1715.49039,50.63654738077996
1718.586197,-133.21320777360756
1721.678095,-215.90208306832398
1724.766096,-67.7081776718264
1727.850213,147.3368328901883
1730.930456,131.4772858809615
1734.006838,14.419685113360472
1737.079372,115.04410206672372
1740.148067,19.297025647289235
1743.212938,-251.38939953232813
1746.273996,-49.96941779717111
1749.331252,188.23867984612727
1752.384718,55.54748084155949
1755.434408,52.24931231598168
1758.480332,100.10080237681987
1761.522503,55.19566237610154
1764.560933,253.3621634962186
1767.595634,334.10925912273615
1770.626618,12.086146972322013
1773.653896,-30.629564983516914
1776.677482,271.1426063997975
1779.697388,237.95021129180333
1782.713625,-33.98909829378252
1785.726205,-120.14439440083115
1788.735141,15.173548620338067
1791.740445,245.18123053064863
1794.742129,234.59764384195336
1797.740206,-16.499928320036844
1800.734687,-108.96404900069845
1803.725585,-43.815400881511415
1806.712912,11.937398880759755
1809.69668,37.31233375693479
1812.676902,64.40779685875812
1815.65359,98.46380566975445
1818.626756,34.801142013150226
1821.596413,-8.477925025756889
1824.562573,69.92060882870533
1827.525247,59.864278924851035
1830.48445,-24.983619318109845
1833.440192,-4.363652139153409
1836.392487,-21.544897481364856
1839.341347,-146.13380221207268
1842.286784,-44.18686700469651
1845.22881,155.0375862286917
1848.167439,8.36803379810457
1851.102682,-79.79823976326057
1854.034553,148.3138492344336
1856.963063,39.000310812872854
1859.888226,-308.13350705065415
1862.810053,-174.11427484194544
1865.728557,112.50496891319321
1868.643751,147.4667064337247
1871.555648,235.29881366993908
1874.46426,212.28053996257256
1877.369599,7.689194191504603
1880.271679,53.23361610841767
1883.170512,68.84338604019027
1886.06611,-103.79905703522621
1888.958487,16.062486426793242
1891.847655,124.314996246409
1894.733626,-85.29510631737293
1897.616414,-33.571245256988895
1900.496032,237.14438432855366
1903.372491,146.57814120587216
1906.245805,-107.18129900554078
1909.115987,-125.8718353271567
1911.983049,-27.184611321524656
1914.847004,-44.63843791072216
1917.707866,-106.53946509181473
1920.565646,4.094530303085936
1923.420359,147.28022204737132
1926.272016,134.2362250929185
1929.120631,136.42953416326662
1931.966216,227.68105611053406
1934.808786,228.27079763902003
1937.648351,89.54217491799808
1940.484927,124.0368005083083
1943.318525,250.6455764628953
1946.149158,-123.43087781534075
1948.97684,-451.9496137767625
1951.801584,-56.86419412333865
1954.623403,202.31660816401367
1957.44231,103.64327659012437
1960.258318,268.4455961628854
1963.071439,322.6850823670204
1965.881688,75.48484274539042
1968.689078,70.10797835883712
1971.493621,395.0375794256431
