Raman shift cm-1,4ATP_100uM_rep2_acc2_processed_intensity
-93.47115107,346.01385074076074
-87.69374369,32.07874612005723
-81.9253076,-17.052222059630953
-76.16582701,39.27025991561144
-70.41528615,171.5195963758967
-64.67366933,-94.04972040646149
-58.94096086,-89.36177664444146
-53.21714512,-60.85057124929618
-47.50220652,1.9022487533163996
-41.79612954,108.95792985139661
-36.09889866,58.810543746489344
-30.41049843,58.25976520854948
-24.73091343,26.11788740892399
-19.0601283,-60.292684108813944
-13.39812769,54.149868198697476
-7.744896327,8.250173511858605
-2.100418946,-14.56213178781897
3.535319659,125.07512337942339
9.162334658,-154.95969544990902
14.78064118,26.225814237557103
20.39025432,-56.42299578321294
25.99118913,14.983495795950432
31.58346061,216.98215924407353
37.16708375,91.81783997265727
42.74207347,16.25645334858997
48.30844468,-47.42040013970122
53.86621222,-52.68142175105955
59.41539093,-72.34999078425939
64.95599558,-46.6591372403162
70.48804091,18.14252057003769
76.01154164,57.64593463646423
81.52651243,-107.96396847606974
87.03296792,105.2490238778261
92.5309227,198.43575622446272
98.02039134,51.27327096990801
103.5013884,-0.09161023442597127
108.9739282,6.054812298914229
114.4380255,26.662940752275958
119.8936944,32.21224356999535
125.3409495,282.7636084549977
130.779805,38.746962662864206
136.2102753,-82.1654722378821
141.6323747,-133.37896316528168
147.0461174,14.852772419476253
152.4515176,-33.42680679076882
157.8485895,18.578514328999972
163.2373472,-48.53550806667859
168.6178049,-77.50612275894888
173.9899766,104.32026094770933
179.3538764,114.15756986850536
184.7095182,106.51782977594135
190.0569161,155.8772756001219
195.396084,71.25318405887202
200.7270358,-79.09216166948812
206.0497854,33.47011880779438
211.3643466,-130.0274371444732
216.6707333,82.83430413017591
221.9689593,-28.364915490521902
227.2590382,29.513526614116287
232.5409839,-48.67712394040463
237.8148101,-5.078910600427818
243.0805303,-41.47634009899559
248.3381582,-32.40600207314015
253.5877075,62.35190040796449
258.8291917,83.14166574363394
264.0626244,-0.5666213225029466
269.288019,108.04463128878392
274.5053891,48.37524474440906
279.7147481,-83.92494563561665
284.9161094,-208.09742325718838
290.1094865,-42.64346189728704
295.2948927,388.2318668488845
300.4723414,1548.0795504901469
305.6418459,3276.9514355337615
310.8034194,4795.94447914435
315.9570752,6045.995129025927
321.1028267,6336.468579783514
326.2406869,6454.730233259771
331.370669,6656.124400025154
336.4927863,7076.549272995502
341.6070517,6907.377176171245
346.7134786,6857.344341317337
351.8120798,6428.181551007981
356.9028684,5863.34502311598
361.9858576,5552.118596602165
367.0610602,5550.038953236466
372.1284892,4959.837636733017
377.1881577,5076.0622969252545
382.2400784,5644.188907086215
387.2842644,6921.74220240675
392.3207284,8269.677120959723
397.3494833,8333.026054066446
402.370542,7647.631166911818
407.3839172,6696.487215746654
412.3896217,5655.085998750984
417.3876683,4899.8008742763295
422.3780697,3969.9046124923907
427.3608386,2831.525535738295
432.3359876,2240.377151893683
437.3035295,1709.904156201339
442.2634769,1667.1789026426877
447.2158423,814.0616497412084
452.1606383,675.2044343735297
457.0978776,327.17456162688177
462.0275727,23.4528143738371
466.9497361,119.66462172667616
471.8643802,309.7636658190295
476.7715176,984.3857878586105
481.6711608,2243.4280610850838
486.5633221,3526.2942900476455
491.448014,3846.0358876856153
496.3252488,3478.9900811134503
501.195039,2317.884594387582
506.0573969,1401.5301924563119
510.9123349,683.0780584706954
515.7598651,105.9830032424943
520.6,332.2946892920754
525.4327518,386.2352722044525
530.2581327,303.7025793698858
535.076155,355.84266905798177
539.8868309,914.0339154731305
544.6901726,1403.2336889534936
549.4861922,1372.3109809643347
554.2749019,1032.4766768794216
559.0563139,191.09470052695679
563.8304402,-348.4706721995717
568.597293,47.53826565551981
573.3568844,27.14573192853595
578.1092263,-84.80387716206951
582.8543308,-2.1193275169471235
587.5922101,129.42102189353636
592.322876,321.0641718857614
597.0463405,519.3722229371774
601.7626157,644.0228721765434
606.4717135,363.33784723456665
611.1736458,225.8288055456942
615.8684246,14.702425006100839
620.5560617,30.295459205548923
625.2365691,24.128485900517717
629.9099585,200.7642664269597
634.5762419,449.39105499907055
639.2354312,449.52387136235257
643.887538,464.82016019730236
648.5325743,340.4199378640046
653.1705518,246.36942865324954
657.8014823,380.64271962354314
662.4253775,-17.92326773527475
667.0422493,15.332645729022715
671.6521092,54.33234749559233
676.2549691,23.43303103143262
680.8508407,-86.44684009637558
685.4397355,6.135002417629039
690.0216654,-19.417819208605124
694.5966419,-14.228285650282714
699.1646767,373.8616172194079
703.7257814,582.3017356645178
708.2799676,1111.1734846418735
712.827247,1944.9069952586672
717.367631,2699.1083912049435
721.9011314,2728.391470031275
726.4277595,1875.4096085185706
730.9475271,1263.894625530464
735.4604456,751.2477439318598
739.9665264,573.5149850780667
744.4657813,355.190154172308
748.9582215,240.34247394952536
753.4438587,104.53531027796703
757.9227042,-37.237879161890305
762.3947696,67.98555587271744
766.8600662,-45.07616640238143
771.3186056,255.01260565771258
775.770399,56.931622892293035
780.215458,85.64816880324497
784.6537939,-108.22915291224615
789.0854181,-245.23858973474853
793.510342,6.390380798998535
797.9285769,103.52945213238422
802.3401342,377.85472440416345
806.7450253,347.69094975211885
811.1432614,394.99393579271634
815.5348538,526.1011409635327
819.9198139,476.4094309916653
824.2981531,748.2443148319545
828.6698824,477.3894520376824
833.0350133,365.001250551804
837.393557,276.8133347878097
841.7455248,224.77455675451972
846.0909278,115.33739200364039
850.4297774,-29.42627648812129
854.7620848,-35.07314957217636
859.0878611,44.217550906215365
863.4071176,-71.65112332578116
867.7198655,50.67454684378754
872.026116,288.81078735365475
876.3258802,247.85201204805384
880.6191693,95.09957141190887
884.9059946,69.01835914514157
889.186367,119.17054801984966
893.4602979,-206.4544213847172
897.7277982,-322.6220062758615
901.9888793,62.836084450087355
906.2435521,284.3250295952579
910.4918277,113.48774623252007
914.7337174,330.0733018179132
918.9692321,650.4437960675327
923.1983831,1161.3464165170092
927.4211813,1102.0158874586798
931.6376378,1142.1786525364485
935.8477637,784.0164410435551
940.0515701,686.4795383153103
944.249068,692.6106968690242
948.4402684,439.7521063413809
952.6251825,606.9805094266407
956.8038212,492.1392299013154
960.9761955,639.9471233696086
965.1423166,522.5771783531625
969.3021953,181.92795530615945
973.4558427,110.87647834924564
977.6032699,-59.77402510258162
981.7444877,21.310766817333842
985.8795072,70.09591827454847
990.0083394,-121.69748599700483
994.1309953,80.00594369387204
998.2474857,562.0527046683965
1002.357822,1330.1615872512518
1006.462014,2940.7465325106477
1010.560075,4327.993013532847
1014.652013,4381.0307220721525
1018.737841,3531.267953283681
1022.81757,2207.037877310615
1026.891209,1395.236321757518
1030.958771,621.2302609714975
1035.020266,288.78908750807796
1039.075705,-117.34273102286988
1043.1251,-209.04060306837619
1047.16846,127.28306137656227
1051.205797,540.6131605516189
1055.237121,1326.9336068985722
1059.262444,3553.4534148039224
1063.281777,8166.3455339237
1067.295131,15376.638987207867
1071.302515,24003.950416381107
1075.303942,29242.968546401396
1079.299422,29805.258840261613
1083.288966,24888.521527510566
1087.272585,16686.403741482893
1091.250289,9279.456582376988
1095.222091,4517.9838823858245
1099.187999,1727.3676469516804
1103.148026,651.3160818407187
1107.102183,84.68411059180562
1111.050479,110.23577036743154
1114.992927,697.9769823354018
1118.929536,1591.7682854709337
1122.860318,3670.390928659108
1126.785283,6467.298710674532
1130.704443,12252.807304686863
1134.617808,21681.23656834461
1138.52539,32452.71888892589
1142.427198,39563.06201386493
1146.323244,39813.41804120009
1150.213538,40188.437090254345
1154.098093,37047.954948489525
1157.976917,24835.98131687432
1161.850023,14876.82034162289
1165.717421,9298.478957053554
1169.579121,6710.47126718417
1173.435135,5787.685275552351
1177.285474,5157.725582881871
1181.130148,5210.555148393207
1184.969169,5645.358278228031
1188.802547,6486.265154187933
1192.630292,7327.910793135552
1196.452416,7047.401110820188
1200.26893,5436.7354376380745
1204.079844,2858.815788935838
1207.88517,1187.963264380518
1211.684917,632.428218683272
1215.479098,-3.2889527843508404
1219.267722,275.29916683025886
1223.050801,-33.753795059437834
1226.828346,-2.3607853523640188
1230.600366,-14.46720086905907
1234.366874,28.16943800522631
1238.12788,168.21663109714382
1241.883395,-11.576762349998717
1245.633429,255.25159369913126
1249.377994,271.30677775933873
1253.1171,-151.37078171637768
1256.850759,124.49760309515523
1260.578981,46.95975778568982
1264.301776,41.14992971603169
1268.019157,58.072941131213156
1271.731133,-176.86882423104635
1275.437715,-57.45785779268272
1279.138915,158.49969743216388
1282.834743,222.39611823659516
1286.52521,-24.267500873608242
1290.210328,59.529559844816504
1293.890106,171.75713669873903
1297.564555,825.7517367275186
1301.233688,1541.6862325849647
1304.897514,2349.1023368924834
1308.556044,2392.3007916328934
1312.209289,2003.4459032970567
1315.857261,1071.745499705973
1319.499969,790.3075686068837
1323.137425,704.1362488311174
1326.769641,219.5130823266686
1330.396626,282.1914188217893
1334.018391,-41.15436675073579
1337.634948,12.456253451947305
1341.246307,-27.120559110801423
1344.85248,122.81279053464095
1348.453477,652.5613286191065
1352.049309,1219.1825644995797
1355.639987,1779.1485398754812
1359.225522,2448.2180997580526
1362.805925,2823.0224137734085
1366.381207,2966.585663521296
1369.951379,3177.08411024776
1373.516452,3590.1457722871046
1377.076436,4187.63587289529
1380.631343,5005.938130206428
1384.181184,7450.586211158058
1387.725969,11234.582580777016
1391.26571,15403.820128365824
1394.800417,17843.361509888917
1398.330102,16870.984005026516
1401.854776,12870.992754030354
1405.374448,7787.722673942266
1408.889132,4126.690823133463
1412.398837,2435.2124945148353
1415.903574,2409.952478294811
1419.403355,3919.4874009905025
1422.89819,6496.497810963208
1426.388091,10864.939136725163
1429.873069,16966.59872311621
1433.353134,23797.546102225857
1436.828298,29756.109410606987
1440.298571,33280.26568533764
1443.763965,34178.57732596908
1447.224491,31384.537867056322
1450.68016,26289.89190631856
1454.130983,20111.594471029628
1457.576971,14547.841888134108
1461.018135,10249.653413598455
1464.454486,7411.134881403933
1467.886036,5945.621537211362
1471.312794,5744.2559547725905
1474.734774,6239.708336369791
1478.151985,6463.092759106904
1481.564439,5374.553764302516
1484.972146,3499.750665675246
1488.375119,1939.9515524442804
1491.773368,1270.2627079296863
1495.166904,984.7402386052127
1498.555739,434.1778847222622
1501.939883,287.60732722513876
1505.319349,36.20800657008931
1508.694146,-34.86459003670052
1512.064286,8.972004398136505
1515.429781,16.36011709237573
1518.790642,-14.155602180707774
1522.146879,0.15931285611941348
1525.498505,-64.92796774282579
1528.845529,160.5772116226617
1532.187965,461.24455569111706
1535.525822,772.4796460724738
1538.859112,1232.7282558351085
1542.187846,1566.7949169105714
1545.512036,2008.1906403802177
1548.831693,2623.849265753198
1552.146829,3008.396542645198
1555.457453,3575.6029087038323
1558.763579,4066.0693347231836
1562.065216,5313.74488866321
1565.362377,6337.160043947097
1568.655073,7459.769805725833
1571.943315,8991.285460255414
1575.227114,10075.944266393773
1578.506482,11002.688587345507
1581.781431,10977.51943407639
1585.051971,9443.850829217088
1588.318114,7720.4452253470945
1591.579872,6012.169611317531
1594.837255,4343.1998731556505
1598.090275,3401.030574737415
1601.338945,2429.3886865796267
1604.583274,1852.8707179682315
1607.823275,1026.0278410315586
1611.058959,367.8409707216797
1614.290338,101.84367269290078
1617.517422,-25.283975587937903
1620.740224,106.73413182686909
1623.958755,113.6176895213298
1627.173027,13.619954914028995
1630.38305,-177.20434139204644
1633.588838,-47.28038205892949
1636.7904,-99.49618252055848
1639.987749,75.07776349858818
1643.180896,101.67951120168254
1646.369853,-83.18978423638305
1649.554632,217.021663884369
1652.735244,82.17396864053796
1655.9117,-52.2487681243083
1659.084013,-67.84275175661048
1662.252193,70.836195817109
1665.416254,-135.5375918522218
1668.576205,11.148113842526016
1671.732059,192.32713385941463
1674.883828,33.11285861443804
1678.031523,-81.67809182190837
1681.175157,50.694440514906546
1684.314739,3.811811307818232
1687.450284,-8.243146241366873
1690.581801,7.717538422178762
1693.709304,-95.58989285712255
1696.832803,-20.507489733305448
1699.952311,32.477894524578915
1703.067839,122.33539831311523
1706.179399,44.753534865165165
1709.287003,224.05933616420342
1712.390663,-16.137175867910656
1715.49039,42.93505576857703
1718.586197,57.396035838579905
1721.678095,9.936759884046708
1724.766096,-29.44692283648257
1727.850213,-47.75725870414793
1730.930456,-37.17622982663504
1734.006838,-75.3606863747874
1737.079372,-98.90873239714944
1740.148067,2.254892864320979
1743.212938,314.2271048236171
1746.273996,127.54708808065648
1749.331252,0.3696134466532186
1752.384718,33.8695482560216
1755.434408,30.280722974973102
1758.480332,44.28214131222043
1761.522503,113.26858955324191
1764.560933,-96.96190714817251
1767.595634,-169.99764684097323
1770.626618,0.4187130999661548
1773.653896,49.69851410929385
1776.677482,-83.60875183117886
1779.697388,-13.3913361480857
1782.713625,96.41375196227798
1785.726205,5.68712766760288
1788.735141,168.07822560264606
1791.740445,25.830726654066723
1794.742129,-14.209058767706182
1797.740206,255.98524217006081
1800.734687,268.37008009471276
1803.725585,164.06368622378494
1806.712912,115.34740559050002
1809.69668,6.346486411571931
1812.676902,-11.616248546983769
1815.65359,-47.07427958183387
1818.626756,-68.92916675102592
1821.596413,7.131379751142674
1824.562573,-100.72600646989169
1827.525247,89.68703890345105
1830.48445,-2.931769954677563
1833.440192,0.10179778127887573
1836.392487,-60.1591824488104
1839.341347,150.22331051044728
1842.286784,6.812218667207702
1845.22881,-18.918528435107405
1848.167439,107.50911992135988
1851.102682,86.50832868389381
1854.034553,25.25574406870365
1856.963063,-103.89338458764018
1859.888226,244.55271523040102
1862.810053,173.4567743054884
1865.728557,221.4126114127035
1868.643751,13.456981166173364
1871.555648,72.28831173529183
1874.46426,-154.71093479908654
1877.369599,171.78831306800114
1880.271679,52.48684393995863
1883.170512,-39.88705642922406
1886.06611,175.9436806578294
1888.958487,-20.264806072684095
1891.847655,50.59591699668286
1894.733626,-53.55652766886095
1897.616414,7.647300845480231
1900.496032,-165.39349335984272
1903.372491,61.05426333602148
1906.245805,116.82199668439694
1909.115987,112.945792630104
1911.983049,83.42761215618958
1914.847004,-103.569554101599
1917.707866,98.10783261250555
1920.565646,-111.16683878010434
1923.420359,-1.6387990761918445
1926.272016,-16.557598266175006
1929.120631,-170.90836050940925
1931.966216,124.4189730417718
1934.808786,-14.204735565335028
1937.648351,-16.83135008131825
1940.484927,-18.133017654485002
1943.318525,14.645638222417887
1946.149158,289.23413941637307
1948.97684,423.87196415368356
1951.801584,165.08141447799352
1954.623403,60.88810580303473
1957.44231,105.732824817161
1960.258318,35.31684173311558
1963.071439,-142.48216366111137
1965.881688,16.77677888345437
1968.689078,171.0679220996965
1971.493621,-24.349885803294768
