Raman shift cm-1,4ATP_10pM_rep1_acc1_processed_intensity
-93.47115107,584.9559186400049
-87.69374369,143.64751762953918
-81.9253076,-11.888669466612726
-76.16582701,68.55867959906423
-70.41528615,139.52943073343485
-64.67366933,95.9992906836643
-58.94096086,17.186968655686577
-53.21714512,-11.633101266403724
-47.50220652,30.00425324276933
-41.79612954,120.84003307553522
-36.09889866,189.27232092724938
-30.41049843,174.68642665226795
-24.73091343,124.77723791992321
-19.0601283,114.77447003881893
-13.39812769,116.59925264121841
-7.744896327,75.02561328015649
-2.100418946,20.157547663232208
3.535319659,2.4400567591819424
9.162334658,8.67347045378174
14.78064118,5.3204113978603615
20.39025432,7.127304524014377
25.99118913,41.48407529387538
31.58346061,72.21736414262807
37.16708375,50.69524195217993
42.74207347,6.981803224433001
48.30844468,-10.586450933135968
53.86621222,-11.960858182626305
59.41539093,-1.8555295509044392
64.95599558,45.62237403192286
70.48804091,97.18758651198917
76.01154164,93.17410168100369
81.52651243,76.05952764413496
87.03296792,111.90137474728694
92.5309227,154.5914652781102
98.02039134,150.4125743966611
103.5013884,141.26573249818446
108.9739282,176.80739676219483
114.4380255,259.4187485536939
119.8936944,353.04111653373747
125.3409495,379.3393802735845
130.779805,316.5618934044292
136.2102753,271.5652193476432
141.6323747,318.8429118655119
147.0461174,381.71575522169366
152.4515176,377.36753539429213
157.8485895,345.4412850419728
163.2373472,369.8909513082423
168.6178049,456.617165493952
173.9899766,531.1466392267772
179.3538764,550.5184886208348
184.7095182,560.5552857692255
190.0569161,593.8857406047805
195.396084,605.8567640447403
200.7270358,577.056028744356
206.0497854,562.9187272287703
211.3643466,593.78283572287
216.6707333,627.1191600102227
221.9689593,626.5264760175849
227.2590382,619.2316546064071
232.5409839,644.4233752192209
237.8148101,687.4640484230708
243.0805303,707.3716963985158
248.3381582,705.914618913315
253.5877075,729.0504383175397
258.8291917,804.5619729209449
264.0626244,904.5907701337071
269.288019,973.416793472514
274.5053891,977.9345169468982
279.7147481,932.2213690989995
284.9161094,885.228483137207
290.1094865,862.6332878255707
295.2948927,796.8913967277247
300.4723414,588.9539328353264
305.6418459,291.30145950352596
310.8034194,93.10521802590833
315.9570752,67.43549594744353
321.1028267,112.43891713535368
326.2406869,141.1686844060939
331.370669,132.67558552189035
336.4927863,74.28978661441451
341.6070517,5.470296201694154
346.7134786,-11.041907326420237
351.8120798,5.810847329063591
356.9028684,25.768054396010594
361.9858576,84.66021495309316
367.0610602,178.00334210331835
372.1284892,249.67559935430867
377.1881577,332.6837089229771
382.2400784,522.7499285403502
387.2842644,802.029816579799
392.3207284,1007.1679410765068
397.3494833,984.3402611773743
402.370542,736.647944647506
407.3839172,421.62895204049477
412.3896217,204.54281760343903
417.3876683,111.10044034367004
422.3780697,71.75255471884984
427.3608386,77.06199625733348
432.3359876,150.03488112237972
437.3035295,213.04273050769748
442.2634769,173.2067882015143
447.2158423,84.25487538524096
452.1606383,45.10448916911495
457.0978776,35.226279265517974
462.0275727,2.0237281176114656
466.9497361,-16.167044028654573
471.8643802,30.144530502907614
476.7715176,98.2528954042283
481.6711608,106.75181897294347
486.5633221,54.53851752315595
491.448014,17.5794196845737
496.3252488,27.711710585238375
501.195039,37.659394066404104
506.0573969,13.796988896363043
510.9123349,-10.98305775864248
515.7598651,12.675476557693475
520.6,70.77584987996133
525.4327518,81.38258230058189
530.2581327,11.645968026975266
535.076155,-46.3128775787692
539.8868309,11.391889095963746
544.6901726,158.46839926716626
549.4861922,257.79892618161233
554.2749019,214.92475860661258
559.0563139,109.16693244378044
563.8304402,95.12093526849002
568.597293,155.50002712155458
573.3568844,144.32873222890726
578.1092263,70.13821991619236
582.8543308,64.92930721202683
587.5922101,125.07504865366661
592.322876,143.16576336231768
597.0463405,98.78594112929949
601.7626157,40.710484877793974
606.4717135,0.36167180561466594
611.1736458,6.82131399001662
615.8684246,67.51405384427106
620.5560617,115.47601910731905
625.2365691,92.23326783681617
629.9099585,51.54282505894431
634.5762419,66.1398814291594
639.2354312,106.96780077825696
643.887538,120.25241582176369
648.5325743,122.98878699937893
653.1705518,127.91773255597982
657.8014823,96.42219549044196
662.4253775,51.56389817415812
667.0422493,72.65231896130149
671.6521092,122.54241858134695
676.2549691,90.99948249246391
680.8508407,5.913264881443666
685.4397355,-15.799776663966576
690.0216654,31.748432172215516
694.5966419,71.81152822235907
699.1646767,88.88484593557072
703.7257814,120.05476872081984
708.2799676,167.08236293367037
712.827247,185.8678003075904
717.367631,140.2700927287085
721.9011314,55.3670043651108
726.4277595,16.918050744561263
730.9475271,81.32884746589028
735.4604456,190.97080450309022
739.9665264,236.30065930528318
744.4657813,180.6240067999143
748.9582215,74.9443960827354
753.4438587,-4.432570257709365
757.9227042,-6.823501598149093
762.3947696,64.48768923641548
766.8600662,163.23680454415063
771.3186056,230.88599550772062
775.770399,221.93471412389454
780.215458,133.88041862926866
784.6537939,26.374425558027013
789.0854181,-4.2703396025453415
793.510342,77.41391321043643
797.9285769,177.95770508348923
802.3401342,188.65847142124062
806.7450253,128.82675952277975
811.1432614,74.56985777761375
815.5348538,33.365406749488244
819.9198139,-3.8663206468308573
824.2981531,-0.4605156725257089
828.6698824,49.76586458726915
833.0350133,86.70562977162474
837.393557,66.6226188947645
841.7455248,15.897974987553289
846.0909278,-7.084100131748414
850.4297774,14.899872521178168
854.7620848,31.437830148962586
859.0878611,2.6165503152681744
863.4071176,-14.913125258144486
867.7198655,57.05542568447035
872.026116,184.28563826538715
876.3258802,273.357115685837
880.6191693,305.3231587397029
884.9059946,287.50070091835113
889.186367,190.59590413215903
893.4602979,74.54468104032262
897.7277982,88.37808706878732
901.9888793,216.10794673362477
906.2435521,250.45267385060788
910.4918277,117.78564446936032
914.7337174,-0.02408885972739938
918.9692321,48.26732630294253
923.1983831,182.24555041664257
927.4211813,259.74878202176143
931.6376378,269.7186507084333
935.8477637,264.17000352948867
940.0515701,236.1755259713746
944.249068,171.5238228077872
948.4402684,134.3186212254457
952.6251825,186.65968702552874
956.8038212,272.45770244787855
960.9761955,288.9072069448191
965.1423166,243.39796663732707
969.3021953,224.07198394642955
973.4558427,239.8404975317976
977.6032699,231.3684599283719
981.7444877,201.79332430911597
985.8795072,202.08075445230438
990.0083394,233.36253568306685
994.1309953,239.18815066029063
998.2474857,185.10781236818883
1002.357822,128.4768906535116
1006.462014,153.34753850438605
1010.560075,244.84097593999923
1014.652013,312.24858504998
1018.737841,303.3952857828639
1022.81757,249.9786842483546
1026.891209,228.60718930752188
1030.958771,258.3994007664844
1035.020266,270.0321943584976
1039.075705,241.51518587135905
1043.1251,249.54889040545967
1047.16846,302.8011177347096
1051.205797,287.6360501410272
1055.237121,151.47151972064492
1059.262444,1.6310241061092086
1063.281777,-11.489746223216713
1067.295131,153.3057981968384
1071.302515,404.6325892156984
1075.303942,618.294858152205
1079.299422,696.2990999968979
1083.288966,582.8802080929704
1087.272585,345.1208159615065
1091.250289,152.21906188184752
1095.222091,94.11446709333916
1099.187999,118.10365592775096
1103.148026,137.4381628421838
1107.102183,108.0458875943969
1111.050479,39.11490076502835
1114.992927,-9.953229140989983
1118.929536,4.299497889200065
1122.860318,32.79371327259253
1126.785283,16.214293536502776
1130.704443,6.5696985285562315
1134.617808,71.59865161016458
1138.52539,158.20781556077912
1142.427198,181.92436568105109
1146.323244,158.5879993199011
1150.213538,142.79231020845393
1154.098093,125.20804399843786
1157.976917,99.86355896762936
1161.850023,134.25980522231802
1165.717421,247.5984868667545
1169.579121,331.6070731875315
1173.435135,297.7424828224953
1177.285474,212.38841969942757
1181.130148,204.8459709157812
1184.969169,282.2611367713551
1188.802547,324.50699531618125
1192.630292,256.6442272736478
1196.452416,131.44998561875553
1200.26893,33.224632888448134
1204.079844,-12.917811147680553
1207.88517,-0.5809238865940074
1211.684917,100.29651502922019
1215.479098,245.90666709807473
1219.267722,285.5857099026696
1223.050801,191.13604290887616
1226.828346,148.41794471906692
1230.600366,233.543509685427
1234.366874,274.2217244535551
1238.12788,194.0598224889173
1241.883395,151.48385833398302
1245.633429,218.102014498914
1249.377994,250.13891885568074
1253.1171,163.61991228289224
1256.850759,70.78523887022705
1260.578981,79.40217752781602
1264.301776,130.9394377425619
1268.019157,106.19528624419559
1271.731133,14.425728894739244
1275.437715,-18.62368809549573
1279.138915,48.62843854057736
1282.834743,103.80762862518246
1286.52521,66.15343706663968
1290.210328,15.2367701009215
1293.890106,38.531893994630266
1297.564555,93.99123660619972
1301.233688,126.92190435823181
1304.897514,148.40793292294882
1308.556044,134.74420813845052
1312.209289,52.612638794248
1315.857261,-12.152850670490768
1319.499969,46.31227366865096
1323.137425,174.91325006921787
1326.769641,238.47426497996398
1330.396626,194.74201831736252
1334.018391,108.64896731762173
1337.634948,62.031993965005746
1341.246307,65.51674771463313
1344.85248,55.66748771088344
1348.453477,11.0789204423196
1352.049309,3.6612563856400087
1355.639987,74.65180800790004
1359.225522,154.12212088193726
1362.805925,163.5859073361737
1366.381207,118.80727916260071
1369.951379,95.88034677249074
1373.516452,138.97453295060322
1377.076436,211.1226747557905
1380.631343,241.79164678091738
1384.181184,213.84812133839995
1387.725969,161.50912577357573
1391.26571,125.19113502575068
1394.800417,149.54777530885116
1398.330102,236.71783595078995
1401.854776,290.039801080575
1405.374448,213.9300766319131
1408.889132,57.32330822832125
1412.398837,-31.68898601243731
1415.903574,12.825180520959805
1419.403355,110.6552428584539
1422.89819,172.51808299043952
1426.388091,203.7173816737642
1429.873069,221.95592724625948
1433.353134,200.56295453335824
1436.828298,136.69340257090462
1440.298571,66.54511496670176
1443.763965,12.790144940803174
1447.224491,-13.061860575322783
1450.68016,9.746956422057835
1454.130983,84.20610104454127
1457.576971,175.08125934878268
1461.018135,231.69605601594253
1464.454486,221.89585693513112
1467.886036,165.15865215288932
1471.312794,133.10078967733304
1474.734774,170.97591333791775
1478.151985,220.21154804585876
1481.564439,190.18492138582468
1484.972146,105.85046626042744
1488.375119,77.49147066304968
1491.773368,123.631376071673
1495.166904,157.84317823522255
1498.555739,141.767630708484
1501.939883,113.22788303823751
1505.319349,96.73375075801272
1508.694146,94.13336960918133
1512.064286,108.90269473106926
1515.429781,127.52933068286546
1518.790642,117.45607622764575
1522.146879,61.06933604819883
1525.498505,5.807085734748501
1528.845529,38.4559448263214
1532.187965,147.96936266212458
1535.525822,214.00250978342348
1538.859112,188.97557431057862
1542.187846,165.69145876687466
1545.512036,222.8597575872371
1548.831693,284.9721995374437
1552.146829,216.7441701231113
1555.457453,53.19858017751182
1558.763579,-8.04054159868695
1562.065216,124.3237469913731
1565.362377,323.19457133976346
1568.655073,414.0928234608335
1571.943315,360.30709944967845
1575.227114,273.2985929685076
1578.506482,272.95330247450147
1581.781431,361.4259633831777
1585.051971,455.4261005134338
1588.318114,490.4140295129999
1591.579872,447.3755550767472
1594.837255,349.6330088473892
1598.090275,254.22855531404994
1601.338945,173.45833361651907
1604.583274,72.88402127434904
1607.823275,4.055111389186177
1611.058959,43.403897318510886
1614.290338,97.75885599613349
1617.517422,52.53290337904856
1620.740224,-12.901919113886219
1623.958755,-9.52943876805923
1627.173027,8.183270997407071
1630.38305,0.9547292898098618
1633.588838,16.545173091388406
1636.7904,74.99368894073166
1639.987749,122.2438659032465
1643.180896,124.02613563574695
1646.369853,115.62000842648993
1649.554632,102.78876124712414
1652.735244,58.04825832216437
1655.9117,38.197123961364724
1659.084013,88.7080083484566
1662.252193,122.55704078191727
1665.416254,101.98423625239562
1668.576205,120.5496170917517
1671.732059,182.37169229533762
1674.883828,178.91511156376703
1678.031523,106.36927551570263
1681.175157,58.34027315331956
1684.314739,52.453757563083535
1687.450284,41.342156944980424
1690.581801,16.379611465426283
1693.709304,-7.206027421680233
1696.832803,-22.126097670539632
1699.952311,3.3455842341396362
1703.067839,94.23802719703605
1706.179399,188.19984007814773
1709.287003,193.41207102025152
1712.390663,133.43595153041773
1715.49039,107.45882937608488
1718.586197,115.15806664021824
1721.678095,79.30253287235499
1724.766096,13.41303703128068
1727.850213,-7.784797290620965
1730.930456,1.5165720979825963
1734.006838,-9.876157840997678
1737.079372,7.214668284962137
1740.148067,107.78997348292958
1743.212938,199.6444034362981
1746.273996,173.7990616324551
1749.331252,87.03481404842901
1752.384718,57.27845971641911
1755.434408,96.16631768005179
1758.480332,130.77060608756202
1761.522503,96.90187760706512
1764.560933,13.526468366642842
1767.595634,-15.827490149343596
1770.626618,48.83565198887766
1773.653896,108.06199167680674
1776.677482,102.39346647457099
1779.697388,114.6846887729144
1782.713625,184.9069013047093
1785.726205,212.5807373651872
1788.735141,136.843577423495
1791.740445,52.56673069387496
1794.742129,75.103126587212
1797.740206,185.00770693630147
1800.734687,263.4503092470613
1803.725585,241.55160080349316
1806.712912,161.42732938628757
1809.69668,95.38566754945673
1812.676902,58.720547727009375
1815.65359,26.36518726731392
1818.626756,-2.6270187794653737
1821.596413,-1.2689526668692963
1824.562573,28.72136796930024
1827.525247,40.9281158320874
1830.48445,15.433989234664391
1833.440192,2.303101326572758
1836.392487,42.33335892341582
1839.341347,97.15516979981064
1842.286784,118.28839405258779
1845.22881,119.43042467905724
1848.167439,119.14031264838482
1851.102682,104.56256752274302
1854.034553,101.81619087304638
1856.963063,157.7985560673323
1859.888226,231.77306371893337
1862.810053,229.97006044852316
1865.728557,131.64245607909382
1868.643751,10.839229752292539
1871.555648,-29.621690172369426
1874.46426,44.522409714397114
1877.369599,145.1212371543079
1880.271679,170.17636578449435
1883.170512,139.4814910646104
1886.06611,134.80875139429068
1888.958487,171.2155924305773
1891.847655,194.6832734882815
1894.733626,160.82214208269366
1897.616414,97.41700385461529
1900.496032,80.92552873292613
1903.372491,139.18346514619026
1906.245805,218.38823733456263
1909.115987,248.57570696905097
1911.983049,212.56260810597348
1914.847004,159.65354840552135
1917.707866,138.41016535320566
1920.565646,127.95203884043823
1923.420359,88.99826189891179
1926.272016,37.08527100164954
1929.120631,6.551226617580777
1931.966216,0.5828573573851763
1934.808786,9.34078791955361
1937.648351,30.658516082571296
1940.484927,74.58937776324196
1943.318525,167.28149372243075
1946.149158,293.10226509221593
1948.97684,347.6108790524929
1951.801584,268.67215605344217
1954.623403,146.3190500044301
1957.44231,72.09074346181565
1960.258318,25.84742916040925
1963.071439,-10.802519744836495
1965.881688,-13.359335740293336
1968.689078,4.511948189703636
1971.493621,11.007665174358682
