Raman shift cm-1,4ATP_100nM_rep1_acc5_processed_intensity
-93.47115107,342.3594518900305
-87.69374369,59.29604912183911
-81.9253076,14.232099042570916
-76.16582701,76.29219714255436
-70.41528615,52.15175997794458
-64.67366933,-2.898834111826524
-58.94096086,-14.739678184561257
-53.21714512,-14.69508923953548
-47.50220652,32.67109974452399
-41.79612954,143.40070793369532
-36.09889866,200.64176994530544
-30.41049843,144.9246291697678
-24.73091343,53.55552449796171
-19.0601283,6.206290924795505
-13.39812769,3.0482898418626814
-7.744896327,7.4392149972875234
-2.100418946,28.876635013426377
3.535319659,68.65918498247447
9.162334658,64.11106776034997
14.78064118,9.79557870923073
20.39025432,7.610603576857206
25.99118913,99.99780210085642
31.58346061,156.5519146405277
37.16708375,95.44962253830727
42.74207347,40.022941634569435
48.30844468,43.63405718868806
53.86621222,10.648579544128424
59.41539093,-19.955767231932043
64.95599558,60.54811765930145
70.48804091,126.80653882621198
76.01154164,36.739979396879235
81.52651243,-13.10953188078279
87.03296792,103.88795385537202
92.5309227,156.01699599005775
98.02039134,102.35248812509681
103.5013884,112.69847937447875
108.9739282,113.9023297846864
114.4380255,81.41947887761668
119.8936944,170.95707020518273
125.3409495,262.0819691554447
130.779805,147.5353469394095
136.2102753,-5.636366073517792
141.6323747,12.790326525779669
147.0461174,78.16769298268333
152.4515176,39.58911575455126
157.8485895,-17.014355265936004
163.2373472,10.480949089284064
168.6178049,80.73081327296809
173.9899766,118.25997669569054
179.3538764,112.17599436057068
184.7095182,118.86742345423764
190.0569161,153.7493625709276
195.396084,129.8049926276932
200.7270358,44.09411994461658
206.0497854,11.853807324552323
211.3643466,36.08245929764625
216.6707333,43.44002549294972
221.9689593,36.008998193520505
227.2590382,26.838699948660977
232.5409839,15.685876823907378
237.8148101,8.02041328739326
243.0805303,-3.1281487613784265
248.3381582,11.45850277630472
253.5877075,51.492583244695
258.8291917,25.530911854281875
264.0626244,-36.964924209986386
269.288019,-3.9076296994751942
274.5053891,65.54052372558321
279.7147481,61.202680902958384
284.9161094,99.04943162229952
290.1094865,590.2566403038902
295.2948927,2458.6626224306287
300.4723414,6636.802751938184
305.6418459,12494.051505648595
310.8034194,17668.74084976404
315.9570752,20385.971002593757
321.1028267,21163.821179290397
326.2406869,21580.444849424093
331.370669,22295.16558487611
336.4927863,23057.613384877015
341.6070517,23748.858066596058
346.7134786,24434.524919691426
351.8120798,24881.25038881169
356.9028684,24824.392604260876
361.9858576,24473.611563902905
367.0610602,24233.380607242358
372.1284892,24428.737252224477
377.1881577,25618.693351400518
382.2400784,28181.90931124585
387.2842644,31193.958072959886
392.3207284,32731.814769545435
397.3494833,31865.510557126763
402.370542,29481.833649151948
407.3839172,26836.101429395
412.3896217,24547.103938914395
417.3876683,22872.006836604643
422.3780697,21749.31257689623
427.3608386,20956.647838549143
432.3359876,20434.298949888595
437.3035295,20042.589831809266
442.2634769,19562.883313268827
447.2158423,19081.284020140803
452.1606383,18750.886347356583
457.0978776,18473.326984013896
462.0275727,18223.115712127073
466.9497361,18178.922267118272
471.8643802,18525.489940881173
476.7715176,19320.239780551663
481.6711608,20215.645125389954
486.5633221,20565.046062249243
491.448014,20075.975238218
496.3252488,19130.046958622257
501.195039,18347.183858430184
506.0573969,17818.154313610252
510.9123349,17217.218842635542
515.7598651,16646.380340969925
520.6,16346.00268939013
525.4327518,16024.921003588623
530.2581327,15582.265653933768
535.076155,15426.054913109932
539.8868309,15452.149291428177
544.6901726,15110.672681218253
549.4861922,14444.747321891551
554.2749019,13894.986537760376
559.0563139,13618.691640244657
563.8304402,13540.353981857777
568.597293,13469.994873847481
573.3568844,13251.50293266852
578.1092263,12991.1933991666
582.8543308,12804.579461483054
587.5922101,12653.207242163016
592.322876,12579.685088151184
597.0463405,12593.391338254318
601.7626157,12508.662708720733
606.4717135,12211.53428156306
611.1736458,11854.385438668463
615.8684246,11683.74504508535
620.5560617,11652.58832819291
625.2365691,11474.595154225613
629.9099585,11185.343765152871
634.5762419,11006.397209209832
639.2354312,10818.56587339201
643.887538,10507.58563201117
648.5325743,10291.854204646062
653.1705518,10203.029672450491
657.8014823,10006.174134830324
662.4253775,9774.09358834009
667.0422493,9664.534137311057
671.6521092,9479.570999003856
676.2549691,9165.922302056375
680.8508407,8931.004961194538
685.4397355,8741.840344632044
690.0216654,8567.120747232007
694.5966419,8576.164634912955
699.1646767,8747.07323650518
703.7257814,8936.606243861068
708.2799676,9075.4838351188
712.827247,9029.35294898905
717.367631,8678.52451457342
721.9011314,8076.620510606572
726.4277595,7410.687655496547
730.9475271,6871.795061192795
735.4604456,6561.892730488422
739.9665264,6453.317883580473
744.4657813,6291.189087987948
748.9582215,5876.360869019374
753.4438587,5460.814129346492
757.9227042,5248.9200569725335
762.3947696,5048.40146138706
766.8600662,4853.285015421762
771.3186056,4786.6293354275995
775.770399,4641.472203450385
780.215458,4297.516040391607
784.6537939,3961.006216212336
789.0854181,3808.1871471375607
793.510342,3853.816005767262
797.9285769,3921.7262642775686
802.3401342,3791.550236207584
806.7450253,3489.9579424574385
811.1432614,3145.3810555042355
815.5348538,2802.0514912896615
819.9198139,2498.4489151882626
824.2981531,2185.9103634832636
828.6698824,1811.603344280711
833.0350133,1562.2892209669353
837.393557,1502.3177907170548
841.7455248,1355.263043938563
846.0909278,1097.3216093392539
850.4297774,978.5053402442481
854.7620848,928.3380011706276
859.0878611,767.1538427750074
863.4071176,640.2534256858899
867.7198655,689.436917734979
872.026116,754.9486352534032
876.3258802,707.4819080435991
880.6191693,652.9125419987286
884.9059946,583.3333184051498
889.186367,317.395373534333
893.4602979,1.5706824657281686
897.7277982,8.853877545366231
901.9888793,279.586305628427
906.2435521,486.25038699037395
910.4918277,607.327879985668
914.7337174,793.7423814580452
918.9692321,1014.9124154063734
923.1983831,1112.6273924733655
927.4211813,1032.2218078744595
931.6376378,906.4711568055777
935.8477637,927.6250135199962
940.0515701,1058.0535990153412
944.249068,1045.3950050126437
948.4402684,929.4328884934398
952.6251825,994.8108605690786
956.8038212,1181.1118309024046
960.9761955,1240.9361738049188
965.1423166,1208.270433878272
969.3021953,1224.2721053765208
973.4558427,1248.9133135918596
977.6032699,1184.8772040962226
981.7444877,1053.2239213719604
985.8795072,919.6109174513135
990.0083394,832.8274525992992
994.1309953,872.6538848671648
998.2474857,1146.219260210255
1002.357822,1630.0546641219748
1006.462014,1861.8661519682923
1010.560075,1368.271230708002
1014.652013,589.7680384289097
1018.737841,239.17082459484664
1022.81757,177.56385711451912
1026.891209,60.895340110188954
1030.958771,-4.78062233867422
1035.020266,73.36667743372664
1039.075705,254.00356271258352
1043.1251,504.50523259666033
1047.16846,774.8195480780898
1051.205797,1209.310257456462
1055.237121,2188.078251664012
1059.262444,4156.866192333063
1063.281777,7508.135508361365
1067.295131,11797.12413937334
1071.302515,15154.446404225786
1075.303942,15743.899732744405
1079.299422,13466.6831319041
1083.288966,9547.804488229935
1087.272585,5549.323331048968
1091.250289,2761.6688635882692
1095.222091,1409.6003042171808
1099.187999,872.7103997987285
1103.148026,690.5256552812439
1107.102183,697.5469401328495
1111.050479,832.107559817266
1114.992927,1209.9397435193464
1118.929536,2014.3331319705544
1122.860318,3420.8609566499094
1126.785283,5824.953862265986
1130.704443,9578.660750700248
1134.617808,13754.645429306198
1138.52539,15956.915111228938
1142.427198,14613.78051044483
1146.323244,10827.706456773165
1150.213538,6993.820590414418
1154.098093,4388.615271870251
1157.976917,2958.2646993437147
1161.850023,2391.5646325690095
1165.717421,2359.9533720191885
1169.579121,2476.817476711416
1173.435135,2588.6055711863064
1177.285474,2757.159971183181
1181.130148,2987.704125073081
1184.969169,3150.347766257477
1188.802547,3051.5161584550133
1192.630292,2550.097973916418
1196.452416,1760.9261833591002
1200.26893,1017.2164017674259
1204.079844,475.24660869166564
1207.88517,100.450916384863
1211.684917,-8.798015317756567
1215.479098,155.30383764496818
1219.267722,240.67144641107697
1223.050801,89.06801324528122
1226.828346,22.650337068521893
1230.600366,175.04014599004392
1234.366874,295.658376824576
1238.12788,284.8952574141649
1241.883395,288.59663804669447
1245.633429,381.27576134951835
1249.377994,417.86782168635045
1253.1171,241.05398213920174
1256.850759,26.88147991633398
1260.578981,54.35238584915232
1264.301776,184.32089061645516
1268.019157,130.66091061354425
1271.731133,-10.012041401499726
1275.437715,13.412129684605366
1279.138915,160.3351957924594
1282.834743,197.00305791624774
1286.52521,137.14753299968737
1290.210328,267.87911111114676
1293.890106,634.7146329087709
1297.564555,974.3566683089549
1301.233688,1201.2947300436372
1304.897514,1358.8159240279558
1308.556044,1295.8989249668466
1312.209289,967.6661532411304
1315.857261,682.7739409789583
1319.499969,646.8196143389205
1323.137425,693.5250809512044
1326.769641,663.5191656260633
1330.396626,602.4115985748756
1334.018391,578.3771056837762
1337.634948,600.8408726175437
1341.246307,674.5949926152744
1344.85248,792.5333714010549
1348.453477,885.0113295092001
1352.049309,984.4124657622281
1355.639987,1204.2393088668869
1359.225522,1409.580251790897
1362.805925,1498.0793770942255
1366.381207,1669.0172970865747
1369.951379,1976.7325464215694
1373.516452,2391.575525404919
1377.076436,3154.1998625300234
1380.631343,4460.268168712255
1384.181184,6063.2872836197885
1387.725969,7160.783844630553
1391.26571,6885.911252948387
1394.800417,5302.76033680988
1398.330102,3388.174162405397
1401.854776,1963.3529112474957
1405.374448,1179.3753013895575
1408.889132,866.0046980351391
1412.398837,1062.1793207138503
1415.903574,2060.539845656548
1419.403355,3882.0574305546347
1422.89819,6135.4503789998325
1426.388091,8217.964602886404
1429.873069,9303.740435526477
1433.353134,8911.08954951935
1436.828298,7439.086000344161
1440.298571,5557.900822622022
1443.763965,3750.6447790922884
1447.224491,2387.2711567817687
1450.68016,1501.0394055824095
1454.130983,913.3277206598024
1457.576971,633.9776345792676
1461.018135,619.9119707365348
1464.454486,642.9573949654779
1467.886036,680.2998057451503
1471.312794,765.187954358471
1474.734774,685.3941492432797
1478.151985,404.19545964570955
1481.564439,151.2774943101316
1484.972146,4.606630159990004
1488.375119,-0.18365060093196917
1491.773368,147.13480872609296
1495.166904,215.10715731093887
1498.555739,106.99204692442606
1501.939883,1.0822329384308205
1505.319349,24.91119177725966
1508.694146,226.69340971214842
1512.064286,481.19189325679747
1515.429781,573.7010916502977
1518.790642,569.3290500987065
1522.146879,572.393839754021
1525.498505,553.4521486646764
1528.845529,632.5432604793649
1532.187965,853.4827494985346
1535.525822,1059.6685890703475
1538.859112,1236.1523963050258
1542.187846,1423.010260655075
1545.512036,1626.392762418409
1548.831693,1901.6298257189305
1552.146829,2169.465118120602
1555.457453,2437.3170227680303
1558.763579,3009.2114457722623
1562.065216,3894.1517758280042
1565.362377,4698.175884236599
1568.655073,5267.801921681405
1571.943315,5673.126843208359
1575.227114,5879.569873490982
1578.506482,5892.864826115292
1581.781431,5772.747203728518
1585.051971,5534.860910973336
1588.318114,5166.215762202424
1591.579872,4475.807334864927
1594.837255,3372.239343141481
1598.090275,2337.6427763507845
1601.338945,1788.1059156665076
1604.583274,1421.4808389198079
1607.823275,1039.7602651704215
1611.058959,897.8587477163776
1614.290338,849.9915142183511
1617.517422,643.1466567250287
1620.740224,523.6547042101439
1623.958755,525.088956172293
1627.173027,394.33421098670976
1630.38305,235.8792710715955
1633.588838,240.31747987495257
1636.7904,338.0306198641972
1639.987749,349.62990910527174
1643.180896,212.54170482077666
1646.369853,125.36549933827224
1649.554632,168.22919743036027
1652.735244,109.962977472183
1655.9117,-21.16165785994591
1659.084013,16.450572897092144
1662.252193,104.22454305752748
1665.416254,54.9560760429061
1668.576205,1.9083028164252411
1671.732059,32.720259272830745
1674.883828,33.26411362698516
1678.031523,-0.6339004385986744
1681.175157,12.46333380791197
1684.314739,25.834498231821918
1687.450284,-3.9344018212419627
1690.581801,-14.826671914819329
1693.709304,-0.5405550101255301
1696.832803,-1.6145458495126093
1699.952311,10.759118432542628
1703.067839,72.5513601452361
1706.179399,152.47175145051517
1709.287003,170.9901637941087
1712.390663,129.1665679583789
1715.49039,140.0994713630362
1718.586197,180.5545351678834
1721.678095,113.40919959692265
1724.766096,1.8076320417169427
1727.850213,-6.900277373620639
1730.930456,49.82952292949926
1734.006838,77.94612374902407
1737.079372,108.31408755960618
1740.148067,190.86345654818453
1743.212938,235.58515801085287
1746.273996,161.9273741336524
1749.331252,78.04412156224362
1752.384718,76.70897366406932
1755.434408,95.16457182985275
1758.480332,91.93730442257501
1761.522503,71.71506488853146
1764.560933,10.276964804924575
1767.595634,-17.36653454940013
1770.626618,63.242656764436006
1773.653896,89.27497871418898
1776.677482,-3.643743739770155
1779.697388,8.965051335798414
1782.713625,154.40909534061348
1785.726205,207.83533503663162
1788.735141,121.99846160656749
1791.740445,55.14051279017788
1794.742129,104.28220064846224
1797.740206,186.48186722549383
1800.734687,194.05145590622658
1803.725585,167.43939917270393
1806.712912,165.57820816729813
1809.69668,124.42453735573986
1812.676902,28.83480722191303
1815.65359,4.518908745287213
1818.626756,53.75572626423895
1821.596413,36.3781865807458
1824.562573,9.539297738986264
1827.525247,80.298341344232
1830.48445,97.15405944072606
1833.440192,5.963929207592447
1836.392487,-1.5515699513169814
1839.341347,59.46577507936556
1842.286784,47.43534245377858
1845.22881,54.118274584134724
1848.167439,102.575470466073
1851.102682,38.88967562283771
1854.034553,-21.003039742087537
1856.963063,104.72669254819908
1859.888226,214.22187942332084
1862.810053,148.49627121793935
1865.728557,84.7586144293949
1868.643751,73.16524867952363
1871.555648,12.361513215616565
1874.46426,-0.2681806997747813
1877.369599,77.10223454562868
1880.271679,80.90319607815678
1883.170512,46.01090502185221
1886.06611,106.23677180009412
1888.958487,145.12470940443595
1891.847655,88.89613665503353
1894.733626,47.296825978067254
1897.616414,10.49828935012031
1900.496032,-29.584652873239826
1903.372491,55.89009971183038
1906.245805,187.99906242722005
1909.115987,145.06378844371486
1911.983049,17.250207923533004
1914.847004,29.805157496437175
1917.707866,116.14083449039589
1920.565646,116.8390813404342
1923.420359,67.96600011031384
1926.272016,29.218276800209328
1929.120631,-5.157473726331801
1931.966216,0.9440728935392855
1934.808786,52.680974252332696
1937.648351,77.94024916898411
1940.484927,40.202509461078996
1943.318525,32.41021343122276
1946.149158,165.561266252251
1948.97684,286.3673161937648
1951.801584,182.12446417113614
1954.623403,14.06660778229056
1957.44231,-8.792024661801321
1960.258318,10.452190657991329
1963.071439,-16.67943102498336
1965.881688,-17.113636008604292
1968.689078,10.804758329384347
1971.493621,8.77011432453289
