Raman shift cm-1,4ATP_1mM_rep3_acc3_processed_intensity
-93.47115107,559.1937429179648
-87.69374369,207.58816318500993
-81.9253076,-24.41162177745437
-76.16582701,56.54558642418939
-70.41528615,105.07392979568314
-64.67366933,-27.5137996153779
-58.94096086,-46.19357814128255
-53.21714512,-15.21927805359536
-47.50220652,7.181509756868387
-41.79612954,143.07636241307824
-36.09889866,202.49154130413558
-30.41049843,118.91435539687586
-24.73091343,62.691090377767125
-19.0601283,17.41762439634499
-13.39812769,15.077303025349593
-7.744896327,-25.010846524503265
-2.100418946,-67.40459151436798
3.535319659,32.67784995886775
9.162334658,27.13172959325142
14.78064118,-3.1544520329508146
20.39025432,2.0927611872798195
25.99118913,43.81634475831107
31.58346061,204.32749048228897
37.16708375,112.18306757244139
42.74207347,-10.794408901877471
48.30844468,39.01222618423751
53.86621222,-31.833785108355872
59.41539093,-73.73501166097421
64.95599558,-12.762222912308076
70.48804091,64.55835742541453
76.01154164,8.07457110377429
81.52651243,-57.75404229560925
87.03296792,194.41844563797434
92.5309227,340.0765029240961
98.02039134,165.8597212196038
103.5013884,128.95470193849314
108.9739282,128.6569441868845
114.4380255,27.56509617248384
119.8936944,229.97164389179227
125.3409495,416.8173895143508
130.779805,134.18272924910707
136.2102753,-70.99649902577522
141.6323747,29.24312529046034
147.0461174,102.45767315008446
152.4515176,52.31450781217005
157.8485895,-57.0147854972372
163.2373472,-67.746249304404
168.6178049,70.11008899170467
173.9899766,148.87028378805562
179.3538764,43.23137683276441
184.7095182,-24.111492057302552
190.0569161,54.01169293491252
195.396084,89.29968185312262
200.7270358,20.20502149887291
206.0497854,-41.38878375913404
211.3643466,16.869179629619154
216.6707333,46.519860849808914
221.9689593,-54.140606703497916
227.2590382,-30.637715547053254
232.5409839,42.61006727289136
237.8148101,-22.49967095882508
243.0805303,-33.34295702558583
248.3381582,-7.252744808337951
253.5877075,-0.12473761211646917
258.8291917,49.56904044125697
264.0626244,52.051023370971734
269.288019,136.52607121143745
274.5053891,175.61328711549544
279.7147481,-0.3390964685228184
284.9161094,-58.807325289890755
290.1094865,-41.269463871676756
295.2948927,165.02142116516433
300.4723414,696.3249013854428
305.6418459,1097.4321875270891
310.8034194,1450.617078571468
315.9570752,1842.0664686661808
321.1028267,1958.9672724029876
326.2406869,1905.822389089241
331.370669,1903.5334382085991
336.4927863,1905.3994034343052
341.6070517,1877.7389045208224
346.7134786,1990.3285216042445
351.8120798,1931.7436389511095
356.9028684,1605.9828427592345
361.9858576,1661.2575029851168
367.0610602,1751.3068266905152
372.1284892,1489.714692045695
377.1881577,1417.2279236359923
382.2400784,1515.890194481787
387.2842644,1674.8543525150908
392.3207284,1808.3252262552135
397.3494833,1648.5286954751389
402.370542,1479.97475118746
407.3839172,1283.7451819679004
412.3896217,963.5754435713068
417.3876683,837.2406443766912
422.3780697,765.2878351400942
427.3608386,662.0452910102025
432.3359876,562.4509333353042
437.3035295,592.6751712654354
442.2634769,679.8611220794386
447.2158423,368.15667840597314
452.1606383,156.90131684008975
457.0978776,169.04378873498604
462.0275727,0.8076918003836226
466.9497361,55.31655003148035
471.8643802,176.22860940252554
476.7715176,121.02664049110547
481.6711608,172.5240499200263
486.5633221,262.2747979863259
491.448014,205.82800248459046
496.3252488,121.01523033462797
501.195039,195.7588595613188
506.0573969,211.59564690771992
510.9123349,65.22861437698441
515.7598651,-16.307228233285173
520.6,122.61604803720508
525.4327518,357.37800109383545
530.2581327,166.0280230666737
535.076155,5.059495155510888
539.8868309,319.29473055565956
544.6901726,221.47736326362408
549.4861922,139.12807866177343
554.2749019,362.6969557382921
559.0563139,-46.78104517151395
563.8304402,-149.13110053715945
568.597293,452.4813820782377
573.3568844,392.64240625104145
578.1092263,-26.4851411776958
582.8543308,59.54707827283195
587.5922101,141.80944673199951
592.322876,43.9156622473911
597.0463405,90.2951702143709
601.7626157,41.67221334853395
606.4717135,-25.955178279111024
611.1736458,9.138627656899216
615.8684246,14.83229473681467
620.5560617,135.32810039795453
625.2365691,132.00052047861743
629.9099585,100.15497161526142
634.5762419,228.0394915672305
639.2354312,135.73340974262
643.887538,1.7348885082369536
648.5325743,-1.2086482936095824
653.1705518,44.42792727939071
657.8014823,24.09839906088454
662.4253775,-99.2795813915591
667.0422493,-21.6940105550486
671.6521092,35.57034221519115
676.2549691,-38.714304578086804
680.8508407,46.844605603645114
685.4397355,91.9360843716449
690.0216654,1.6966140622177175
694.5966419,-25.582522975071495
699.1646767,-9.472434058561372
703.7257814,53.88544829278847
708.2799676,192.6497249497523
712.827247,271.14483322874105
717.367631,185.22516210298977
721.9011314,-3.1052804920674983
726.4277595,-22.575617463473296
730.9475271,120.06200448571688
735.4604456,225.1890643853406
739.9665264,238.31974964103867
744.4657813,207.25948428749217
748.9582215,159.47968130885633
753.4438587,10.437280856157319
757.9227042,-14.820038422982538
762.3947696,15.266515875006128
766.8600662,136.74328379087905
771.3186056,383.5210201756253
775.770399,266.7199624647425
780.215458,140.88693100557305
784.6537939,53.46723764831562
789.0854181,-116.51887032792882
793.510342,67.46011387026495
797.9285769,153.03382911264714
802.3401342,50.50088269031849
806.7450253,172.16934005995105
811.1432614,154.0628282317591
815.5348538,-77.00757902734209
819.9198139,-101.3656705803542
824.2981531,61.02751350237049
828.6698824,115.20433371608755
833.0350133,26.03702596116732
837.393557,21.092391979896988
841.7455248,100.85478794503942
846.0909278,36.96559798031157
850.4297774,-27.17824640395779
854.7620848,65.5350663501982
859.0878611,20.85075300357175
863.4071176,-102.1696971951532
867.7198655,52.44340399854137
872.026116,294.4657770010658
876.3258802,321.5736395780516
880.6191693,208.2005486314584
884.9059946,271.4002306999967
889.186367,367.8701636765575
893.4602979,44.27271141177154
897.7277982,-143.2990875539879
901.9888793,168.9988865085818
906.2435521,271.03920213379746
910.4918277,28.517803212606562
914.7337174,-70.87519271134354
918.9692321,29.744309970245524
923.1983831,3.2426492183397926
927.4211813,44.21133124768582
931.6376378,147.1169708070932
935.8477637,70.52620009244917
940.0515701,184.226974185539
944.249068,94.14793168934935
948.4402684,-100.43102187202469
952.6251825,44.56635947915477
956.8038212,36.33317858292408
960.9761955,128.77828605368126
965.1423166,186.01961912206497
969.3021953,21.21642959928019
973.4558427,21.521214365677324
977.6032699,-34.71287021059187
981.7444877,17.86468338635546
985.8795072,90.39350853767591
990.0083394,-47.788744494942584
994.1309953,21.89916167074509
998.2474857,35.798916040060035
1002.357822,-113.35580842631835
1006.462014,-19.633360049291195
1010.560075,55.84921253102357
1014.652013,85.4090599835189
1018.737841,186.65714628299637
1022.81757,108.39199114823548
1026.891209,-13.199467716521337
1030.958771,48.54996271441578
1035.020266,178.46915611205824
1039.075705,59.265166403264566
1043.1251,-76.27282357560878
1047.16846,104.8870601123624
1051.205797,87.72755688022409
1055.237121,12.418581461152584
1059.262444,43.600433593393504
1063.281777,-55.150451185086716
1067.295131,393.51679353377386
1071.302515,905.6764016641738
1075.303942,969.4780039117722
1079.299422,1134.0274450082456
1083.288966,836.2355467370111
1087.272585,290.26046818282043
1091.250289,99.4140095588259
1095.222091,-48.33488171235622
1099.187999,3.779319823499174
1103.148026,60.66636004771938
1107.102183,-9.753902473771557
1111.050479,45.90180934384962
1114.992927,-29.975095900239708
1118.929536,-62.25662724584231
1122.860318,39.061218261397826
1126.785283,-34.13383649654311
1130.704443,156.73637367033913
1134.617808,586.0473324104727
1138.52539,749.7496582318901
1142.427198,738.0501805190307
1146.323244,493.1476232632722
1150.213538,365.3798854790194
1154.098093,417.77121307242487
1157.976917,133.6054373125064
1161.850023,65.34129364013799
1165.717421,229.8134831992055
1169.579121,253.17311998748022
1173.435135,327.664864665335
1177.285474,157.59171313340508
1181.130148,34.14840766960508
1184.969169,298.3607447303251
1188.802547,412.95220853787936
1192.630292,157.9872146810448
1196.452416,9.038741280107697
1200.26893,36.24256804283573
1204.079844,-98.27878985506247
1207.88517,-68.14917680083764
1211.684917,-0.8983980888521206
1215.479098,141.028019452964
1219.267722,366.0318265298199
1223.050801,24.664291507343705
1226.828346,-55.59803635705033
1230.600366,159.7337780064094
1234.366874,30.011859931568154
1238.12788,38.039728539082894
1241.883395,46.462726487035255
1245.633429,122.18892786000643
1249.377994,152.87863984979757
1253.1171,-16.270728017400756
1256.850759,18.137717812569626
1260.578981,17.31475116478584
1264.301776,52.70043639213634
1268.019157,104.50818900890299
1271.731133,-85.36785806318927
1275.437715,-35.71582706039987
1279.138915,292.12835752377333
1282.834743,333.3322787816602
1286.52521,42.18853278607012
1290.210328,-73.19285978630074
1293.890106,69.3491343969129
1297.564555,131.61146564039217
1301.233688,162.12099048920095
1304.897514,205.39858529893516
1308.556044,268.67097913076344
1312.209289,221.45892334118236
1315.857261,-52.01862983879661
1319.499969,-1.0927158739439946
1323.137425,233.51722464836882
1326.769641,219.10970718739003
1330.396626,195.74129555273095
1334.018391,189.60026617962652
1337.634948,182.84198962195438
1341.246307,62.04074552491235
1344.85248,1.9869242065858828
1348.453477,48.49887909031543
1352.049309,-126.49162542098344
1355.639987,-66.04855610495115
1359.225522,146.49406841892855
1362.805925,68.79263838616905
1366.381207,39.39492681404511
1369.951379,64.95183537023598
1373.516452,127.40432459893964
1377.076436,273.81527316662243
1380.631343,257.1412878022776
1384.181184,228.2045305382518
1387.725969,293.2410353676426
1391.26571,264.4544097322552
1394.800417,281.3779098224827
1398.330102,335.8489788931981
1401.854776,238.76752133866745
1405.374448,159.72483085838417
1408.889132,18.663337894416635
1412.398837,-149.00320679278448
1415.903574,55.92618930868455
1419.403355,287.2678476119287
1422.89819,265.3908928033293
1426.388091,388.8151766967036
1429.873069,514.7723712632048
1433.353134,415.33272098799455
1436.828298,308.9085457835081
1440.298571,164.44183875522216
1443.763965,24.102903773847597
1447.224491,-29.735435178802604
1450.68016,-45.59076527377204
1454.130983,-4.159843778014412
1457.576971,36.33400099075191
1461.018135,87.56376681397641
1464.454486,98.11438047755951
1467.886036,44.87033043270625
1471.312794,-19.275128104661192
1474.734774,37.23499566946051
1478.151985,130.46298963307345
1481.564439,53.355061228967784
1484.972146,25.08698367389473
1488.375119,-65.02851019903493
1491.773368,-41.76652639229636
1495.166904,215.30548553803396
1498.555739,120.35976737002031
1501.939883,2.4337787896829344
1505.319349,34.84864756236864
1508.694146,-15.453758765366352
1512.064286,144.97582593220397
1515.429781,172.96121929485014
1518.790642,108.82993091786119
1522.146879,269.0494107770197
1525.498505,34.079834287722086
1528.845529,-97.91632826214291
1532.187965,201.36403310099502
1535.525822,128.71910632075802
1538.859112,212.9236494453404
1542.187846,356.5843871400737
1545.512036,182.05159612931755
1548.831693,455.2728373766691
1552.146829,504.47527630547927
1555.457453,33.08716871300149
1558.763579,34.65773338448275
1562.065216,291.78652951089686
1565.362377,412.30450383243544
1568.655073,611.2215131016434
1571.943315,692.8806109699731
1575.227114,534.138737255027
1578.506482,583.4449034713111
1581.781431,709.6876870159961
1585.051971,565.3856510420045
1588.318114,552.5636457372588
1591.579872,653.0930740037719
1594.837255,578.6628257018659
1598.090275,340.7641854478266
1601.338945,253.6469730449403
1604.583274,412.1517616051561
1607.823275,166.72240005070347
1611.058959,-88.76843688897193
1614.290338,43.97615605261404
1617.517422,-21.950085065775433
1620.740224,-41.237956795243996
1623.958755,60.71834506859537
1627.173027,-15.899352465391367
1630.38305,17.373134901293582
1633.588838,84.08808013584579
1636.7904,42.293330578634425
1639.987749,194.75243566322058
1643.180896,196.05403388150705
1646.369853,53.58601692840595
1649.554632,236.1356802581228
1652.735244,143.07853846715108
1655.9117,-70.12582308885098
1659.084013,201.47444670528608
1662.252193,261.7468627933459
1665.416254,-34.95984209852344
1668.576205,8.021759672373872
1671.732059,264.86051989811244
1674.883828,169.25085148002645
1678.031523,15.461873328956267
1681.175157,111.79218084803986
1684.314739,56.52710913138527
1687.450284,13.296719672119924
1690.581801,82.58400377976974
1693.709304,-53.60641738715144
1696.832803,-51.64466129403371
1699.952311,30.59363226180924
1703.067839,-13.774234156502128
1706.179399,158.93365276893235
1709.287003,236.7507736484114
1712.390663,31.623507793374642
1715.49039,22.651991238273247
1718.586197,169.24843666517452
1721.678095,110.55670175104217
1724.766096,-16.992611582417595
1727.850213,-17.68976910854975
1730.930456,-36.53736550137329
1734.006838,-2.375971331412795
1737.079372,36.25553173541489
1740.148067,18.798412149664102
1743.212938,126.11492201168801
1746.273996,114.6879890949355
1749.331252,-6.398367289656903
1752.384718,-13.173388756600248
1755.434408,32.509806799604576
1758.480332,136.93416908115006
1761.522503,126.83713590770091
1764.560933,-35.41925837411215
1767.595634,-28.42039872251369
1770.626618,155.85765662395784
1773.653896,167.70362742172597
1776.677482,18.593273033874517
1779.697388,56.95943178643405
1782.713625,191.1053894819294
1785.726205,232.85599745637492
1788.735141,276.4322256522098
1791.740445,196.58582410339812
1794.742129,136.36606801860933
1797.740206,361.24145323578
1800.734687,442.80095017922065
1803.725585,304.1711909179313
1806.712912,248.3564051818656
1809.69668,138.05169273379653
1812.676902,-15.990247303554902
1815.65359,-83.27357414389763
1818.626756,23.68026790178737
1821.596413,140.37893707788197
1824.562573,16.375865900774464
1827.525247,6.648906835580647
1830.48445,106.55395414923841
1833.440192,-13.634241827401466
1836.392487,-57.50289863149713
1839.341347,59.82972687437866
1842.286784,47.36750528567835
1845.22881,4.342164019907067
1848.167439,123.01076666713718
1851.102682,158.2859930777256
1854.034553,10.473881088003797
1856.963063,88.36207223447013
1859.888226,292.1836872896211
1862.810053,169.0556384104122
1865.728557,24.170128277909974
1868.643751,66.6821082470871
1871.555648,-76.60017315402123
1874.46426,-118.10588933573698
1877.369599,115.48944492659925
1880.271679,44.62278288457365
1883.170512,-11.17973742916152
1886.06611,202.6733037422943
1888.958487,133.08404024698882
1891.847655,28.824816898828914
1894.733626,131.15478594843518
1897.616414,58.82763998889834
1900.496032,-62.21662994577071
1903.372491,39.31369547029015
1906.245805,172.78783176201478
1909.115987,216.7131290012962
1911.983049,142.58835830548838
1914.847004,96.5041174048306
1917.707866,205.4064489465365
1920.565646,114.59393461221634
1923.420359,-20.637301720008026
1926.272016,-17.421186434178825
1929.120631,-77.99769139170834
1931.966216,29.095951289626868
1934.808786,68.23929838313188
1937.648351,-40.06190362714082
1940.484927,29.157915955442697
1943.318525,5.683722960241479
1946.149158,200.61390546746998
1948.97684,561.1170246280259
1951.801584,302.75892697320313
1954.623403,60.37205660487672
1957.44231,180.00184465777144
1960.258318,4.678446647009931
1963.071439,-128.22167113101727
1965.881688,22.13391165300048
1968.689078,48.65943873845188
1971.493621,-7.7967296483409605
