Raman shift cm-1,4ATP_10pM_rep1_acc5_processed_intensity
-93.47115107,602.3236083841778
-87.69374369,145.93519291702813
-81.9253076,-8.883929856150417
-76.16582701,59.12496254815241
-70.41528615,115.66466887213028
-64.67366933,84.06592692243754
-58.94096086,14.766480097731446
-53.21714512,-14.9008067912144
-47.50220652,48.19115254406692
-41.79612954,159.64123677056892
-36.09889866,209.19465749906487
-30.41049843,167.83108364382176
-24.73091343,117.77998524077802
-19.0601283,104.48048714089896
-13.39812769,72.68802636149216
-7.744896327,15.216193992826847
-2.100418946,21.24845046354368
3.535319659,87.87243534589336
9.162334658,92.31684368923788
14.78064118,18.03229319063188
20.39025432,-5.676279949117022
25.99118913,70.95637813953658
31.58346061,130.26133849143028
37.16708375,81.99178999310354
42.74207347,-1.20288628160489
48.30844468,-32.46167440070552
53.86621222,-32.538869901078044
59.41539093,-16.436525070102018
64.95599558,43.501187726310484
70.48804091,85.76698390152563
76.01154164,39.29606085546686
81.52651243,14.025347587062228
87.03296792,99.56930723991505
92.5309227,156.08194330828184
98.02039134,99.87315837484522
103.5013884,38.65646976731031
108.9739282,20.319851622656955
114.4380255,49.13727155456547
119.8936944,169.8952049165763
125.3409495,263.5080381251918
130.779805,156.2336587334156
136.2102753,-7.233477334075076
141.6323747,23.133422867476042
147.0461174,151.25828067712484
152.4515176,149.24776442110795
157.8485895,82.7047486262698
163.2373472,144.7021767079135
168.6178049,297.562045847136
173.9899766,367.8142327230343
179.3538764,350.60290345977074
184.7095182,378.29812674498186
190.0569161,459.78898464319604
195.396084,494.62520471856885
200.7270358,480.7402331131856
206.0497854,489.6825776642748
211.3643466,524.5164980033827
216.6707333,547.1017237682282
221.9689593,568.341154550434
227.2590382,617.5795850809031
232.5409839,669.2092003939637
237.8148101,684.8000313937002
243.0805303,689.8332429926086
248.3381582,738.0866807997724
253.5877075,828.076944334513
258.8291917,905.6558355956208
264.0626244,956.6397030196066
269.288019,1020.6723091841329
274.5053891,1077.659267671127
279.7147481,1065.835557178472
284.9161094,1032.7697940541132
290.1094865,1052.640863696179
295.2948927,1009.9041510185049
300.4723414,725.4765074849169
305.6418459,289.22831808694275
310.8034194,3.5497552406129707
315.9570752,-20.07242537680772
321.1028267,57.308108940275005
326.2406869,104.4760358707292
331.370669,117.52641172524449
336.4927863,97.39972718457483
341.6070517,52.63059220229998
346.7134786,11.76048668304891
351.8120798,-14.387234965005327
356.9028684,14.098234770403224
361.9858576,121.41803636240846
367.0610602,212.69432987588624
372.1284892,240.01908195995892
377.1881577,343.1227974296293
382.2400784,608.6527614022074
387.2842644,894.4615285634368
392.3207284,1026.459121808721
397.3494833,978.8121991466546
402.370542,794.4734172820733
407.3839172,519.5520147922466
412.3896217,265.27479268812215
417.3876683,135.648117701448
422.3780697,109.82275408128417
427.3608386,149.81717923957103
432.3359876,265.8739646433971
437.3035295,370.70757751477385
442.2634769,315.56304272123924
447.2158423,125.60284040036814
452.1606383,-17.884493796555446
457.0978776,-8.974529627893574
462.0275727,94.69290055038668
466.9497361,157.1663932961867
471.8643802,108.40486364783146
476.7715176,19.023067511385204
481.6711608,-4.685583095670033
486.5633221,31.113962097356712
491.448014,40.28809284750959
496.3252488,12.274104351301377
501.195039,14.523185727999236
506.0573969,36.941435177126465
510.9123349,10.391201778016459
515.7598651,-19.3510304282353
520.6,38.28615068772594
525.4327518,110.52449164718014
530.2581327,74.19199240746285
535.076155,-10.490858979186315
539.8868309,1.6679704738144459
544.6901726,135.33929359979348
549.4861922,270.00682311688035
554.2749019,239.54818241059198
559.0563139,77.40580669126463
563.8304402,44.760439472214145
568.597293,176.8888706514212
573.3568844,208.10752352358142
578.1092263,96.84494137736559
582.8543308,52.367740390944704
587.5922101,93.76551069647672
592.322876,85.48939133532541
597.0463405,23.051524219984067
601.7626157,-18.790755833975638
606.4717135,-18.067064367285212
611.1736458,20.73114401782574
615.8684246,61.03297714054651
620.5560617,40.88724502008387
625.2365691,-13.018268312134342
629.9099585,3.3578695064195734
634.5762419,97.06955791881157
639.2354312,144.1350756269463
643.887538,86.41950912098136
648.5325743,43.275688947883104
653.1705518,90.89334478854937
657.8014823,99.63927541480831
662.4253775,10.95262879517825
667.0422493,-17.8952167251766
671.6521092,63.71114115228292
676.2549691,115.68276695465832
680.8508407,81.37434756131574
685.4397355,22.50909406918538
690.0216654,-13.208844748877048
694.5966419,-10.53258944991964
699.1646767,12.879742910356219
703.7257814,41.05667280913747
708.2799676,90.68890334028423
712.827247,125.66466705935898
717.367631,78.88708014634634
721.9011314,4.050407287362344
726.4277595,19.575202874905145
730.9475271,126.5158791082695
735.4604456,224.53068924733677
739.9665264,249.36773549527393
744.4657813,211.72570825890884
748.9582215,133.01915589694775
753.4438587,18.89854915092107
757.9227042,-63.58101189256642
762.3947696,1.4767915864032375
766.8600662,191.28036800857637
771.3186056,319.58179104709325
775.770399,289.53314296732015
780.215458,182.43564196747275
784.6537939,86.74246786044242
789.0854181,44.668953834750184
793.510342,80.68639289880886
797.9285769,146.76133699100268
802.3401342,169.93349632744784
806.7450253,147.5766119664214
811.1432614,94.87849960054325
815.5348538,24.237358082824752
819.9198139,9.770311512816889
824.2981531,94.63032993398289
828.6698824,173.7684608352539
833.0350133,149.71379731051874
837.393557,96.0367508677785
841.7455248,95.09643827740742
846.0909278,85.26003689794688
850.4297774,20.301501183406494
854.7620848,-26.67205071666193
859.0878611,-11.111434779662922
863.4071176,44.8306199063573
867.7198655,148.56121838642787
872.026116,267.8109742615377
876.3258802,299.1127180944312
880.6191693,259.93724465433553
884.9059946,258.9493980140262
889.186367,247.49369305275684
893.4602979,144.3639950201307
897.7277982,73.01488811700825
901.9888793,129.37228358125267
906.2435521,169.3537009985915
910.4918277,83.88698354912796
914.7337174,-9.831344056698633
918.9692321,8.657511386459618
923.1983831,106.65301671380126
927.4211813,199.84992931572083
931.6376378,233.54063064628704
935.8477637,187.71704167974707
940.0515701,88.22410914529202
944.249068,-2.7325125671465695
948.4402684,-27.661665116480147
952.6251825,18.875711622599503
956.8038212,91.07106523504697
960.9761955,136.48829561762335
965.1423166,124.90425024823614
969.3021953,65.62710643257704
973.4558427,9.730822147704078
977.6032699,11.349586326142482
981.7444877,65.09839352399888
985.8795072,105.20012874655191
990.0083394,97.41829675640805
994.1309953,63.459663098671676
998.2474857,19.583545913668377
1002.357822,-14.732866115922544
1006.462014,9.48917874968246
1010.560075,119.7565801527129
1014.652013,242.7094973777007
1018.737841,243.43918772623886
1022.81757,133.8693823002603
1026.891209,102.5740445638183
1030.958771,206.17504975055667
1035.020266,266.5093828594821
1039.075705,209.598674405814
1043.1251,199.71628519128345
1047.16846,288.090405934564
1051.205797,282.9138970025474
1055.237121,109.13053758105073
1059.262444,-42.256371656147536
1063.281777,-3.1377363313894193
1067.295131,186.19263276635675
1071.302515,415.37035059874734
1075.303942,630.1826162019895
1079.299422,738.1908316257665
1083.288966,622.6885131698675
1087.272585,362.5676269686991
1091.250289,172.07678401932753
1095.222091,115.0415971825683
1099.187999,107.36297991501024
1103.148026,90.35922062853362
1107.102183,55.48667084969654
1111.050479,16.98376410171388
1114.992927,13.547436249913982
1118.929536,40.270356518148674
1122.860318,22.935049933576916
1126.785283,-28.950793372149437
1130.704443,-1.6578426131435489
1134.617808,97.23846111207611
1138.52539,138.857794415836
1142.427198,104.78818295807179
1146.323244,78.14613558805632
1150.213538,74.90665871801176
1154.098093,49.95973861764931
1157.976917,18.476689558156004
1161.850023,52.64449355329632
1165.717421,152.4784953275811
1169.579121,222.70463912445413
1173.435135,200.89095026477716
1177.285474,153.0718684668654
1181.130148,186.79930205580342
1184.969169,267.1481133878214
1188.802547,258.9677529032373
1192.630292,155.3438266996472
1196.452416,66.30889483999863
1200.26893,22.83506133378289
1204.079844,-20.39310100632519
1207.88517,-38.21090402518571
1211.684917,63.111448115744466
1215.479098,251.91597596251898
1219.267722,311.4138370502475
1223.050801,173.98228132980205
1226.828346,86.55112360528636
1230.600366,170.61298309049266
1234.366874,225.49934905130817
1238.12788,165.53623919699544
1241.883395,145.99667487402564
1245.633429,192.48893560180522
1249.377994,168.29496647282403
1253.1171,70.7710378047732
1256.850759,10.822733291507703
1260.578981,10.168782374184099
1264.301776,23.088122328183452
1268.019157,15.01624504816252
1271.731133,-17.399037481330932
1275.437715,-9.256485130268551
1279.138915,75.88808859416727
1282.834743,125.03621375817434
1286.52521,56.56159420561805
1290.210328,-4.531608158775839
1293.890106,39.51894957819296
1297.564555,83.71686241772392
1301.233688,76.24921930215123
1304.897514,114.30535651505176
1308.556044,163.70278001216758
1312.209289,87.51303012952738
1315.857261,-31.849444488424396
1319.499969,2.13136202491863
1323.137425,163.2171319451742
1326.769641,272.81630614644575
1330.396626,255.34570199457136
1334.018391,164.93647685923406
1337.634948,83.35858538081473
1341.246307,39.807655015100075
1344.85248,13.697591334115945
1348.453477,-1.54135925627795
1352.049309,2.1229433440519614
1355.639987,18.94586692549707
1359.225522,52.697133372675204
1362.805925,112.34060944005944
1366.381207,161.2428104806061
1369.951379,149.06792812707073
1373.516452,103.850043466287
1377.076436,99.75959779567222
1380.631343,150.25629674325762
1384.181184,200.45787962748295
1387.725969,194.65861051294155
1391.26571,148.34124153423264
1394.800417,143.5163888809912
1398.330102,206.2761734211964
1401.854776,250.36166990278286
1405.374448,190.19354113486526
1408.889132,60.06891069999425
1412.398837,-9.227328194025347
1415.903574,48.54085283501284
1419.403355,142.76284518696465
1422.89819,181.61982362410973
1426.388091,201.06458687980785
1429.873069,224.57555391519483
1433.353134,201.28916053647868
1436.828298,148.2134267723379
1440.298571,113.9662910716374
1443.763965,59.44709291694558
1447.224491,-14.645560822198519
1450.68016,-1.5592243595171453
1454.130983,114.55892834782274
1457.576971,219.97662779314282
1461.018135,248.50615073385575
1464.454486,210.28075915540308
1467.886036,132.66568029801886
1471.312794,84.88459561862784
1474.734774,133.87214912105577
1478.151985,217.64605983478586
1481.564439,191.7633346704103
1484.972146,54.55553674475526
1488.375119,-19.567978938845503
1491.773368,48.06187959824649
1495.166904,120.17388080819839
1498.555739,90.07264955451896
1501.939883,22.6909876585123
1505.319349,-3.500777020944831
1508.694146,8.119441999800387
1512.064286,20.006371441637413
1515.429781,19.10783874574858
1518.790642,24.068270201113805
1522.146879,12.949059216664054
1525.498505,-34.62552202355674
1528.845529,-44.09930444297057
1532.187965,21.812555462677352
1535.525822,81.10045932093426
1538.859112,85.26966172841992
1542.187846,98.3435725681399
1545.512036,198.16694614602724
1548.831693,312.61866895852097
1552.146829,258.655102448808
1555.457453,60.796237240184595
1558.763579,-23.91584541877955
1562.065216,110.30896010985306
1565.362377,299.75640864109715
1568.655073,366.58641509684816
1571.943315,304.2296617977454
1575.227114,248.91553340051053
1578.506482,303.27964008449896
1581.781431,405.0773273998014
1585.051971,456.57317230406045
1588.318114,466.21397527165004
1591.579872,441.812645357086
1594.837255,348.8681157266313
1598.090275,238.06622960918986
1601.338945,172.6617364101821
1604.583274,93.44106297273493
1607.823275,-1.3867552933606646
1611.058959,8.677918178441011
1614.290338,81.00482086665185
1617.517422,69.13714264547781
1620.740224,18.76183568557719
1623.958755,7.916680271431758
1627.173027,-12.990230603139647
1630.38305,-30.777122479839864
1633.588838,22.77769010952312
1636.7904,101.64252223999749
1639.987749,124.94306188744349
1643.180896,121.66997303258935
1646.369853,153.76231486502857
1649.554632,170.86945700061213
1652.735244,114.22508247854587
1655.9117,79.48928990621232
1659.084013,126.8162333190758
1662.252193,139.15122587213577
1665.416254,95.57716914501376
1668.576205,123.59482240345703
1671.732059,201.0836870885195
1674.883828,198.72424614414535
1678.031523,130.58847059887168
1681.175157,87.92882095296174
1684.314739,80.56057569438673
1687.450284,63.301096644461595
1690.581801,17.649252076695966
1693.709304,-18.808987324243937
1696.832803,2.665275588432408
1699.952311,81.13010063602475
1703.067839,180.71624544885606
1706.179399,245.3502777966586
1709.287003,211.41934380045967
1712.390663,124.58816198221399
1715.49039,121.7472691428965
1718.586197,181.45384668801395
1721.678095,140.97504891482885
1724.766096,11.558781825481645
1727.850213,-39.35547343597615
1730.930456,0.5833046003549498
1734.006838,18.589491312244867
1737.079372,47.46862912412827
1740.148067,169.11848124589253
1743.212938,263.6829054234608
1746.273996,197.94761971033566
1749.331252,78.73569474868304
1752.384718,57.5969566328736
1755.434408,112.22660208814693
1758.480332,134.5013661595894
1761.522503,68.57804896159908
1764.560933,-17.250891407549823
1767.595634,16.169327649510265
1770.626618,148.49745208087884
1773.653896,176.07795588463642
1776.677482,62.60742286801258
1779.697388,36.706852966332185
1782.713625,194.95167671354406
1785.726205,317.432592440852
1788.735141,212.87403257438285
1791.740445,16.90642380304022
1794.742129,-5.610461367403842
1797.740206,153.57883769828027
1800.734687,267.0725052838116
1803.725585,228.0574003820914
1806.712912,138.16600668675258
1809.69668,85.6281578263394
1812.676902,51.88620731052315
1815.65359,10.425256413316443
1818.626756,-16.80143729617334
1821.596413,-2.318372867854066
1824.562573,38.210424584464846
1827.525247,49.06750959258435
1830.48445,12.56024743127297
1833.440192,-1.3944982625172813
1836.392487,54.70114987156279
1839.341347,116.20739440058404
1842.286784,122.9736840336906
1845.22881,110.13562132623935
1848.167439,101.72791302518871
1851.102682,67.79751957080117
1854.034553,44.50903103714352
1856.963063,106.45209839793586
1859.888226,196.3934566655441
1862.810053,188.13161020410132
1865.728557,85.68795284874037
1868.643751,-10.124629535139192
1871.555648,-34.16237713608194
1874.46426,21.299787518541635
1877.369599,91.88898090609996
1880.271679,96.11389600766513
1883.170512,66.51906194338231
1886.06611,77.2270402417091
1888.958487,101.10607394484929
1891.847655,85.22114398750703
1894.733626,39.7058582197584
1897.616414,4.210615410166213
1900.496032,20.917812160059977
1903.372491,91.45928680416137
1906.245805,148.62535186638118
1909.115987,143.79578265545888
1911.983049,112.08780794276382
1914.847004,96.84691279237215
1917.707866,81.46821804529628
1920.565646,45.90608695804394
1923.420359,11.792021593501318
1926.272016,-9.991445615854516
1929.120631,-20.652630418270988
1931.966216,6.832782639566311
1934.808786,63.73452478660934
1937.648351,81.84222953391978
1940.484927,66.30907236149523
1943.318525,132.27758199407268
1946.149158,299.20851962981885
1948.97684,383.58122226907545
1951.801584,267.02621971578344
1954.623403,92.43767487731267
1957.44231,13.0613328515733
1960.258318,-3.02878879982428
1963.071439,-14.910357589805393
1965.881688,-12.75531220389846
1968.689078,3.59443037817654
1971.493621,15.677259139844617
