Raman shift cm-1,4ATP_100nM_rep3_acc5_processed_intensity
-93.47115107,287.66097972510624
-87.69374369,51.39324657035816
-81.9253076,-31.218682269601917
-76.16582701,40.319066515299205
-70.41528615,34.95573603558505
-64.67366933,-66.03703615442677
-58.94096086,-72.55305764159357
-53.21714512,-51.76242466152485
-47.50220652,-43.05800306550288
-41.79612954,53.00860348922696
-36.09889866,119.75569339670265
-30.41049843,76.03575752254673
-24.73091343,36.08853554009855
-19.0601283,45.777196482863985
-13.39812769,33.618838854446764
-7.744896327,-5.220497718669435
-2.100418946,35.54465420943363
3.535319659,88.1192490185322
9.162334658,28.68755770872609
14.78064118,-40.4582684733097
20.39025432,-38.25098470960823
25.99118913,32.298930605390474
31.58346061,103.4137122039034
37.16708375,66.31481967666883
42.74207347,14.853607906584084
48.30844468,12.80998692936233
53.86621222,-42.41448941435082
59.41539093,-85.76212933470146
64.95599558,10.984020691628253
70.48804091,126.85016220115816
76.01154164,76.51740771941121
81.52651243,-0.5411097785463639
87.03296792,69.06777357097683
92.5309227,95.09362918387627
98.02039134,22.335347032757735
103.5013884,23.517329251489848
108.9739282,20.687683606420222
114.4380255,4.3634709137637415
119.8936944,147.04231396509536
125.3409495,246.864054291942
130.779805,64.37362529524687
136.2102753,-76.77925577494761
141.6323747,34.67436436737817
147.0461174,87.41284556640139
152.4515176,19.025514281437516
157.8485895,-2.013072226272289
163.2373472,-22.07590104794373
168.6178049,36.5538125176494
173.9899766,155.48044569027107
179.3538764,68.98402970113207
184.7095182,-32.01622147563038
190.0569161,102.78416071049946
195.396084,160.28167792347548
200.7270358,14.977012998060598
206.0497854,-35.52233566750258
211.3643466,41.06862865928518
216.6707333,49.6775990385958
221.9689593,19.388030563389712
227.2590382,33.510144958206304
232.5409839,-5.5542223434847315
237.8148101,-68.58965385475892
243.0805303,-3.994506537431448
248.3381582,62.393277060528604
253.5877075,0.74355921046741
258.8291917,-16.980144865922348
264.0626244,70.26863880510584
269.288019,109.1030735012751
274.5053891,37.66644820786351
279.7147481,-44.58442025439225
284.9161094,-18.031771118185276
290.1094865,145.60682109443894
295.2948927,702.4327403573868
300.4723414,2035.144010179409
305.6418459,3851.5513359961633
310.8034194,5414.683470110014
315.9570752,6321.936234917301
321.1028267,6613.002769038854
326.2406869,6709.8142686146675
331.370669,6951.023185075409
336.4927863,7227.985928228498
341.6070517,7506.9745134350505
346.7134786,7882.391698325599
351.8120798,8105.847028393873
356.9028684,8011.598706571023
361.9858576,7842.315315990809
367.0610602,7770.312627935647
372.1284892,8063.756854667394
377.1881577,9493.17408982823
382.2400784,12663.73736168322
387.2842644,16524.531965976494
392.3207284,18346.65867210825
397.3494833,16847.486915057892
402.370542,13663.264700016118
407.3839172,10572.153883048719
412.3896217,8122.5493281984
417.3876683,6530.51755989468
422.3780697,5637.706073937474
427.3608386,5008.390689807915
432.3359876,4557.696470215156
437.3035295,4331.631631853303
442.2634769,4064.7856537581074
447.2158423,3669.9944026509443
452.1606383,3446.737493084374
457.0978776,3280.263691915223
462.0275727,2913.6944073308964
466.9497361,2648.7807847683416
471.8643802,2631.587427644108
476.7715176,2621.9939307063464
481.6711608,2618.3165149681026
486.5633221,2626.0554570320646
491.448014,2467.412012706069
496.3252488,2249.6997758851808
501.195039,2183.343123090256
506.0573969,2125.6435138242546
510.9123349,1914.0856380190912
515.7598651,1667.2497812843503
520.6,1506.5648661397508
525.4327518,1344.2776686670695
530.2581327,1108.2620764997046
535.076155,993.3835207446923
539.8868309,1035.5990942170338
544.6901726,968.4013720524995
549.4861922,873.5486750263094
554.2749019,847.985907557872
559.0563139,665.1403123151531
563.8304402,494.4450646374198
568.597293,462.46534068190476
573.3568844,254.48954429054947
578.1092263,46.31475174246725
582.8543308,88.82776431500724
587.5922101,37.59358231287251
592.322876,-51.46644831355525
597.0463405,114.84233659729534
601.7626157,169.1939504362881
606.4717135,-1.9372473774847094
611.1736458,-14.448578522380558
615.8684246,72.22319238611226
620.5560617,65.26067995699168
625.2365691,38.014764284899684
629.9099585,95.31279022935587
634.5762419,300.22090523747147
639.2354312,432.7831485178913
643.887538,251.15183455440774
648.5325743,78.68926110203074
653.1705518,151.96119053917482
657.8014823,126.69995901886296
662.4253775,-34.53284537993295
667.0422493,-33.063049937891265
671.6521092,26.555225109635103
676.2549691,-10.089329210084998
680.8508407,1.9788304092166982
685.4397355,113.06372367366293
690.0216654,199.5138535019646
694.5966419,305.1891446807181
699.1646767,491.37892226823124
703.7257814,550.705619315604
708.2799676,469.14600647992893
712.827247,453.98335867615765
717.367631,425.8284314385776
721.9011314,283.66286097814987
726.4277595,120.84730714889429
730.9475271,42.05913226643429
735.4604456,102.51743387150464
739.9665264,174.8644891932272
744.4657813,180.91794602243112
748.9582215,200.50641434077988
753.4438587,137.9554746286517
757.9227042,-5.252436058588728
762.3947696,-14.564942069761173
766.8600662,120.3455877388817
771.3186056,269.4951823353339
775.770399,340.64756218574485
780.215458,337.82695565357426
784.6537939,346.3554524326315
789.0854181,403.12842278821904
793.510342,604.072398559169
797.9285769,942.8068465525517
802.3401342,1103.4293017504074
806.7450253,989.6543683006735
811.1432614,846.7613765724338
815.5348538,716.835251618834
819.9198139,576.4468679397809
824.2981531,512.6785680087339
828.6698824,366.91319575461625
833.0350133,77.87476353843437
837.393557,-51.83498577995678
841.7455248,5.264832261252579
846.0909278,39.76044366661621
850.4297774,35.6955798957533
854.7620848,6.757227691489227
859.0878611,-51.71024309211948
863.4071176,-76.18833776679882
867.7198655,47.910486342866186
872.026116,269.766989655626
876.3258802,285.52465769669624
880.6191693,163.90412373552962
884.9059946,232.4604697210432
889.186367,234.39698004752856
893.4602979,3.1279805271451764
897.7277982,27.196105333643384
901.9888793,338.5593505729365
906.2435521,460.6568887751913
910.4918277,421.9639976818068
914.7337174,493.81176278911045
918.9692321,631.3320037499468
923.1983831,760.4655632788438
927.4211813,884.217948978513
931.6376378,902.2275614682252
935.8477637,843.3042299559137
940.0515701,852.1746719071886
944.249068,885.4843496141834
948.4402684,926.7694263968497
952.6251825,1055.9621851197005
956.8038212,1253.215998937014
960.9761955,1384.860847171345
965.1423166,1288.5576564041178
969.3021953,1145.248091081646
973.4558427,1168.655189788298
977.6032699,1101.825550906618
981.7444877,945.6414987607857
985.8795072,963.8238779665718
990.0083394,1005.5151174535617
994.1309953,1015.1384020939951
998.2474857,1154.6583721276443
1002.357822,1295.713372121944
1006.462014,1176.7161101380218
1010.560075,755.3419000171151
1014.652013,343.659419911729
1018.737841,175.63729611787832
1022.81757,51.89676832369936
1026.891209,-63.840763813665546
1030.958771,32.71637517857305
1035.020266,125.00602808969879
1039.075705,-3.4113313367214815
1043.1251,-29.19400219536331
1047.16846,159.28788639337256
1051.205797,316.4599694417413
1055.237121,518.8167117072812
1059.262444,963.6400576490242
1063.281777,1944.0600805270717
1067.295131,4012.043122765048
1071.302515,6982.751786559934
1075.303942,9508.481187817166
1079.299422,9974.65997929732
1083.288966,7833.559341617344
1087.272585,4572.820317663109
1091.250289,2129.2634290390924
1095.222091,819.5198747820496
1099.187999,201.43801190859548
1103.148026,44.52250154029723
1107.102183,36.77327927777213
1111.050479,-22.477064153748255
1114.992927,-40.68437610652022
1118.929536,112.50823967595024
1122.860318,341.7506951215357
1126.785283,643.1079939669419
1130.704443,1322.6688648402587
1134.617808,2231.5131207002582
1138.52539,2752.176800103707
1142.427198,2514.7354046117953
1146.323244,1728.787858818611
1150.213538,1131.852238109308
1154.098093,930.4281624717179
1157.976917,769.2788427428926
1161.850023,826.5468944173513
1165.717421,1187.4928679434745
1169.579121,1499.0970926667055
1173.435135,1752.267099256939
1177.285474,2069.228834600845
1181.130148,2251.3852691200377
1184.969169,1967.7318140338732
1188.802547,1319.0810097161298
1192.630292,778.4408668214581
1196.452416,455.5960370874465
1200.26893,244.7796436570082
1204.079844,133.26046404889925
1207.88517,1.9310050350000267
1211.684917,-68.49273706201664
1215.479098,105.84778289444937
1219.267722,208.49010858794725
1223.050801,38.62145726801996
1226.828346,21.95814100769911
1230.600366,268.1002608311768
1234.366874,357.8830861646555
1238.12788,237.28565171572257
1241.883395,229.96579908812808
1245.633429,342.63119415493225
1249.377994,315.4018421519428
1253.1171,138.6815543575144
1256.850759,20.84472934824116
1260.578981,33.30885802438993
1264.301776,45.56293230457828
1268.019157,-13.439389447777966
1271.731133,-76.62480877162042
1275.437715,-73.88500901994782
1279.138915,50.15579572421521
1282.834743,162.40520402855142
1286.52521,74.67954724601337
1290.210328,-30.90412644805008
1293.890106,38.087253167217305
1297.564555,116.81649481227606
1301.233688,97.59242724089557
1304.897514,97.34362531874935
1308.556044,110.50080093920157
1312.209289,24.506286953754852
1315.857261,-43.85670813394785
1319.499969,18.573916752359928
1323.137425,82.82349250238626
1326.769641,133.34125018974373
1330.396626,172.11266830802674
1334.018391,99.41304932761906
1337.634948,28.277788060655233
1341.246307,12.739487838858086
1344.85248,-24.854599049885667
1348.453477,0.8588621217107679
1352.049309,82.63467445119498
1355.639987,124.65757104974634
1359.225522,154.9939765576285
1362.805925,227.44026468241023
1366.381207,346.8084267116402
1369.951379,440.4558758551472
1373.516452,545.3767147504828
1377.076436,757.9235991682702
1380.631343,993.1353830402043
1384.181184,1188.8174082387877
1387.725969,1276.570929021094
1391.26571,1112.1645021210863
1394.800417,764.6352559070341
1398.330102,430.93400684121235
1401.854776,232.3135458928161
1405.374448,159.88802386787802
1408.889132,43.70637732257262
1412.398837,-71.99740794284281
1415.903574,131.95017174288543
1419.403355,576.3068179155823
1422.89819,905.9329749006782
1426.388091,1153.7782815166104
1429.873069,1346.333077928786
1433.353134,1237.7998077716015
1436.828298,907.0384334034835
1440.298571,613.6408022139655
1443.763965,328.394298053694
1447.224491,83.83071928729466
1450.68016,17.74508556354091
1454.130983,0.5158044653970775
1457.576971,-34.9944769057489
1461.018135,38.53103623890969
1464.454486,107.42072767093147
1467.886036,26.718588212639407
1471.312794,-44.41094526400521
1474.734774,33.673551770741355
1478.151985,151.25846146038992
1481.564439,170.73867729144425
1484.972146,97.80299142538249
1488.375119,45.33100800634365
1491.773368,113.7251658428371
1495.166904,183.44607533200767
1498.555739,118.28309370962201
1501.939883,19.187215050991124
1505.319349,-71.45553042339537
1508.694146,-108.88447822941745
1512.064286,-10.482495449510314
1515.429781,51.516562996412404
1518.790642,34.85736936753562
1522.146879,36.27366430669537
1525.498505,-20.122417579674238
1528.845529,0.24489463040112724
1532.187965,163.71803738322808
1535.525822,243.2909060757483
1538.859112,274.9482117807412
1542.187846,333.1956422623674
1545.512036,439.65131856291424
1548.831693,667.8938216985877
1552.146829,751.9492427108205
1555.457453,662.2676884908132
1558.763579,823.6992405512714
1562.065216,1233.0709258029194
1565.362377,1658.8597712698245
1568.655073,2072.2880868398647
1571.943315,2410.592743715359
1575.227114,2735.7432691004683
1578.506482,3195.4565729594347
1581.781431,3682.436901342838
1585.051971,4052.144289965168
1588.318114,4201.589612414479
1591.579872,3832.457413807299
1594.837255,2852.0401832166426
1598.090275,1766.9824643535035
1601.338945,1053.9772838825215
1604.583274,581.3661519212512
1607.823275,242.96468307537504
1611.058959,243.1539662994458
1614.290338,271.13365425588904
1617.517422,22.16559375519074
1620.740224,-34.69760835297197
1623.958755,117.67782050523127
1627.173027,36.27584072911546
1630.38305,-52.06235885208744
1633.588838,15.35892628862777
1636.7904,34.660597300223486
1639.987749,45.72861190968911
1643.180896,18.548608945892056
1646.369853,-29.563467035022157
1649.554632,40.20592972425179
1652.735244,15.877921545527471
1655.9117,-103.41581257249358
1659.084013,-1.5366648718899114
1662.252193,121.02722921999668
1665.416254,1.4885696876625047
1668.576205,-40.67122058794543
1671.732059,119.32000868536278
1674.883828,141.95201959212375
1678.031523,27.23381774105488
1681.175157,3.770034003938626
1684.314739,-2.6528539886917564
1687.450284,-31.685532985014117
1690.581801,-0.6461487301966642
1693.709304,28.597656070343525
1696.832803,15.494866768268547
1699.952311,-17.370048198081097
1703.067839,-2.7904968335661997
1706.179399,122.45204349498863
1709.287003,159.92089622276467
1712.390663,26.413936399766595
1715.49039,-17.673909860835856
1718.586197,45.338998286617226
1721.678095,32.255251628917044
1724.766096,-46.02581204383588
1727.850213,-57.423624230220604
1730.930456,48.30201026988034
1734.006838,67.36241712665218
1737.079372,-19.14543005316653
1740.148067,102.7237094028417
1743.212938,265.23528941476593
1746.273996,151.54851824625726
1749.331252,42.50593106480824
1752.384718,106.06251662059594
1755.434408,124.91288873598972
1758.480332,72.97710891698149
1761.522503,12.397782920147428
1764.560933,-74.54318925752227
1767.595634,-82.58376786724384
1770.626618,19.636501171747376
1773.653896,47.979942122690815
1776.677482,22.353025178946254
1779.697388,93.78616439857666
1782.713625,145.84167789608733
1785.726205,101.79636044260712
1788.735141,43.49886614310871
1791.740445,-22.17349782341732
1794.742129,-3.1451583862931223
1797.740206,116.62565680268224
1800.734687,140.54465280994
1803.725585,79.56440519258334
1806.712912,48.54700563693683
1809.69668,7.938611732441954
1812.676902,-29.643341628520314
1815.65359,-9.769183268414936
1818.626756,7.563540203056306
1821.596413,-26.084348239365422
1824.562573,0.7210521251053521
1827.525247,99.79517879813825
1830.48445,82.30744658549514
1833.440192,-20.05631482871307
1836.392487,-10.819105466787079
1839.341347,40.22732853390484
1842.286784,-19.64546261838601
1845.22881,-49.1364944152528
1848.167439,49.389307518722525
1851.102682,34.845764531027314
1854.034553,-65.88334976123396
1856.963063,41.09727250169316
1859.888226,161.3234606948713
1862.810053,49.12569453872379
1865.728557,-13.982892048811442
1868.643751,48.770672943050975
1871.555648,-37.725427342145515
1874.46426,-113.06774974824869
1877.369599,37.259712892868045
1880.271679,94.36009104615599
1883.170512,-11.528231805332942
1886.06611,6.43036191914859
1888.958487,45.81121531077467
1891.847655,0.042484391742233285
1894.733626,17.468582149069995
1897.616414,23.016226473722682
1900.496032,-49.350354287997796
1903.372491,-61.31791913965783
1906.245805,12.633472089457438
1909.115987,78.54764919979449
1911.983049,52.754055267392715
1914.847004,13.848497961302574
1917.707866,83.4321493490297
1920.565646,123.64731006985822
1923.420359,36.432014657690274
1926.272016,-32.195058871513
1929.120631,-9.954332480077866
1931.966216,16.569415652424045
1934.808786,-6.6259565880513644
1937.648351,-13.332684574871285
1940.484927,-15.78473774672465
1943.318525,-37.33139682416523
1946.149158,92.16123909664893
1948.97684,265.4092546998338
1951.801584,188.92281876389086
1954.623403,48.74511185640766
1957.44231,37.64040165357032
1960.258318,11.288736256474229
1963.071439,-34.131050217056575
1965.881688,-39.638318352644724
1968.689078,-23.11695871783691
1971.493621,41.79634743084084
