Raman shift cm-1,4ATP_100uM_rep3_acc4_processed_intensity
-93.47115107,430.8081210941881
-87.69374369,209.0428087967272
-81.9253076,4.994001148660303
-76.16582701,136.20554510166593
-70.41528615,282.92598385361396
-64.67366933,58.9697793074563
-58.94096086,-132.99688954160206
-53.21714512,-48.97947846646844
-47.50220652,65.48020343097866
-41.79612954,145.63970800080168
-36.09889866,208.6631509715993
-30.41049843,164.18598605566643
-24.73091343,67.67012617222815
-19.0601283,22.187189315652134
-13.39812769,-15.207578044765896
-7.744896327,-38.60811745976733
-2.100418946,11.661065337990962
3.535319659,50.123972942756126
9.162334658,15.034925341796125
14.78064118,-20.84788170706217
20.39025432,-15.648656327897044
25.99118913,67.08254121199599
31.58346061,204.87935697709807
37.16708375,207.01341574298215
42.74207347,45.33704265264473
48.30844468,-50.09187424121615
53.86621222,-52.89572593986445
59.41539093,-81.94541312656631
64.95599558,-17.137848185587707
70.48804091,116.48702896115982
76.01154164,48.83510442242112
81.52651243,-20.103936121032195
87.03296792,188.62959533722332
92.5309227,296.9639670863613
98.02039134,124.1666005015261
103.5013884,49.42856170422721
108.9739282,115.93441780197253
114.4380255,153.29365948992717
119.8936944,240.1447105486858
125.3409495,299.3603598332186
130.779805,146.78262538597596
136.2102753,-39.34498121214409
141.6323747,-17.711595616941054
147.0461174,68.84489493761362
152.4515176,10.860091116533965
157.8485895,-100.4037367700206
163.2373472,-90.34652482752392
168.6178049,53.070418179762896
173.9899766,175.18819792918111
179.3538764,138.45423506504005
184.7095182,58.92785566259295
190.0569161,70.62397402407953
195.396084,59.782569833656
200.7270358,-44.28169853167151
206.0497854,-110.78820479577166
211.3643466,-53.5346341790347
216.6707333,26.590538384990168
221.9689593,38.531826107812776
227.2590382,48.42675662030956
232.5409839,70.67620248622688
237.8148101,99.43404527443386
243.0805303,210.73102718767075
248.3381582,321.6740403795483
253.5877075,360.79350000262264
258.8291917,465.4521438629545
264.0626244,649.4167460576501
269.288019,777.5365115270264
274.5053891,796.2224099135426
279.7147481,761.6460545935388
284.9161094,786.122792655061
290.1094865,872.7402272041581
295.2948927,861.0190710511317
300.4723414,571.7734671578312
305.6418459,67.99560666266983
310.8034194,-187.49594975110892
315.9570752,45.47029273045318
321.1028267,373.61038454847653
326.2406869,568.9111963406556
331.370669,750.1948768812513
336.4927863,789.8429517450115
341.6070517,652.7948503195299
346.7134786,576.6608723106963
351.8120798,539.0685819091747
356.9028684,471.2240635890717
361.9858576,580.9778141056065
367.0610602,912.7336810247643
372.1284892,1318.4545715617749
377.1881577,2157.233229347382
382.2400784,4189.5668344710475
387.2842644,6955.808174916214
392.3207284,8376.62597818703
397.3494833,7346.260218061531
402.370542,5065.308540294462
407.3839172,3082.691854989385
412.3896217,1915.8438761358293
417.3876683,1337.2121853926033
422.3780697,935.7058713225633
427.3608386,595.0382507894446
432.3359876,407.7443907582214
437.3035295,345.3024475590523
442.2634769,265.77180686833617
447.2158423,132.63159994703523
452.1606383,34.01529845894239
457.0978776,-23.09541637679032
462.0275727,-41.906816047652214
466.9497361,19.77407324984331
471.8643802,161.9156357349489
476.7715176,413.1531093469228
481.6711608,727.6572914945674
486.5633221,920.8598538328908
491.448014,889.3991371497532
496.3252488,700.788033369282
501.195039,483.96045944215746
506.0573969,279.78805633302716
510.9123349,67.96280252406216
515.7598651,-23.807446130027785
520.6,116.13802058558007
525.4327518,241.10242236199667
530.2581327,177.1658062379754
535.076155,209.40252002919163
539.8868309,421.8834081109103
544.6901726,581.3833534779565
549.4861922,654.7777452035779
554.2749019,486.82712449515
559.0563139,42.21492375348375
563.8304402,-61.04934938287999
568.597293,254.62831060982612
573.3568844,248.9010169106871
578.1092263,-20.717201877495242
582.8543308,33.50936101497642
587.5922101,162.64279015873694
592.322876,38.769475754502004
597.0463405,21.885714782599365
601.7626157,139.95971571773916
606.4717135,10.290108313893839
611.1736458,-149.1363340463546
615.8684246,8.409013703741941
620.5560617,183.87393769034048
625.2365691,167.18362764873535
629.9099585,304.8497848771156
634.5762419,709.9143909492188
639.2354312,970.6260945172207
643.887538,815.7000213732174
648.5325743,486.40933313603136
653.1705518,327.9895700158005
657.8014823,266.4660917652138
662.4253775,108.60938159785707
667.0422493,2.3663724333130745
671.6521092,36.41182133799521
676.2549691,26.94497050948479
680.8508407,-33.495531384139724
685.4397355,-9.443464834431552
690.0216654,37.85218557273464
694.5966419,40.95363475244602
699.1646767,103.56662730573743
703.7257814,284.2914999200427
708.2799676,546.8799149562552
712.827247,834.2385575428082
717.367631,952.5661876313618
721.9011314,746.1460363969177
726.4277595,437.0314127895404
730.9475271,301.2598399390448
735.4604456,290.2874995047209
739.9665264,281.86832746269795
744.4657813,245.53280310049695
748.9582215,141.5224476011321
753.4438587,-9.698093562257604
757.9227042,-75.71055675184594
762.3947696,6.650855408245343
766.8600662,147.52916636506478
771.3186056,254.5701999758884
775.770399,306.73316278208694
780.215458,245.48785367140985
784.6537939,52.80055366798763
789.0854181,-31.728565400931323
793.510342,149.86303164344207
797.9285769,348.8495594434521
802.3401342,412.19081439672436
806.7450253,452.7029993533699
811.1432614,454.56803553221033
815.5348538,429.05471171315213
819.9198139,483.0463043924492
824.2981531,504.9703628664738
828.6698824,401.84046417591856
833.0350133,316.2181746852521
837.393557,326.60808176411973
841.7455248,343.77997858008825
846.0909278,270.76655466922284
850.4297774,157.51006943122854
854.7620848,111.85780950975482
859.0878611,47.1232030464613
863.4071176,-49.65216255342239
867.7198655,60.46629755489632
872.026116,295.41381185388826
876.3258802,324.5951608292531
880.6191693,236.34159785830923
884.9059946,216.79429108568803
889.186367,125.4674108607349
893.4602979,-48.905650579466595
897.7277982,-55.325957376922666
901.9888793,97.19680245986176
906.2435521,124.88745952666804
910.4918277,21.01632864092461
914.7337174,27.802764956458702
918.9692321,150.4454676926588
923.1983831,240.38017044945923
927.4211813,283.01482737918025
931.6376378,297.14620985052704
935.8477637,276.2294606006534
940.0515701,207.44253991877397
944.249068,61.49756331663088
948.4402684,-66.20178189687529
952.6251825,-41.70475700855434
956.8038212,89.37987248976809
960.9761955,180.22884858156885
965.1423166,144.00537241692882
969.3021953,54.004716982827546
973.4558427,22.766019362317834
977.6032699,13.544442649353314
981.7444877,-12.961130364821628
985.8795072,33.77442609011773
990.0083394,155.58137270276012
994.1309953,207.48691272275062
998.2474857,355.2896827519269
1002.357822,951.6428293346252
1006.462014,1635.0301512976682
1010.560075,1644.6266182530971
1014.652013,1011.1537428745764
1018.737841,353.2334003466089
1022.81757,-13.890413179518788
1026.891209,-92.6668561263815
1030.958771,1.6224827527357277
1035.020266,29.70688867078715
1039.075705,-20.74937529168264
1043.1251,124.29006046104041
1047.16846,367.0722775682444
1051.205797,409.0264714371829
1055.237121,498.3795383268053
1059.262444,1083.8515947100082
1063.281777,2438.6281013917624
1067.295131,4801.004720176576
1071.302515,8006.200455759859
1075.303942,11227.86535702583
1079.299422,12980.816844425759
1083.288966,11751.756276985454
1087.272585,7924.855079784467
1091.250289,3934.6772539289855
1095.222091,1545.494123268637
1099.187999,555.5531445519287
1103.148026,175.84714191593184
1107.102183,46.44652104338343
1111.050479,0.8226566973082754
1114.992927,13.511439396628134
1118.929536,265.5487284630108
1122.860318,776.2176160454844
1126.785283,1621.9193080130306
1130.704443,3301.0468480601794
1134.617808,6053.654237522183
1138.52539,9129.211842845709
1142.427198,10865.957167111159
1146.323244,10022.03087678032
1150.213538,7327.466252417039
1154.098093,4539.331390584586
1157.976917,2548.789746628
1161.850023,1432.4177650167662
1165.717421,1028.2831764635553
1169.579121,995.3510414514207
1173.435135,1068.1924762834176
1177.285474,1274.4479152991914
1181.130148,1690.8419773592154
1184.969169,2123.638623976027
1188.802547,2318.786910575905
1192.630292,2172.3552105329763
1196.452416,1634.7558549905166
1200.26893,906.5028869336576
1204.079844,383.0759765733218
1207.88517,130.6324761472592
1211.684917,4.292668723845253
1215.479098,33.83352887403382
1219.267722,97.47680098444044
1223.050801,-31.959611063849977
1226.828346,-139.27438636508282
1230.600366,-18.846813437589223
1234.366874,68.27494653793346
1238.12788,18.071956214959037
1241.883395,45.92720760199073
1245.633429,109.08725515267336
1249.377994,33.65633560510674
1253.1171,-46.91405369831324
1256.850759,-14.325871796718165
1260.578981,60.415416373739745
1264.301776,136.19307825001712
1268.019157,72.48408713103137
1271.731133,-110.57762898380582
1275.437715,-53.98231318856838
1279.138915,193.97761592243228
1282.834743,214.1481583543162
1286.52521,47.97211727228944
1290.210328,12.8107963957618
1293.890106,149.8821597937115
1297.564555,321.6008358397373
1301.233688,487.72428225561544
1304.897514,699.7745061878888
1308.556044,819.9641353978743
1312.209289,620.566165681372
1315.857261,296.68032069941444
1319.499969,230.65221527676604
1323.137425,346.9449354932304
1326.769641,376.39305195436646
1330.396626,283.4761466314021
1334.018391,119.18280335996668
1337.634948,-3.4197962942989752
1341.246307,-0.8948015046252973
1344.85248,11.032335623975017
1348.453477,-3.58150359284366
1352.049309,104.66343931169746
1355.639987,370.80825139829045
1359.225522,651.6919153913854
1362.805925,819.1229584651585
1366.381207,863.1006784425385
1369.951379,928.1124346750064
1373.516452,1195.9230808980124
1377.076436,1639.2014674228124
1380.631343,2258.4814352347007
1384.181184,3250.890576966106
1387.725969,4381.901912302817
1391.26571,4897.719795324511
1394.800417,4374.023411889016
1398.330102,3084.0916163988204
1401.854776,1669.7189984708361
1405.374448,636.8696514955054
1408.889132,48.74050643415788
1412.398837,-110.1501930294788
1415.903574,336.0990256842275
1419.403355,1311.6534487289914
1422.89819,2558.2265677872297
1426.388091,4056.438569151481
1429.873069,5544.418022584971
1433.353134,6327.405409732249
1436.828298,6071.269354385859
1440.298571,5029.089916227618
1443.763965,3632.7271424525975
1447.224491,2336.170756875874
1450.68016,1379.1636830121538
1454.130983,666.74382718022
1457.576971,189.9484711215374
1461.018135,39.561000581814596
1464.454486,41.362294016675435
1467.886036,62.14547964721726
1471.312794,189.70335549514652
1474.734774,328.959124495881
1478.151985,299.6315098501062
1481.564439,132.88558327707716
1484.972146,-8.463819613569058
1488.375119,110.93052013525005
1491.773368,460.80619339132545
1495.166904,545.4886755738605
1498.555739,231.8457811626327
1501.939883,-26.231241141316396
1505.319349,-72.97986061223995
1508.694146,-11.637592383887188
1512.064286,103.72974730404826
1515.429781,92.24140727246257
1518.790642,12.937244610600644
1522.146879,31.081220620146723
1525.498505,0.8691355871019084
1528.845529,-23.39171808120318
1532.187965,136.27566405034833
1535.525822,340.7283937580992
1538.859112,481.48606068256413
1542.187846,552.2511547231109
1545.512036,609.326013660436
1548.831693,810.4057432863689
1552.146829,987.7785967830848
1555.457453,931.9402030270658
1558.763579,981.7300567366274
1562.065216,1386.837482189362
1565.362377,1911.604974137828
1568.655073,2381.809010742751
1571.943315,2748.541008513922
1575.227114,3028.420027020825
1578.506482,3288.877579155863
1581.781431,3324.8420656497406
1585.051971,3087.864751058423
1588.318114,3014.645386398517
1591.579872,3193.94821657194
1594.837255,3203.813322779701
1598.090275,2848.719774917202
1601.338945,2252.089212949381
1604.583274,1558.878920138912
1607.823275,875.9374678067566
1611.058959,304.2850918111752
1614.290338,-21.31015159951675
1617.517422,-19.154460650391734
1620.740224,133.7431692412804
1623.958755,151.73763532579
1627.173027,44.13670683466077
1630.38305,-11.968757695158615
1633.588838,-1.77742058055685
1636.7904,51.779873470142746
1639.987749,89.55672875477367
1643.180896,3.9952129753445007
1646.369853,-43.596283814359836
1649.554632,49.75094431797723
1652.735244,31.795861804620912
1655.9117,-45.9652885911902
1659.084013,33.623233758087586
1662.252193,32.55630057951523
1665.416254,-90.1342060647051
1668.576205,-7.85618921594901
1671.732059,137.06859020149008
1674.883828,63.90475056799057
1678.031523,-47.392119033169294
1681.175157,-55.56633202487887
1684.314739,-22.459028111605107
1687.450284,44.809335894860666
1690.581801,58.56033731927688
1693.709304,-17.917951742974864
1696.832803,-48.09840915915898
1699.952311,-23.349999071984
1703.067839,16.54449809179117
1706.179399,113.54679147983502
1709.287003,175.92097194275414
1712.390663,106.56766539366163
1715.49039,18.694666582877193
1718.586197,30.454953833083493
1721.678095,66.38421087869963
1724.766096,7.760382629044106
1727.850213,-63.293963276643424
1730.930456,-29.79271049983661
1734.006838,-17.084989130691447
1737.079372,-63.063850277540844
1740.148067,53.674687478893226
1743.212938,254.2455959687912
1746.273996,224.34835315905377
1749.331252,64.8281604044101
1752.384718,27.300463023496604
1755.434408,92.89035970759244
1758.480332,188.8362969989145
1761.522503,172.64050582964552
1764.560933,-39.835368934166304
1767.595634,-128.55155628410208
1770.626618,48.654462921673115
1773.653896,117.6799223567658
1776.677482,12.336415689032421
1779.697388,19.534742428133796
1782.713625,133.03600906592698
1785.726205,209.0636870281334
1788.735141,170.696596712461
1791.740445,36.40151583466175
1794.742129,29.466986977776507
1797.740206,230.51868146799524
1800.734687,388.6755009778102
1803.725585,343.9312497191191
1806.712912,221.95528221796476
1809.69668,129.5938001165864
1812.676902,24.752294050043886
1815.65359,-57.29557879424638
1818.626756,-41.98605923809662
1821.596413,23.26818163518508
1824.562573,89.4413114952828
1827.525247,101.35435227805168
1830.48445,17.443889904099876
1833.440192,-34.19175821260021
1836.392487,8.169029404366125
1839.341347,14.037018793959124
1842.286784,-13.800550877852176
1845.22881,47.347287623286505
1848.167439,121.07961243162404
1851.102682,31.819314661957996
1854.034553,-92.83729502298553
1856.963063,23.016092881607413
1859.888226,218.0787560181028
1862.810053,189.3897205115401
1865.728557,94.32631110005218
1868.643751,52.059330376046326
1871.555648,-64.9287522898926
1874.46426,-90.68981463248508
1877.369599,40.70301201537139
1880.271679,50.480754427065776
1883.170512,6.451419939253263
1886.06611,67.06393598403825
1888.958487,41.30788088813828
1891.847655,-40.34854851715676
1894.733626,-1.2811602552893548
1897.616414,8.916944635655994
1900.496032,-58.51844419293101
1903.372491,-13.534352564801514
1906.245805,126.23925041589068
1909.115987,190.29957300115683
1911.983049,132.7376901034806
1914.847004,52.593758417162206
1917.707866,26.45623402243037
1920.565646,5.8070879729597085
1923.420359,-35.17413887637207
1926.272016,-71.4231618035753
1929.120631,-81.55418829088869
1931.966216,-33.91394712242448
1934.808786,26.744314404017608
1937.648351,39.709051312301845
1940.484927,29.97188300075031
1943.318525,59.68078331448524
1946.149158,201.90759370955925
1948.97684,353.67728641147005
1951.801584,269.96307277871927
1954.623403,61.845241842203265
1957.44231,14.335127680790539
1960.258318,3.1474125212012503
1963.071439,-71.47739186953167
1965.881688,10.071448376079356
1968.689078,123.66802611174111
1971.493621,-23.165200229917176
