#Wave,#Intensity1,#Intensity2,#Intensity4,#Intensity17
352.8078093,9011,9013,7948,5404
353.9410787,9049,9186,8065,5327
355.0741405,8967,9089,7907,5328
356.2069948,9012,9002,8056,5437
357.3396415,9044,9008,7894,5382
358.4720807,9088,9130,7993,5474
359.6043126,9136,9112,7956,5450
360.736337,9113,9038,8090,5379
361.8681541,9126,9099,8154,5404
362.999764,9226,9182,8027,5542
364.1311666,9107,9161,8189,5386
365.2623621,9223,9211,8164,5363
366.3933504,9191,9118,8210,5605
367.5241317,9119,9260,8061,5531
368.654706,9226,9148,8147,5405
369.7850733,9415,9195,8186,5529
370.9152337,9259,9210,8227,5609
372.0451872,9190,9321,8244,5485
373.1749339,9324,9254,8102,5527
374.3044739,9270,9273,8112,5525
375.4338072,9222,9381,8176,5478
376.5629338,9271,9315,8261,5578
377.6918537,9399,9469,8297,5548
378.8205672,9331,9387,8319,5529
379.9490741,9390,9354,8389,5535
381.0773746,9403,9439,8251,5700
382.2054687,9434,9428,8381,5698
383.3333564,9496,9453,8422,5743
384.4610378,9460,9358,8339,5615
385.588513,9363,9554,8254,5630
386.7157819,9518,9365,8454,5676
387.8428447,9554,9434,8269,5687
388.9697015,9454,9447,8389,5764
390.0963521,9513,9552,8352,5596
391.2227968,9488,9405,8264,5632
392.3490355,9482,9465,8417,5641
393.4750684,9419,9438,8382,5726
394.6008954,9444,9529,8369,5605
395.7265166,9557,9458,8513,5694
396.851932,9545,9367,8207,5624
397.9771418,9487,9324,8354,5711
399.1021459,9456,9423,8344,5679
400.2269444,9513,9423,8370,5699
401.3515374,9551,9522,8265,5685
402.4759249,9513,9427,8308,5689
403.6001069,9457,9387,8359,5569
404.7240836,9515,9375,8313,5666
405.8478549,9547,9462,8374,5597
406.9714209,9569,9438,8288,5682
408.0947817,9579,9451,8289,5656
409.2179373,9436,9452,8423,5580
410.3408878,9398,9515,8390,5692
411.4636332,9451,9501,8366,5606
412.5861735,9521,9504,8280,5720
413.7085089,9499,9441,8318,5650
414.8306393,9431,9481,8331,5697
415.9525649,9634,9343,8414,5655
417.0742856,9473,9441,8444,5582
418.1958015,9521,9560,8414,5789
419.3171127,9587,9537,8479,5657
420.4382192,9583,9598,8293,5648
421.559121,9655,9607,8384,5719
422.6798183,9669,9603,8410,5603
423.8003111,9667,9662,8380,5786
424.9205993,9481,9532,8416,5711
426.0406832,9696,9624,8427,5746
427.1605626,9556,9629,8484,5723
428.2802377,9595,9574,8488,5714
429.3997085,9716,9699,8484,5723
430.5189751,9811,9713,8639,5796
431.6380376,9730,9652,8449,5726
432.7568959,9736,9740,8560,5701
433.8755501,9745,9721,8554,5754
434.9940002,9762,9688,8497,5849
436.1122464,9636,9692,8661,5828
437.2302887,9653,9629,8634,5771
438.348127,9810,9704,8568,5815
439.4657616,9818,9655,8665,5775
440.5831923,10000,9702,8639,5707
441.7004194,9834,9897,8527,5764
442.8174427,9869,9877,8649,5780
443.9342624,9829,9720,8671,5809
445.0508786,10033,9785,8687,5819
446.1672912,9965,9815,8634,5846
447.2835003,9988,9734,8756,5853
448.399506,9882,9773,8594,5769
449.5153083,9995,9773,8670,5846
450.6309072,9941,9772,8686,5828
451.7463029,10034,9818,8618,5870
452.8614954,9997,9946,8606,5976
453.9764846,10029,9787,8799,5925
455.0912707,9819,9723,8517,5869
456.2058538,9819.500228,9787,8729,5839
457.3202338,9820.000364,9752,8718,5829
458.4344108,9820.50041,9943,8762,5875
459.5483849,9821.000364,9823,8741,5876
460.6621561,9821.500228,9879,8765,5784
461.7757245,9822,9797,8701,5952
462.8890901,10013,10034,8666,5929
464.0022529,9906,9805,8800,5852
465.1152131,9989,9931,8730,5869
466.2279706,9972,9961,8759,5930
467.3405255,9961,9945,8725,5867
468.4528779,9956,9788,8711,5903
469.5650278,9971,9837,8728,5960
470.6769753,9998,9899,8803,5868
471.7887204,10042,9967,8852,5954
472.9002631,10000,9749,8844,5920
474.0116036,9962,9863,8849,5937
475.1227418,9941,9930,8766,5975
476.2336778,10116,9953,8832,5996
477.3444117,10075,9976,8784,5880
478.4549434,9983,9970,8748,5903
479.5652732,10066,9931,8723,6005
480.6754009,10141,9945,8957,6032
481.7853267,10128,10038,8937,6057
482.8950506,10098,9966,8843,5969
484.0045727,10239,10004,8996,5964
485.1138929,10190,10037,8806,5930
486.2230114,10120,10119,8815.001637,6108
487.3319282,10205,10190,8824.001637,6115
488.4406434,10229,10210,8833,6228
489.549157,10077,10061,8881,5989
490.657469,10227,10035,8901,6120
491.7655795,10259,10181,8858,6008
492.8734885,10365,10161,8837,6052
493.9811962,10280,10151,8978,6141
495.0887025,10283,10141,8933,6030
496.1960075,10200,10157,8923,6051
497.3031112,10247,10108,8965,6118
498.4100137,10259,10142,8973,6175
499.5167151,10285,10314,8999,6090
500.6232154,10332,10296,9070,6036
501.7295146,10276,10289,9039,6123
502.8356128,10217,10139,8955,6032
503.94151,10368,10264,9042,6129
505.0472063,10398,10323,9069,6151
506.1527018,10308,10217,9076,6007
507.2579964,10459,10268,8969,6117
508.3630903,10212,10263,8967,6081
509.4679835,10407,10187,9103,6119
510.572676,10423,10315,9149,6258
511.6771678,10441,10386,9137,6125
512.7814591,10456,10362,9057,6164
513.8855499,10453,10191,9142,6124
514.9894402,10538,10370,9140,6183
516.0931301,10413,10420,9113,6205
517.1966197,10427,10269,9169,6156
518.2999088,10423,10184,9035,6105
519.4029978,10454,10275,9059,6199
520.5058864,10462,10296,8993,6118
521.6085749,10483,10338,9140,6250
522.7110633,10539,10389,9180,6190
523.8133516,10441,10207,9159,6123
524.9154399,10454,10271,9127,6114
526.0173282,10483,10220,9090,6229
527.1190165,10394,10217,9117,6226
528.2205049,10407,10335,9170,6174
529.3217936,10398,10301,9094,6183
530.4228824,10447,10260,9131,6113
531.5237715,10427,10280,9107,6153
532.6244609,10317,10189,9196,6203
533.7249506,10485,10280,9047,6208
534.8252408,10418,10253,9096,6292
535.9253314,10535,10314,9159,6251
537.0252225,10566,10383,9106,6317
538.1249141,10497,10336,9191,6199
539.2244064,10461,10452,9238,6199
540.3236993,10512,10388,9167,6316
541.4227929,10519,10305,9221,6223
542.5216873,10450,10363,9134,6243
543.6203824,10604,10312,9218,6218
544.7188784,10478,10407,9266,6243
545.8171752,10498,10374,9187,6287
546.915273,10694,10375,9203,6215
548.0131718,10650,10485,9234,6335
549.1108717,10464,10361,9185,6225
550.2083726,10608,10465,9187,6273
551.3056746,10580,10512,9314,6140
552.4027778,10644,10389,9179,6312
553.4996823,10560,10483,9324,6258
554.596388,10564,10430,9211,6192
555.6928951,10657,10370,9237,6221
556.7892035,10616,10621,9228,6307
557.8853133,10733,10500,9278,6248
558.9812246,10700,10535,9212,6258
560.0769375,10531,10474,9344,6256
561.1724519,10639,10519,9266,6292
562.2677679,10735,10491,9244,6334
563.3628856,10676,10762,9437,6399
564.4578049,10841,10472,9400,6388
565.5525261,10766,10631,9560,6335
566.647049,10921,10631,9268,6372
567.7413738,10764,10584,9431,6433
568.8355005,10863,10503,9374,6364
569.9294292,10825,10752,9357,6461
571.0231598,10774,10741,9587,6301
572.1166925,10865,10714,9375,6303
573.2100273,10983,10784,9457,6331
574.3031643,10833,10806,9541,6313
575.3961034,10914,10890,9484,6383
576.4888447,10924,10642,9437,6355
577.5813884,10914,10729,9569,6492
578.6737344,10801,10667,9320,6423
579.7658827,10954,10647,9577,6430
580.8578335,10759,10728,9555,6402
581.9495868,10907,10876,9469,6521
583.0411426,11075,10897,9371,6462
584.132501,10933,10629,9602,6439
585.223662,10942,10713,9322,6399
586.3146257,10980,10793,9567,6377
587.405392,10955,10756,9499,6451
588.4959612,10927,10665,9585,6486
589.5863331,10815,10631,9546,6417
590.676508,11033,10820,9501,6600
591.7664857,11031,10844,9583,6301
592.8562664,11016,10930,9581,6467
593.9458501,11001,10854,9562,6472
595.0352368,11055,10757,9579,6453
596.1244266,10935,10787,9612,6425
597.2134196,11165,10921,9557,6510
598.3022158,11097,10912,9765,6457
599.3908152,11065,10905,9557,6516
600.4792179,10955,10886,9627,6587
601.567424,10943,10664,9620,6487
602.6554334,10868,10883,9536,6432
603.7432463,11091,10895,9663,6536
604.8308626,11086,10801,9615,6567
605.9182825,11026,10932,9570,6568
607.005506,10940,10872,9544,6568.750203
608.092533,10822,10955,9570,6569.500271
609.1793638,11040,10882,9712,6570.250203
610.2659982,11082,10878,9628,6571
611.3524364,11042,10812,9513,6468
612.4386785,10919,10940,9655,6628
613.5247244,11014,10943,9553,6469
614.6105742,11005,10751,9613,6582
615.6962279,11084,10849,9656,6628
616.7816857,11131,10899,9615,6470
617.8669475,11021,10974,9624,6643
618.9520134,11012,10693,9639,6598
620.0368834,10968,10941,9628,6564
621.1215577,11091,11010,9661,6551
622.2060361,11231,10924,9626,6671
623.2903189,11226,11038,9782,6541
624.374406,11007,10929,9619,6619
625.4582975,11013,10926,9716,6625
626.5419934,11154,10988,9781,6541
627.6254937,11234,11064,9663,6548
628.7087986,11098,10976,9686,6606
629.7919081,11187,10977,9757,6642
630.8748222,11143,10998,9691,6628
631.9575409,11033,10982,9848,6600
633.0400644,11212,11065,9684,6592
634.1223926,11240,11092,9773,6661
635.2045256,11232,11043,9800,6798
636.2864635,11267,11159,9871,6683
637.3682063,11243,11146,9985,6735
638.449754,11251,11317,9943,6737
639.5311067,11362,11170,9833,6675
640.6122644,11355,11057,9890,6658
641.6932273,11384,11093,9828,6689
642.7739952,11396,11118,9900,6712
643.8545684,11277,11070,9924,6752
644.9349467,11383,11221,9875,6680
646.0151304,11269,11244,9891,6796
647.0951194,11454,11281,9985,6698
648.1749137,11522,11276,9864,6642
649.2545135,11269,11138,9943,6934
650.3339187,11399,11307,9933,6719
651.4131294,11349,11245,9917,6778
652.4921457,11452,11279,10041,6704
653.5709676,11389,11205,9844,6727
654.6495951,11257,11171,9881,6764
655.7280284,11408,11206,10001,6778
656.8062674,11579,11234,9929,6787
657.8843121,11442,11355,10008,6758
658.9621627,11473,11344,10000,6912
660.0398192,11508,11298,9929,6846
661.1172816,11447,11320,9894,6803
662.19455,11464,11282,10188,6724
663.2716245,11339,11351,10049,6872
664.348505,11516,11245,9923,6896
665.4251916,11492,11277,9948,6743
666.5016843,11437,11196,9925,6864
667.5779833,11484,11334,9869,6724
668.6540886,11461,11238,10031,6828
669.7300001,11651,11246,10097,6863
670.805718,11592,11232,10049,6774
671.8812423,11465,11351,10036,6752
672.956573,11355,11326,9936,6741
674.0317103,11503,11371,9990,6855
675.106654,11483,11209,9987,6799
676.1814044,11640,11409,9955,6841
677.2559614,11429,11197,9932,6823
678.330325,11487,11275,10050,6735
679.4044954,11316,11423,10018,6844
680.4784725,11509,11440,9894,6882
681.5522565,11398,11312,9994,6851
682.6258473,11379,11418,9942,6741
683.6992451,11422,11147,9944,6747
684.7724497,11405,11224,9987,6813
685.8454614,11494,11218,10184,6799
686.9182802,11460,11326,9959,6819
687.990906,11413,11236,9941,6698
689.063339,11447,11257,10035,6723
690.1355791,11592,11282,9932,6853
691.2076265,11384,11156,9933,6761
692.2794812,11536,11196,9964,6832
693.3511432,11695,11345,9944,6816
694.4226125,11580,11271,10054,6912
695.4938893,11575,11241,10033,6702
696.5649736,11570,11215,10094,6837
697.6358653,11548,11344,9911,6716
698.7065646,11715,11416,10151,6901
699.7770715,11509,11308,10059,6845
700.8473861,11789,11280,10133,6803
701.9175084,11527,11422,10086,6940
702.9874384,11523,11523,10216,6779
704.0571762,11729,11407,10017,6898
705.1267218,11655,11330,10084,6875
706.1960753,11759,11423,10043,6771
707.2652367,11578,11284,10052,6874
708.3342061,11648,11463,10075,6882
709.4029835,11680,11431,10145,6942
710.471569,11740,11595,10204,7047
711.5399626,11825,11425,10147,6890
712.6081643,11749,11552,10151,7077
713.6761743,11914,11418,10098,6965
714.7439925,11643,11519,10233,7036
715.811619,11618,11454,10177,7042
716.8790538,11774,11536,10348,6915
717.946297,11946,11570,10224,7045
719.0133487,11865,11638,10223,7011
720.0802088,11766,11652,10298,7017
721.1468774,11764,11609,10204,6938
722.2133546,12073,11639,10287,7036
723.2796405,12024,11783,10353,7090
724.345735,11873,11647,10329,6983
725.4116381,11959,11593,10338,6999
726.4773501,12059,11671,10263,7083
727.5428708,11843,11779,10354,7046
728.6082004,11928,11748,10229,7163
729.6733389,11920,11828,10296,7060
730.7382863,11798,11754,10453,7137
731.8030427,11998,11723,10227,6964
732.8676081,11819,11728,10480,7113
733.9319826,12081,11711,10378,7046
734.9961663,12000,11726,10437,7023
736.060159,12115,11655,10510,7072
737.123961,11894,11639,10436,7080
738.1875723,11898,11698,10543,7155
739.2509928,11955,11881,10446,7151
740.3142227,11982,11915,10463,7165
741.377262,11974,11758,10479,7134
742.4401107,12057,11677,10389,7116
743.5027689,12071,11734,10402,7115
744.5652366,12088,11708,10585,7151
745.6275139,12104,11671,10528,7188
746.6896009,12116,11790,10461,7120
747.7514974,11998,11692,10398,7143
748.8132038,12005,11672,10366,7170
749.8747198,12124,11724,10449,7085
750.9360457,12001,11722,10460,7090
751.9971814,12180,11929,10532,7140
753.058127,12010,11716,10404,7136
754.1188825,11954,11831,10457,7202
755.179448,12016,11743,10295,7228
756.2398236,11993,11703,10485,7179
757.3000092,12002,11755,10404,7151
758.3600049,12047,11744,10491,7143
759.4198108,12068,11816,10462,7136
760.479427,11947,11835,10418,7131
761.5388533,12207,11866,10437,7101
762.59809,12005,11757,10360,7112
763.657137,12168,11805,10513,7121
764.7159944,12076,11719,10353,7245
765.7746623,11891,11699,10473,7115
766.8331406,11811,11707,10508,7131
767.8914295,11932,11836,10513,7080
768.9495289,12070,11772,10577,7237
770.0074389,12030,11906,10498,7104
771.0651596,11762,11737,10406,7087
772.122691,12059,11651,10320,7161
773.1800332,11927,11702,10404,7261
774.2371862,12039,11899,10487,7083
775.29415,12106,11930,10538,7080
776.3509247,12156,11966,10492,7104
777.4075103,12011,11830,10378,7184
778.4639069,12082,11826,10537,7260
779.5201145,12010,11714,10539,7229
780.5761332,12176,11893,10515,7280
781.6319631,12162,11752,10515,7090
782.687604,11988,11806,10450,7218
783.7430562,11954,11702,10537,7227
784.7983196,12179,11768,10616,7208
785.8533943,12108,11995,10516,7180
786.9082804,12263,11905,10549,7194
787.9629778,12181,11840,10529,7247
789.0174867,12065,11878,10571,7178
790.071807,12122,11936,10569,7257
791.1259389,12279,11914,10767,7311
792.1798823,12335,12055,10635,7285
793.2336373,12235,11982,10581,7177
794.287204,12094,11930,10563,7242
795.3405824,12145,11918,10671,7207
796.3937725,12265,11975,10710,7261
797.4467744,12227,12007,10698,7370
798.4995882,12186,11952,10580,7338
799.5522138,12272,12001,10806,7359
800.6046513,12332,12132,10715,7223
801.6569008,12387,11997,10518,7296
802.7089623,12275,12014,10676,7353
803.7608359,12324,11998,10906,7316
804.8125216,12302,12119,10800,7383
805.8640194,12392,12160,10868,7348
806.9153294,12247,12090,10752,7395
807.9664516,12271,12000,10833,7370
809.0173861,12403,12078,10861,7451
810.068133,12662,12363,10933,7392
811.1186922,12572,12082,10767,7428
812.1690638,12402,12129,10803,7384
813.2192479,12391,12216,10887,7319
814.2692445,12440,12240,10886,7532
815.3190536,12457,12157,10832,7324
816.3686753,12498,12118,10894,7263
817.4181097,12415,12054,10782,7457
818.4673567,12276,12246,10919,7324
819.5164165,12549,12222,10856,7447
820.565289,12548,12259,10857,7403
821.6139743,12560,12228,10890,7375
822.6624725,12629,12150,10806,7369
823.7107836,12496,12296,10809,7361
824.7589077,12494,12142,10852,7389
825.8068447,12532,12337,10901,7488
826.8545948,12548,12232,10858,7416
827.902158,12545,12288,10923,7385
828.9495342,12543,12171,10876,7520
829.9967237,12569,12101,10883,7483
831.0437263,12593,12079,10922,7376
832.0905423,12520,12187,10931,7461
833.1371715,12445,12044,10882,7570
834.1836141,12448,12165,10938,7615
835.22987,12528,12357,10914,7447
836.2759394,12457,12193,10783,7520
837.3218223,12613,12206,10758,7492
838.3675187,12372,12217,11010,7515
839.4130286,12557,12000,10820,7357
840.4583522,12553,12278,10916,7501
841.5034894,12469,12130,10808,7460
842.5484404,12377,12110,10832,7495
843.593205,12497,12022,10935,7454
844.6377835,12455,12239,10948,7411
845.6821758,12472,12114,10950,7425
846.726382,12365,12153,10812,7445
847.770402,12459,12217,10857,7354
848.8142361,12472,12107,10854,7529
849.8578842,12637,12189,10911,7456
850.9013463,12481,12147,10875,7403
851.9446225,12563,12192,10961,7500
852.9877128,12436,12127,10941,7372
854.0306174,12401,12090,10836,7428
855.0733362,12532,12223,10748,7376
856.1158692,12518,12205,10898,7514
857.1582166,12515,12127,10987,7420
858.2003783,12586,12225,10780,7403
859.2423544,12549,12087,10983,7395
860.284145,12369,12391,10959,7393
861.32575,12584,12215,10819,7578
862.3671696,12535,12335,10909,7482
863.4084038,12472,12198,10939,7472
864.4494526,12447,12278,10978,7616
865.4903161,12437,12143,10914,7420
866.5309943,12484,12126,10835,7551
867.5714872,12570,12237,10936,7603
868.611795,12616,12193,11009,7500
869.6519176,12626,12291,11161,7508
870.691855,12636,12331,11026,7521
871.7316074,12629,12208,10879,7386
872.7711748,12529,12152,10897,7553
873.8105572,12709,12274,11019,7571
874.8497547,12550,12431,10937,7562
875.8887672,12740,12457,11043,7573
876.9275949,12478,12281,11065,7437
877.9662379,12705,12287,10964,7573
879.004696,12643,12343,11094,7649
880.0429694,12770,12235,10983,7599
881.0810582,12638,12381,11072,7529
882.1189623,12846,12338,11233,7585
883.1566818,12757,12297,11118,7596
884.1942168,12813,12387,11289,7547
885.2315673,12815,12387,11166,7669
886.2687333,12805,12391,11229,7679
887.305715,12829,12365,11223,7686
888.3425122,12901,12397,11232,7678
889.3791251,12708,12483,11259,7680
890.4155537,12770,12669,11218,7663
891.4517981,12887,12637,11196,7751
892.4878583,12874,12376,11152,7713
893.5237344,13023,12561,11039,7670
894.5594263,12600,12380,11130,7676
895.5949342,12838,12457,11226,7785
896.630258,12953,12520,11330,7680
897.6653979,12994,12616,11420,7813
898.7003538,13004,12487,11339,7789
899.7351259,12822,12500,11231,7643
900.7697141,12847,12532,11184,7652
901.8041185,12949,12665,11184,7634
902.8383391,12932,12493,11245,7744
903.872376,12984,12688,11390,7792
904.9062292,12869,12484,11384,7699
905.9398988,12832,12581,11315,7785
906.9733848,12796,12543,11163,7728
908.0066873,12917,12519,11400,7819
909.0398063,13061,12605,11324,7787
910.0727418,13060,12620,11228,7821
911.1054938,12957,12597,11103,7704
912.1380626,12752,12579,11286,7791
913.1704479,12869,12574,11216,7885
914.20265,12836,12496,11207,7919
915.2346689,12885,12577,11328,7896
916.2665045,12958,12584,11295,7763
917.298157,12952,12542,11208,7749
918.3296264,12841,12447,11247,7755
919.3609127,12849,12548,11202,7751
920.392016,13047,12678,11179,7759
921.4229363,12978,12491,11458,7809
922.4536737,12923,12643,11311,7789
923.4842282,12911,12389,11301,7635
924.5145998,12925,12517,11244,7675
925.5447886,12980,12543,11289,7759
926.5747946,12966,12542,11261,7773
927.6046179,12974,12673,11255,7809
928.6342585,12869,12586,11177,7782
929.6637165,12771,12405,11168,7618
930.6929919,12834,12441,11261,7744
931.7220847,12914,12363,11227,7804
932.750995,12948,12670,11215,7830
933.7797229,12954,12561,11230,7704
934.8082683,12842,12573,11210,7703
935.8366314,12768,12550,11297,7759
936.8648121,12711,12602,11259,7797
937.8928105,12805,12550,11131,7728
938.9206266,12863,12766,11296,7789
939.9482606,12825,12468,11123,7599
940.9757123,12887,12386,11180,7759
942.002982,12893,12627,11092,7693
943.0300696,12869,12464,11093,7677
944.0569751,12923,12605,11228,7836
945.0836986,12992,12521,11281,7738
946.1102402,12800,12494,11287,7743
947.1365999,13012,12581,11338,7807
948.1627777,12955,12460,11235,7781
949.1887736,12846,12544,11345,7843
950.2145878,12988,12589,11341,7874
951.2402203,13119,12667,11171,7800
952.265671,12965,12510,11158,7820
953.2909401,12823,12604,11273,7714
954.3160276,12987,12597,11332,7908
955.3409335,12911,12521,11275,7863
956.3656579,12887,12588,11274,7884
957.3902008,12935,12586,11351,7722
958.4145623,12842,12735,11345,7888
959.4387423,12877,12573,11366,7738
960.462741,12884,12674,11262,7785
961.4865584,13100,12614,11398,7873
962.5101945,13158,12590,11407,7843
963.5336494,12996,12771,11263,7835
964.5569231,13223,12781,11335,7793
965.5800157,13114,12583,11526,7757
966.6029272,13179,12742,11352,8022
967.6256576,13188,12902,11457,7977
968.6482069,13021,12754,11493,7826
969.6705754,13282,12589,11439,7945
970.6927628,13170,12751,11334,7864
971.7147694,13079,12610,11534,8012
972.7365952,13134,12634,11436,7969
973.7582401,13397,12844,11438,7903
974.7797043,13315,12754,11503,7926
975.8009877,13045,12708,11469,7993
976.8220905,13239,12739,11524,7871
977.8430127,13286,12734,11697,8003
978.8637542,13180,12897,11627,8003
979.8843152,13418,12710,11673,7909
980.9046957,13340,12764,11614,7989
981.9248957,13272,12819,11537,8089
982.9449153,13218,12741,11483,7982
983.9647546,13242,12825,11701,8069
984.9844134,13404,12825,11516,8058
986.003892,13379,12948,11668,7952
987.0231904,13354,12971,11626,8103
988.0423085,13141,12724,11686,8045
989.0612464,13248,12892,11650,7990
990.0800042,13364,12979,11514,7960
991.098582,13388,12939,11739,8011
992.1169797,13371,12906,11516,8120
993.1351974,13263,13019,11698,8030
994.1532351,13338,13004,11606,8088
995.1710929,13296,12962,11744,8051
996.1887708,13320,12828,11784,8192
997.2062689,13547,12771,11711,8064
998.2235873,13387,12811,11733,8092
999.2407258,13358,12957,11761,7996
1000.257685,13398,13031,11464,8106
1001.274464,13317,13040,11643,8143
1002.291063,13461,13108,11714,8164
1003.307483,13427,12850,11743,8182
1004.323724,13280,12952,11652,8219
1005.339785,13244,13070,11682,8086
1006.355666,13389,12815,11801,8218
1007.371368,13188,12957,11636,7997
1008.386891,13236,12938,11635,8205
1009.402235,13227,12908,11736,8214
1010.417399,13474,12872,11657,8006
1011.432383,13371,12834,11545,7934
1012.447189,13314,12834,11627,8079
1013.461816,13418,12875,11635,8078
1014.476263,13260,12898,11595,8026
1015.490531,13282,13017,11559,8102
1016.504621,13313,12865,11633,8001
1017.518531,13248,12757,11617,8025
1018.532262,13258,12754,11493,8070
1019.545814,13401,12844,11724,8029
1020.559188,13317,12904,11740,8114
1021.572383,13291,12917,11649,8093
1022.585399,13266,12859,11783,7893
1023.598236,13034,12699,11691,7939
1024.610894,13178,12716,11669,8048
1025.623374,13278,12773,11420,8118
1026.635675,13311,12826,11731,8132
1027.647798,13234,12815,11626,8126
1028.659742,13402,12704,11573,8042
1029.671508,13315,12880,11545,7950
1030.683095,13309,12853,11754,7988
1031.694503,13252,12738,11775,8157
1032.705734,13174,12876,11518,7992
1033.716786,13254,13014,11706,8048
1034.72766,13229,12802,11639,7965
1035.738355,13316,12611,11569,7918
1036.748872,13233,12797,11593,8200
1037.759211,13289,13077,11738,8183
1038.769372,13430,12820,11849,8134
1039.779355,13323,12893,11534,8102
1040.78916,13144,12752,11596,7995
1041.798787,13445,12991,11679,8113
1042.808236,13259,12872,11789,8129
1043.817507,13393,12903,11714,8063
1044.8266,13308,12997,11842,8085
1045.835516,13211,12922,11647,8116
1046.844253,13241,12910,11696,8051
1047.852813,13243,12851,11791,7949
1048.861195,13472,12950,11803,8123
1049.8694,13318,12799,11960,8154
1050.877426,13443,12971,11697,8092
1051.885276,13505,12974,11792,8133
1052.892947,13338,12938,11811,8274
1053.900442,13523,13043,11817,8164
1054.907758,13532,13093,11795,8400
1055.914898,13537,13052,11701,8259
1056.92186,13496,13227,11805,8396
1057.928644,13497,13045,11769,8367
1058.935251,13434,12954,11862,8237
1059.941682,13555,13191,11922,8251
1060.947934,13687,13150,12016,8293
1061.95401,13697,13207,11907,8425
1062.959909,13591,13017,11927,8554
1063.96563,13671,13230,11977,8526
1064.971175,13598,13317,12132,8540
1065.976542,13658,13295,12092,8626
1066.981733,13802,13448,12120,8678
1067.986746,13852,13637,12255,8988
1068.991583,14069,13637,12211,8977
1069.996243,14086.13555,13792,12096,8884
1071.000726,14103.26808,13871,12275,8922
1072.005032,14120.3976,13913,12475,9004
1073.009161,14137.52411,14066,12467,9186
1074.013114,14154.6476,14030,12446,9067
1075.016891,14171.76808,14086,12448,9059
1076.02049,14188.88554,14110,12554,9219
1077.023913,14206,13940,12543,9125
1078.02716,14200,14146,12528,9125
1079.03023,14381,14067,12569,9167
1080.033124,14128,13882,12501,8934
1081.035841,14119,13925,12481,9006
1082.038382,13957,13770,12304,8922
1083.040747,14047,13683,12311,8908
1084.042935,13898,13769,12102,8755
1085.044947,13984,13537,12097,8688
1086.046783,13759,13392,12204,8642
1087.048443,13820,13251,12184,8526
1088.049927,13807,13297,11951,8448
1089.051235,13728,13385,12099,8420
1090.052366,13803,13302,12153,8547
1091.053322,13765,13277,12119,8515
1092.054102,13663,13276,12228,8452
1093.054706,13878,13115,12065,8542
1094.055134,13667,13104,11962,8449
1095.055386,13610,13384,11927,8430
1096.055462,13668,13212,11907,8553
1097.055363,13658,13356,12072,8447
1098.055088,13639,13128,12135,8380
1099.054637,13709,13251,11990,8384
1100.054011,13651,13234,11906,8355
1101.053209,13755,13145,11956,8396
1102.052232,13665,13140,12096,8355
1103.051079,13600,13162,12088,8485
1104.049751,13659,13252,12017,8350
1105.048247,13395,13019,11894,8341
1106.046568,13507,13096,11936,8227
1107.044714,13621,13077,11859,8299
1108.042684,13557,13109,11844,8275
1109.040479,13527,13376,12071,8336
1110.038099,13612,13013,11800,8261
1111.035544,13637,13032,11984,8402
1112.032813,13461,13101,12025,8342
1113.029908,13536,13058,11984,8257
1114.026827,13621,13154,11979,8452
1115.023571,13772,13032,11884,8324
1116.020141,13708,13158,11899,8325
1117.016536,13651,13008,11893,8344
1118.012755,13587,13182,11856,8401
1119.0088,13678,12983,12123,8414
1120.00467,13526,13249,11795,8402
1121.000365,13564,13191,12060,8415
1121.995886,13460,13190,11914,8421
1122.991232,13483,13048,11911,8515
1123.986403,13607,13155,11821,8386
1124.9814,13510,13033,11856,8462
1125.976222,13669,13283,11964,8580
1126.970869,13726,13157,12080,8599
1127.965342,13705,13102,11965,8509
1128.959641,13653,13005,12014,8609
1129.953765,13799,13184,12134,8709
1130.947715,13772,13435,12135,8829
1131.941491,13884,13427,12214,8956
1132.935092,13903,13366,12046,8983
1133.928519,13902,13523,12176,8942
1134.921772,13747,13592,12316,9064
1135.914851,13799,13796,12131,9117
1136.907756,14172,13810,12364,9249
1137.900486,14198,13995,12531,9346
1138.893043,14148,13936,12500,9206
1139.885425,13967,14006,12655,9170
1140.877634,14148,14214,12581,9049
1141.869668,14160,14086,12594,9112
1142.861529,14147,14388,12587,9014
1143.853216,14259,14289,12491,8893
1144.844729,14202,14430,12509,8857
1145.836069,14194,14198,12533,8859
1146.827234,14043,14034,12339,8763
1147.818227,14215,14098,12448,8853
1148.809045,13987,14111,12394,8809
1149.79969,14025,14028,12475,8577
1150.790161,13961,13767,12424,8655
1151.780459,14089,13651,12231,8660
1152.770583,13812,13674,12094,8628
1153.760534,13814,13581,12268,8649
1154.750311,13862,13538,12278,8600
1155.739915,13842,13620,12152,8672
1156.729346,13944,13640,12207,8564
1157.718604,13898,13389,12068,8551
1158.707688,13797,13403,12177,8578
1159.696599,13858,13344,12190,8621
1160.685337,13813,13399,12220,8688
1161.673902,13764,13460,12298,8675
1162.662294,13840,13453,12323,8605
1163.650512,13807,13367,12219,8601
1164.638558,13857,13273,12223,8639
1165.626431,13729,13391,12203,8594
1166.614131,14114,13411,12146,8776
1167.601658,13830,13311,12093,8651
1168.589012,13964,13362,12342,8640
1169.576193,13855,13246,12268,8688
1170.563202,13849,13173,12320,8732
1171.550038,13905,13389,12167,8707
1172.536701,13949,13398,12273,8672
1173.523192,13976,13388,12286,8704
1174.50951,13825,13203,12288,8703
1175.495655,13767,13292,12204,8759
1176.481628,13978,13262,12207,8734
1177.467429,13955,13285,12325,8782
1178.453057,14096,13516,12152,8768
1179.438512,14118,13467,12305,8829
1180.423796,13944,13524,12282,8737
1181.408906,13964,13255,12123,8821
1182.393845,14046,13452,12272,8936
1183.378612,13817,13435,12234,8895
1184.363206,13930,13461,12395,8928
1185.347628,14089,13534,12296,8998
1186.331878,13879,13249,12369,8887
1187.315956,13957,13451,12325,8806
1188.299862,13792,13472,12238,8968
1189.283596,13820,13588,12288,8887
1190.267158,13945,13424,12424,8656
1191.250547,14063,13383,12445,8810
1192.233766,13861,13465,12271,8704
1193.216812,14009,13361,12353,8686
1194.199686,13821,13463,12176,8669
1195.182389,13847,13489,12317,8719
1196.16492,13969,13515,12387,8801
1197.147279,13852,13540,12338,8730
1198.129467,13926,13467,12290,8540
1199.111483,13886,13346,12150,8822
1200.093328,13998,13384,12357,8617
1201.075,13781,13223,12221,8621
1202.056502,13982,13264,12188,8782
1203.037832,13873,13240,12303,8691
1204.018991,13692,13323,12258,8701
1204.999978,13773,13155,12098,8724
1205.980794,13622,13186,12102,8556
1206.961438,13840,13253,12064,8706
1207.941912,13851,13096,12180,8565
1208.922214,13898,13256,12200,8725
1209.902345,13816,13102,12163,8664
1210.882305,13754,13160,12056,8688
1211.862094,13659,13261,12105,8659
1212.841711,13650,13298,12147,8681
1213.821158,13833,13219,12412,8689
1214.800434,13901,13290,12230,8689
1215.779539,13784,13198,12212,8646
1216.758473,13784,13049,12166,8661
1217.737236,13798,13241,12140,8754
1218.715828,13976,13286,12122,8860
1219.694249,13845,13165,12148,8703
1220.6725,13904,13422,12305,8749
1221.65058,13758,13152,12343,8570
1222.628489,13769,13141,12159,8756
1223.606228,13793,13212,12341,8653
1224.583796,13794,13198,12155,8792
1225.561194,13910,13309,12260,8802
1226.538421,13845,13317,12183,8809
1227.515478,13865,13232,12330,8743
1228.492364,13835,13021,12364,8780
1229.46908,13963,13255,12395,8890
1230.445625,13908,13279,12329,8855
1231.422,13933,13303,12372,8782
1232.398205,13979,13604,12359,8835
1233.37424,13806,13345,12373,8780
1234.350104,13887,13387,12457,8818
1235.325799,13723,13239,12253,8786
1236.301323,13803,13354,12450,8906
1237.276677,13981,13370,12364,8828
1238.251861,14006,13345,12453,8996
1239.226875,14138,13296,12420,8890
1240.20172,13958,13370,12295,8859
1241.176394,13982,13373,12285,9000
1242.150898,13941,13417,12488,8856
1243.125233,14068,13386,12417,8980
1244.099397,14098,13409,12623,8859
1245.073392,14034,13367,12418,8888
1246.047217,14196,13275,12289,8876
1247.020873,14068,13222,12478,8952
1247.994359,13977,13431,12537,8910
1248.967675,14042,13455,12457,9027
1249.940822,14120,13469,12634,8957
1250.913799,13989,13514,12440,8949
1251.886607,13980,13349,12483,9010
1252.859245,14170,13407,12373,8813
1253.831714,13967,13411,12527,8882
1254.804013,14189,13598,12593,9061
1255.776143,13978,13531,12472,8885
1256.748104,14115,13482,12474,8883
1257.719896,13941,13609,12462,8972
1258.691518,14045,13309,12575,9000
1259.662971,14176,13530,12525,9086
1260.634255,14155,13416,12442,8916
1261.60537,14086,13552,12512,8946
1262.576316,13982,13480,12512,9055
1263.547092,14040,13443,12542,9054
1264.5177,14079,13356,12567,8897
1265.488139,14069,13384,12527,8978
1266.458409,14108,13485,12562,8920
1267.42851,14193,13469,12588,8911
1268.398442,14192,13411,12541,8960
1269.368206,13925,13477,12378,9001
1270.3378,14261,13338,12472,8998
1271.307226,14019,13411,12544,8975
1272.276484,13998,13489,12653,8970
1273.245572,14196,13437,12664,9068
1274.214492,14293,13375,12599,9113
1275.183244,14116,13437,12458,8814
1276.151827,13905,13443,12531,8969
1277.120241,14305,13461,12660,9120
1278.088487,14222,13458,12589,9070
1279.056565,14353,13525,12586,9028
1280.024474,14065,13465,12455,8983
1280.992215,13994,13352,12553,8954
1281.959787,13981,13352,12641,8960
1282.927192,14160,13586,12596,8978
1283.894428,14252,13496,12506,9111
1284.861496,14289,13502,12693,9041
1285.828396,14101,13343,12536,8930
1286.795127,14105,13487,12599,8969
1287.761691,14112,13168,12383,8887
1288.728086,14190,13568,12442,8902
1289.694314,14092,13473,12600,8993
1290.660374,14211,13616,12644,9042
1291.626265,14000,13470,12404,8878
1292.591989,14094,13307,12504,9084
1293.557545,14000,13201,12368,8966
1294.522934,14142,13501,12660,9005
1295.488154,14194,13577,12622,9105
1296.453207,14151,13425,12628,9083
1297.418092,14052,13306,12538,9059
1298.382809,13962,13430,12617,8985
1299.347359,14089,13455,12467,8986
1300.311741,14051,13369,12737,9192
1301.275956,14149,13540,12579,9150
1302.240003,14060,13643,12662,9181
1303.203883,14014,13523,12674,9175
1304.167595,14181,13274,12453,9049
1305.13114,13857,13495,12528,9079
1306.094518,13969,13393,12472,9140
1307.057728,14138,13553,12578,9079
1308.020771,14129,13458,12788,9019
1308.983647,13922,13611,12485,9112
1309.946356,14038,13568,12594,9052
1310.908897,14219,13557,12480,9037
1311.871271,14164,13629,12611,9022
1312.833479,14070,13366,12610,9106
1313.795519,14207,13421,12551,9105
1314.757392,14081,13591,12764,9032
1315.719099,13915,13359,12499,9086
1316.680638,13971,13397,12616,9063
1317.64201,13946,13523,12647,9017
1318.603216,13912,13443,12720,9148
1319.564255,13958,13439,12618,9142
1320.525127,14070,13423,12596,9019
1321.485832,14169,13556,12486,9014
1322.446371,14004,13342,12443,9080
1323.406743,13989,13390,12614,9047
1324.366948,14010,13385,12660,9236
1325.326987,13852,13428,12729,9170
1326.286859,14037,13467,12467,9222
1327.246565,13932,13609,12550,9055
1328.206104,14171,13433,12679,9143
1329.165477,14130,13430,12543,9149
1330.124684,14074,13618,12610,9056
1331.083724,14334,13430,12702,9180
1332.042598,14194,13461,12679,9284
1333.001305,14029,13377,12553,9249
1333.959846,14067,13429,12737,9173
1334.918222,14002,13342,12602,9233
1335.87643,14152,13457,12672,9045
1336.834473,14067,13481,12624,9261
1337.79235,14227,13654,12750,9146
1338.75006,14210,13523,12721,9155
1339.707605,14077,13360,12531,9204
1340.664984,14091,13520,12751,9233
1341.622196,14170,13455,12691,9175
1342.579243,14127,13607,12721,9308
1343.536124,14210,13446,12801,9221
1344.492839,14121,13322,12706,9263
1345.449389,14331,13526,12571,9261
1346.405772,14248,13471,12740,9132
1347.36199,14373,13518,12741,9217
1348.318042,14081,13426,12636,9210
1349.273929,14416,13613,12823,9228
1350.22965,14132,13545,12760,9103
1351.185205,14381,13680,12709,9275
1352.140595,14220,13444,12708,9187
1353.095819,14369,13576,12956,9382
1354.050878,14239,13656,12797,9230
1355.005772,14195,13629,12878,9198
1355.9605,14411,13742,12863,9427
1356.915063,14095,13411,12801,9187
1357.86946,14360,13507,12716,9316
1358.823692,14298,13755,12824,9312
1359.777759,14336,13732,12792,9282
1360.731661,14304,13857,12802,9357
1361.685398,14315,13504,12895,9336
1362.638969,14280,13701,12665,9313
1363.592376,14417,13597,12857,9374
1364.545617,14529,13692,12944,9395
1365.498694,14339,13621,13008,9429
1366.451605,14572,13716,13034,9470
1367.404352,14181,13875,12917,9285
1368.356933,14429,13688,12930,9381
1369.30935,14271,13847,12892,9321
1370.261602,14388,13748,12891,9386
1371.213689,14462,13745,13047,9415
1372.165612,14420,13730,12893,9540
1373.117369,14460,13715,13136,9437
1374.068962,14332,13794,12943,9356
1375.020391,14157,13695,12845,9480
1375.971655,14445,13806,12757,9403
1376.922754,14366,13845,12991,9406
1377.873689,14473,14221,13085,9428
1378.824459,14706,13953,12950,9489
1379.775065,14499,13858,13028,9448
1380.725506,14393,14103,12885,9399
1381.675784,14484,14025,12958,9505
1382.625896,14542,14140,13152,9589
1383.575845,14465,14108,13175,9645
1384.525629,14608,14443,13113,9691
1385.475249,14631,14371,13048,9605
1386.424705,14653,14334,13049,9702
1387.373996,14685,14474,13291,9564
1388.323124,14676,14590,13206,9601
1389.272088,14643,14570,13274,9751
1390.220887,14653,14404,12918,9688
1391.169522,14570,14337,13049,9576
1392.117994,14709,14204,13164,9310
1393.066301,14590,14145,13157,9400
1394.014445,14652,14000,13191,9384
1394.962425,14422,13991,13091,9366
1395.910241,14366,13726,13008,9327
1396.857893,14431,13684,12858,9426
1397.805382,14194,13759,12671,9207
1398.752707,14230,13561,12702,9140
1399.699868,14217,13601,12949,9269
1400.646865,14343,13572,12816,9193
1401.593699,14238,13549,12772,9238
1402.54037,14229,13502,12837,9167
1403.486876,14084,13496,12782,9263
1404.43322,14022,13345,12630,9062
1405.3794,14197,13387,12695,9127
1406.325416,14346,13453,12727,9313
1407.271269,14125,13454,12728,9054
1408.216959,14159,13559,12634,9111
1409.162486,14088,13438,12577,9117
1410.107849,14246,13279,12745,9095
1411.053049,14198,13323,12667,8947
1411.998086,14284,13412,12686,9072
1412.94296,14325,13650,12793,9128
1413.88767,14092,13590,12871,9094
1414.832218,14168,13447,12763,9068
1415.776602,14000,13445,12752,9150
1416.720824,14356,13520,12825,9129
1417.664882,14231,13659,12801,9451
1418.608778,14215,13755,13027,9413
1419.55251,14395,13732,13015,9347
1420.49608,14426,13836,12810,9406
1421.439487,14434,13666,12869,9429
1422.382732,14524,13933,12997,9609
1423.325813,14468,14062,13101,9621
1424.268732,14658,14236,13099,9864
1425.211488,14818,14411,13237,9835
1426.154081,14664,14327,13170,9933
1427.096512,14789,14490,13194,10017
1428.038781,14737,14390,13297,9941
1428.980886,14769,14521,13458,9925
1429.92283,14874,14499,13424,9963
1430.864611,14662,14610,13455,9953
1431.806229,15011,14264,13346,9774
1432.747685,14761,14319,13204,9692
1433.688979,14682,14329,13341,9681
1434.63011,14763,14147,13163,9625
1435.571079,14698,14086,13401,9573
1436.511886,14553,14002,13231,9659
1437.452531,14759,14094,13247,9535
1438.393014,14507,13825,13188,9463
1439.333334,14650,13848,13164,9457
1440.273492,14390,13745,13143,9481
1441.213489,14762,13682,13216,9512
1442.153323,14569,13758,13153,9364
1443.092995,14406,13809,12905,9347
1444.032506,14465,13779,13025,9296
1444.971854,14471,13744,13166,9309
1445.911041,14312,13513,12895,9254
1446.850065,14394,13767,13143,9277
1447.788928,14401,13722,13175,9335
1448.72763,14378,13615,13029,9312
1449.666169,14287,13636,12982,9344
1450.604547,14329,13652,13029,9240
1451.542763,14437,13617,13160,9330
1452.480818,14182,13685,12911,9339
1453.418711,14546,13625,12926,9379
1454.356442,14320,13706,13170,9281
1455.294012,14415,13858,12917,9395
1456.23142,14398,13735,13006,9345
1457.168667,14230,13626,12934,9111
1458.105753,14214,13679,12994,9232
1459.042677,14404,13709,12876,9409
1459.97944,14390,13635,12891,9378
1460.916042,14483,13551,13028,9098
1461.852482,14375,13456,12898,9301
1462.788761,14404,13587,12830,9282
1463.724879,14270,13468,12833,9179
1464.660836,14136,13597,13079,9355
1465.596632,14455,13584,13204,9219
1466.532266,14426,13610,12985,9334
1467.46774,14416,13604,12942,9149
1468.403053,14258,13417,12925,9107
1469.338204,14302,13578,12943,9225
1470.273195,14237,13568,12830,9046
1471.208025,14268,13620,13048,9281
1472.142694,14291,13593,13044,9217
1473.077202,14261,13471,13130,9264
1474.011549,14273,13642,12804,9119
1474.945736,14290,13445,12930,9051
1475.879762,14291,13504,12874,9203
1476.813627,14438,13603,13008,9237
1477.747332,14418,13387,12915,9185
1478.680876,14391,13458,12987,9170
1479.614259,14322,13412,12890,9179
1480.547482,14232,13237,12871,9144
1481.480545,14197,13401,12665,9069
1482.413447,14082,13259,12852,9228
1483.346188,14032,13393,12716,9085
1484.278769,14245,13402,12855,9150
1485.21119,14116,13228,12813,9251
1486.143451,14107,13350,12816,9062
1487.075551,14154,13284,12906,9073
1488.007491,14054,13393,12845,8949
1488.939271,14116,13422,12941,9156
1489.87089,14280,13379,12893,9201
1490.80235,14091,13507,12746,9147
1491.733649,14115,13243,12747,9082
1492.664788,14030,13285,12818,9100
1493.595768,14211,13208,12815,9089
1494.526587,14113,13203,12929,8998
1495.457246,14189,13242,12914,9138
1496.387746,14259,13437,12875,9098
1497.318085,14078,13255,12644,9022
1498.248265,13952,13299,12819,9039
1499.178285,14007,13167,12741,9082
1500.108145,14111,13325,12784,9050
1501.037845,14168,13308,12871,9039
1501.967386,14072,13334,12693,9015
1502.896767,14069,13262,12778,9080
1503.825988,14099,13298,12696,9075
1504.75505,14030,13335,12737,8970
1505.683952,13929,13164,12932,9040
1506.612694,14008,13228,12882,9073
1507.541278,14233,13266,12732,9134
1508.469701,14164,13195,12704,8904
1509.397965,14026,13243,12686,8932
1510.32607,14065,13246,12604,9047
1511.254016,14098,13242,12915,9014
1512.181802,13907,13178,12751,8925
1513.109429,14203,13384,12738,9098
1514.036897,14075,13198,12781,9018
1514.964205,14155,13140,12686,9143
1515.891354,14040,13127,12575,8974
1516.818345,14050,13337,12724,9115
1517.745176,14022,13388,12883,9008
1518.671848,14104,13256,12756,9116
1519.598361,14180,13251,12799,9073
1520.524715,14007,13213,12877,9075
1521.45091,14098,13214,12709,9060
1522.376946,14083,12997,12807,8957
1523.302823,14009,13260,12783,9124
1524.228541,14085,13055,12863,9046
1525.154101,14286,13184,12896,9180
1526.079502,14158,13218,12806,9100
1527.004744,14104,13121,12779,9026
1527.929827,14078,13069,12786,9120
1528.854751,14080,13233,12835,8994
1529.779517,14160,13286,12984,9123
1530.704125,14304,13318,12686,9103
1531.628574,14102,13214,12811,9149
1532.552864,14029,13119,12902,9057
1533.476996,14183,13191,12845,9211
1534.400969,14062,13261,12784,9103
1535.324784,14147,13259,12812,9120
1536.24844,14154,13208,12826,9099
1537.171938,14328,13390,12906,9207
1538.095278,14161,13313,12779,9075
1539.01846,14120,13279,12826,9232
1539.941483,14142,13340,12856,9097
1540.864348,14358,13298,12968,9183
1541.787055,14312,13305,12960,9182
1542.709604,14104,13413,12748,9125
1543.631994,14264,13302,13035,9200
1544.554227,14100,13307,12778,9153
1545.476301,14098,13315,12972,9162
1546.398218,14090,13266,12739,9235
1547.319976,14276,13426,13013,9239
1548.241577,14320,13332,12782,9283
1549.163019,14126,13358,12978,9223
1550.084304,14084,13441,12820,9121
1551.005431,14204,13255,12953,9152
1551.9264,14099,13400,12794,9220
1552.847212,14153,13326,13034,9205
1553.767866,14349,13463,13026,9367
1554.688362,14443,13464,12955,9323
1555.6087,14258,13463,12976,9196
1556.528881,14240,13510,12959,9100
1557.448904,14277,13296,12865,9309
1558.368769,14327,13287,13048,9164
1559.288477,14519,13441,13087,9315
1560.208028,14317,13333,13071.49336,9431
1561.127421,14320,13340,13055.98938,9337
1562.046657,14160,13429,13040.48806,9416
1562.965735,14373,13427,13024.98939,9443
1563.884656,14174,13382,13009.49337,9483
1564.80342,14406,13483,12994,9657
1565.722027,14440,13569,13304,9522
1566.640476,14258,13477,13136,9480
1567.558768,14442,13451,13207,9603
1568.476903,14310,13390,13122,9460
1569.394881,14528,13597,13156,9548
1570.312701,14500,13552,13222,9674
1571.230365,14546,13639,13433,9899
1572.147871,14621,13710,13427,9708
1573.065221,14380,13552,13160,9671
1573.982414,14399,13550,13224,9643
1574.899449,14439,13635,13219,9770
1575.816328,14454,13715,13338,9740
1576.73305,14555,13681,13471,9599
1577.649615,14610,13819,13388,9807
1578.566024,14523,13658,13292,9762
1579.482275,14316,13650,13325,9950
1580.39837,14391,13555,13197,9664
1581.314308,14329,13630,13232,9771
1582.23009,14445,13486,13209,9747
1583.145715,14441,13613,13208,9818
1584.061183,14521,13649,13278,9797
1584.976495,14332,13642,13189,9660
1585.89165,14439,13496,13067,9869
1586.806649,14322,13446,13106,9776
1587.721492,14264,13543,13219,9842
1588.636178,14385,13643,13221,9880
1589.550708,14461,13517,13204,9772
1590.465081,14250,13495,13213,9486
1591.379298,14320,13500,13104,9503
1592.293359,14102,13420,12843,9551
1593.207263,14280,13379,13098,9560
1594.121012,14184,13380,13155,9354
1595.034604,14221,13355,13006,9433
1595.94804,14103,13299,13084,9342
1596.86132,14237,13252,12996,9207
1597.774444,14085,13336,12866,9293
1598.687412,14075,13189,12892,9108
1599.600224,14060,13064,12988,9219
1600.51288,14209,13213,12830,9140
1601.42538,14269,13206,13033,9223
1602.337724,14037,13233,12886,9192
1603.249913,14016,13218,12799,9177
1604.161945,13714,12944,12776,9105
1605.073822,14073,13127,12906,9018
1605.985543,14055,13191,12967,9166
1606.897109,14135,13228,12855,9247
1607.808518,14013,13273,12935,9248
1608.719772,14032,13027,12854,9265
1609.630871,13885,12983,12816,9223
1610.541814,13943,13038,12675,9167
1611.452601,14035,13239,12878,9241
1612.363233,14100,12960,12982,9098
1613.273709,14009,13104,12900,9186
1614.18403,13863,13179,12735,9102
1615.094196,14054,13144,12759,9209
1616.004206,13891,12881,12782,9174
1616.914061,14027,13020,12754,9091
1617.82376,13971,13036,12917,9049
1618.733304,14030,13138,12818,9306
1619.642693,13989,12978,12897,9066
1620.551927,13833,12928,12670,9029
1621.461006,13949,13011,12808,9097
1622.36993,14029,12956,12841,9145
1623.278698,14072,13127,12859,9118
1624.187311,13889,12990,12757,9209
1625.09577,14034,13208,12900,8924
1626.004073,13883,12961,12716,9089
1626.912222,13864,13003,12827,9021
1627.820215,14042,13050,12837,9069
1628.728054,14038,13046,12738,9144
1629.635738,14220,13116,12831,9215
1630.543267,14043,13049,12820,9135
1631.450641,14174,13183,12845,9012
1632.357861,14159,13044,12838,8949
1633.264925,14067,13009,12826,9045
1634.171835,14040,13121,12917,9001
1635.078591,13997,13096,12841,9082
1635.985192,13973,13065,12923,9042
1636.891638,14066,13322,12984,8962
1637.79793,14079,12857,12874,8999
1638.704067,14131,13085,12807,8952
1639.61005,14051,13095,12839,9010
1640.515878,13999,13255,12935,9114
1641.421552,14196,13138,12938,8935
1642.327071,14235,13121,13103,9033
1643.232436,14013,13354,12932,9010
1644.137647,14182,13139,12902,8936
1645.042704,14068,13072,12791,8971
1645.947606,14043,13123,12941,8956
1646.852354,14055,13091,12903,8990
1647.756948,14240,13159,13023,8956
1648.661388,14215,13138,12996,9036
1649.565674,14161,12996,12915,8841
1650.469806,14118,13058,13044,8917
1651.373783,13879,12997,12905,8959
1652.277607,14132,13051,13111,9034
1653.181277,14046,13133,12862,8976
1654.084793,14085,13160,12854,9104
1654.988154,14169,13119,12790,8903
1655.891362,13951,13162,12937,8771
1656.794417,14126,13002,12821,8882
1657.697317,14007,13058,12919,8828
1658.600064,14116,12995,12846,9044
1659.502657,14222,13160,12991,9027
1660.405096,14183,13090,12904,8977
1661.307381,14228,13080,12916,8902
1662.209513,14177,13098,13023,8922
1663.111492,13940,13070,12893,8863
1664.013316,14167,13016,12854,8878
1664.914988,13976,13178,13041,9086
1665.816505,14135,13187,13121,8966
1666.71787,14133,12958,13029,8903
1667.619081,13941,12963,12854,8949
1668.520138,13967,12910,12890,8739
1669.421042,14131,13074,12804,8925
1670.321793,14210,13211,12927,8860
1671.222391,14117,13266,13084,8918
1672.122835,14092,13037,12913,8912
1673.023126,14124,13095,12842,8880
1673.923264,14206,13136,12952,8864
1674.823249,13987,12947,12892,8748
1675.72308,14211,13001,12919,8889
1676.622759,14100,13010,12733,8877
1677.522284,14024,12988,12960,8878
1678.421657,13962,13133,12802,8987
1679.320876,14015,13006,12927,8728
1680.219943,13984,12800,12810,8649
1681.118856,14070,12948,12887,8929
1682.017617,14026,12911,12923,8926
1682.916225,14207,12950,12958,8836
1683.81468,14072,13022,13030,8810
1684.712982,14068,13075,12700,8735
1685.611132,13917,12850,12907,8703
1686.509128,13919,12980,12591,8685
1687.406972,13845,12848,12895,8726
1688.304664,14003,13008,12757,8840
1689.202203,13928,13028,12826,8831
1690.099589,13969,12839,12819,8692
1690.996823,13863,13125,12991,8665
1691.893904,13794,12851,12838,8554
1692.790833,13945,12945,12876,8616
1693.687609,14092,13024,12849,8718
1694.584233,14000,12965,12828,8525
1695.480704,13921,13026,12948,8624
1696.377023,13984,12826,12819,8610
1697.27319,13962,12865,12745,8571
1698.169205,13945,12752,12725,8631
1699.065067,13946,12814,12910,8545
1699.960777,13835,12964,12751,8657
1700.856335,13980,12997,12701,8746
1701.751741,13992,12908,12709,8596
1702.646994,13936,12816,12605,8681
1703.542096,13835,12851,12797,8550
1704.437046,13761,12868,12795,8594
1705.331843,13795,12781,12747,8652
1706.226489,13959,12817,12845,8567
1707.120982,13965,12835,12798,8471
1708.015324,13810,12673,12864,8505
1708.909514,13762,12716,12613,8627
1709.803551,13796,12724,12764,8447
1710.697438,13732,12703,12843,8464
1711.591172,13909,12804,12836,8525
1712.484755,13822,12830,12692,8474
1713.378185,13930,12754,12669,8474
1714.271465,13736,12674,12742,8581
1715.164592,13693,12750,12548,8520
1716.057568,13835,12637,12763,8458
1716.950392,13715,12755,12809,8622
1717.843065,13812,12767,12926,8464
1718.735586,14036,12683,12854,8613
1719.627956,13849,12733,12762,8612
1720.520175,13856,12576,12678,8449
1721.412242,13637,12785,12635,8623
1722.304157,13717,12733,12729,8540
1723.195921,13878,12774,12698,8525
1724.087534,13915,12746,12650,8603
1724.978996,14003,12733,12921,8457
1725.870306,13808,12648,12783,8502
1726.761465,13752,12554,12638,8490
1727.652473,13846,12490,12647,8494
1728.54333,13924,12735,12828,8479
1729.434036,13771,12751,12789,8581
1730.32459,13783,12927,12790,8548
1731.214994,13818,12570,12615,8506
1732.105247,13725,12647,12610,8533
1732.995348,13841,12631,12608,8516
1733.885299,13796,12743,12629,8557
1734.775098,13890,12819,12656,8553
1735.664747,13974,12868,12799,8531
1736.554245,13937,12880,12807,8518
1737.443592,13737,12558,12716,8450
1738.332789,13898,12703,12819,8472
1739.221834,13916,12643,12653,8501
1740.110729,13810,12881,12744,8602
1740.999473,13764,12808,12689,8633
1741.888067,14031,13013,12828,8706
1742.77651,13942,12725,12706,8618
1743.664802,13915,12757,12709,8563
1744.552944,13807,12721,12771,8627
1745.440935,13863,12772,12730,8575
1746.328776,13884,12795,12780,8538
1747.216466,13904,12877,12823,8638
1748.104006,13842,12634,12803,8574
1748.991395,14066,12711,12865,8548
1749.878634,13929,12683,12803,8606
1750.765723,13892,12631,12746,8460
1751.652661,13700,12853,12689,8481
1752.53945,13915,12668,12857,8634
1753.426088,13901,12817,12852,8601
1754.312575,13728,12678,12914,8470
1755.198913,13816,12759,12712,8538
1756.085101,13861,12775,12853,8594
1756.971138,13745,12659,12931,8680
1757.857025,13791,12808,12882,8422
1758.742763,14116,12756,13000,8591
1759.62835,14057,12848,12936,8425
1760.513787,13746,12824,12857,8539
1761.399075,13894,12843,12813,8555
1762.284212,13653,12522,12802,8449
1763.1692,13795,12762,12796,8550
1764.054037,14053,12658,12783,8743
1764.938725,13975,12896,12888,8588
1765.823264,13897,12855,12832,8575
1766.707652,13989,12666,12852,8506
1767.591891,13854,12814,12773,8576
1768.47598,13813,12589,12857,8494
1769.359919,13824,12734,12804,8536
1770.243709,13916,12710,12850,8567
1771.12735,13890,12690,12896,8547
1772.01084,13943,12853,13032,8677
1772.894182,13928,12654,12841,8442
1773.777373,13785,12671,12938,8556
1774.660416,13556,12661,12825,8593
1775.543308,13897,12727,12870,8537
1776.426052,13825,12681,12933,8529
1777.308646,13866,12795,13011,8613
1778.191091,13907,12816,12870,8590
1779.073387,13651,12632,12775,8476
1779.955533,13899,12615,12691,8494
1780.83753,13758,12769,12782,8568
1781.719378,13763,12807,12940,8472
1782.601077,13917,12681,12859,8502
1783.482626,13864,12609,12997,8533
1784.364027,13747,12672,12744,8486
1785.245278,13704,12611,12711,8324
1786.126381,13738,12640,12854,8507
1787.007334,13904,12650,12785,8571
1787.888139,13852,12556,12775,8435
1788.768794,13846,12708,12867,8598
1789.649301,13759,12556,12840,8441
1790.529659,13796,12561,12817,8414
1791.409868,13709,12544,12833,8489
1792.289928,13682,12481,12743,8487
1793.16984,13765,12660,12744,8470
1794.049602,13724,12510,12893,8353
1794.929216,13827,12623,12772,8403
1795.808682,13804,12699,12702,8425
1796.687999,13746,12555,12785,8405
1797.567167,13648,12447,12860,8404
1798.446186,13748,12598,12858,8435
1799.325057,13770,12783,12767,8478
1800.20378,13834,12581,12825,8395
1801.082354,13828,12633,12785,8500
1801.960779,13682,12513,12770,8418
1802.839057,13818,12724,12777,8428
1803.717185,13686,12493,12658,8417
1804.595166,13734,12428,12788,8424
1805.472998,13549,12624,12569,8483
1806.350682,13748,12596,12847,8485
1807.228218,13556,12509,12728,8517
1808.105605,13751,12367,12796,8413
1808.982844,13756,12555,12791,8457
1809.859935,13644,12626,12835,8324
1810.736878,13777,12562,12778,8516
1811.613673,13659,12624,12841,8414
1812.49032,13572,12528,12686,8510
1813.366819,13693,12575,12767,8294
1814.24317,13662,12506,12649,8370
1815.119372,13538,12453,12668,8347
1815.995427,13610,12432,12738,8339
1816.871334,13564,12442,12724,8392
1817.747094,13806,12570,12805,8464
1818.622705,13645,12447,12781,8428
1819.498169,13672,12397,12811,8409
1820.373484,13567,12414,12701,8305
1821.248652,13537,12354,12572,8372
1822.123673,13450,12410,12709,8255
1822.998545,13636,12344,12668,8395
1823.87327,13726,12461,12771,8339
1824.747848,13789,12432,12814,8377
1825.622278,13685,12515,12722,8372
1826.49656,13600,12415,12528,8398
1827.370695,13630,12325,12850,8245
1828.244682,13737,12642,12679,8340
1829.118522,13554,12502,12600,8408
1829.992215,13679,12443,12761,8354
1830.86576,13614,12406,12709,8334
1831.739157,13852,12453,12641,8375
1832.612408,13612,12530,12754,8231
1833.485511,13697,12442,12820,8386
1834.358467,13658,12394,12815,8339
1835.231275,13845,12479,12713,8451
1836.103937,13634,12323,12757,8337
1836.976451,13718,12404,12823,8381
1837.848818,13623,12322,12596,8333
1838.721038,13636,12508,12736,8369
1839.593111,13585,12470,12878,8288
1840.465037,13605,12409,12948,8318
1841.336816,13665,12523,12783,8536
1842.208448,13631,12485,12837,8282
1843.079934,13728,12515,12819,8292
1843.951272,13666,12462,12669,8537
1844.822463,13602,12473,12679,8382
1845.693508,13536,12328,12773,8322
1846.564405,13827,12598,12781,8418
1847.435156,13733,12582,12879,8446
1848.30576,13639,12385,12697,8376
1849.176218,13521,12409,12738,8268
1850.046528,13599,12436,12594,8206
1850.916692,13568,12305,12735,8315
1851.78671,13596,12415,12898,8334
1852.656581,13659,12538,12764,8458
1853.526305,13638,12449,12839,8348
1854.395883,13653,12453,12866,8332
1855.265314,13714,12658,12747,8347
1856.134599,13566,12441,12720,8404
1857.003738,13670,12642,12775,8363
1857.87273,13617,12534,12870,8365
1858.741575,13698,12647,12867,8492
1859.610275,13777,12446,12697,8357
1860.478828,13665,12580,12798,8339
1861.347234,13583,12350,12677,8396
1862.215495,13528,12478,12896,8411
1863.083609,13644,12402,12798,8302
1863.951577,13697,12470,12861,8369
1864.819399,13927,12554,12886,8432
1865.687075,13596,12573,12952,8384
1866.554605,13542,12448,12840,8282
1867.421989,13586,12359,12844,8417
1868.289226,13603,12531,12697,8295
1869.156318,13772,12470,12892,8323
1870.023264,13731,12549,12711,8309
1870.890064,13807,12544,12903,8523
1871.756718,13676,12481,12947,8299
1872.623226,13466,12410,12735,8368
1873.489588,13619,12439,12819,8267
1874.355805,13636,12580,12741,8406
1875.221875,13621,12399,12762,8390
1876.0878,13665,12509,12891,8310
1876.95358,13691,12364,12730,8343
1877.819213,13694,12455,12813,8320
1878.684701,13722,12416,12939,8252
1879.550043,13610,12392,12816,8436
1880.41524,13649,12432,12764,8340
1881.280291,13669,12510,12795,8296
1882.145197,13717,12514,13006,8403
1883.009957,13693,12580,12877,8186
1883.874572,13517,12373,12724,8344
1884.739041,13701,12285,12798,8318
1885.603365,13502,12273,12706,8283
1886.467544,13596,12470,12755,8361
1887.331577,13611,12382,12951,8328
1888.195465,13589,12367,12887,8242
1889.059208,13685,12589,12943,8306
1889.922805,13457,12472,12886,8332
1890.786258,13580,12274,12876,8396
1891.649565,13401,12209,12535,8229
1892.512727,13657,12393,12870,8386
1893.375744,13708,12499,12892,8378
1894.238615,13623,12418,12743,8209
1895.101342,13656,12382,12783,8274
1895.963924,13488,12450,12776,8281
1896.826361,13468,12435,12826,8241
1897.688652,13467,12319,12563,8155
1898.550799,13551,12385,12542,8355
1899.412801,13533,12341,12770,8338
1900.274658,13565,12442,12623,8252
1901.136371,13528,12345,12735,8265
1901.997938,13457,12305,12667,8186
1902.859361,13438,12245,12788,8267
1903.720639,13536,12440,12721,8286
1904.581772,13453,12405,12822,8338
1905.442761,13520,12364,12873,8300
1906.303605,13570,12251,12887,8255
1907.164304,13409,12248,12786,8309
1908.024859,13481,12340,12767,8307
1908.885269,13407,12181,12645,8208
1909.745535,13574,12266,12726,8253
1910.605656,13489,12254,12710,8231
1911.465633,13649,12456,12667,8288
1912.325465,13512,12330,12765,8213
1913.185153,13478,12260,12751,8154
1914.044696,13621,12185,12596,8212
1914.904096,13369,12203,12707,8145
1915.763351,13474,12241,12614,8318
1916.622461,13479,12250,12670,8179
1917.481428,13578,12435,12782,8201
1918.34025,13493,12286,12734,8271
1919.198928,13341,12240,12709,8187
1920.057462,13502,12317,12730,8297
1920.915852,13417,12136,12704,8159
1921.774098,13275,12065,12843,8270
1922.632199,13435,12257,12756,8184
1923.490157,13556,12504,12753,8242
1924.347971,13551,12265,12803,8204
1925.20564,13459,12232,12618,8142
1926.063166,13351,12025,12424,8149
1926.920548,13389,12065,12635,8204
1927.777786,13451,12242,12755,8049
1928.63488,13584,12127,12639,8119
1929.49183,13512,12194,12615,8153
1930.348637,13349,12043,12666,8307
1931.2053,13394,12088,12669,8179
1932.061819,13349,12202,12583,8065
1932.918195,13452,12063,12605,8174
1933.774426,13353,12130,12718,8273
1934.630514,13401,12220,12715,8203
1935.486459,13640,12124,12952,8276
1936.34226,13583,12203,12801,8203
1937.197918,13446,12126,12716,8247
1938.053432,13245,12153,12689,8168
1938.908802,13435,12058,12468,8187
1939.764029,13363,12168,12752,8231
1940.619113,13423,12266,12812,8260
1941.474053,13397,12333,12783,8165
1942.32885,13414,12210,12795,8233
1943.183504,13405,12031,12870,8103
1944.038014,13397,12160,12596,8182
1944.892381,13403,12115,12542,8115
1945.746605,13443,11999,12776,8169
1946.600686,13492,12014,12799,8255
1947.454624,13580,12261,12915,8113
1948.308418,13543,12294,12701,8281
1949.162069,13542,12086,12569,8150
1950.015578,13352,12041,12779,8147
1950.868943,13254,12077,12548,8102
1951.722165,13348,12237,12867,8017
1952.575244,13510,12212,12898,8179
1953.428181,13468,12199,12823,8147
1954.280974,13406,12292,12874,8183
1955.133625,13441,12125,12861,8209
1955.986132,13319,12223,12764,8173
1956.838497,13364,12113,12878,8197
1957.690719,13462,12274,12698,8214
1958.542798,13522,12212,12796,8344
1959.394735,13536,12283,12788,8159
1960.246529,13499,12161,12692,8089
1961.09818,13366,12175,12781,7942
1961.949688,13330,12173,12674,8121
1962.801054,13460,12233,12768,8234
1963.652278,13290,12172,12895,8119
1964.503359,13576,12352,12962,8261
1965.354297,13458,12201,12725,8246
1966.205093,13233,12112,12801,8133
1967.055746,13401,12024,12723,8159
1967.906257,13371,12281,12751,8149
1968.756625,13558,12181,12709,8282
1969.606851,13469,12262,12791,8180
1970.456935,13655,12284,12929,8270
1971.306877,13599,12134,12710,8191
1972.156676,13553,12259,12833,8152
1973.006333,13310,12121,12743,8108
1973.855848,13560,12147,12895,8228
1974.70522,13414,12148,12782,8071
1975.554451,13474,12309,12923,8282
1976.403539,13598,12369,13020,8287
1977.252485,13284,12230,12945,8164
1978.101289,13580,12273,12969,8047
1978.949951,13517,12253,12788,8052
1979.798472,13356,12148,12715,8137
1980.64685,13507,12069,12672,8228
1981.495086,13437,12318,12778,8176
1982.34318,13553,12193,12893,8177
1983.191133,13499,12154,12765,8236
1984.038943,13489,12164,12705,8150
1984.886612,13538,12218,12741,8111
1985.734139,13363,12102,12855,8145
1986.581524,13377,12182,12750,8119
1987.428768,13460,12049,12864,8267
1988.275869,13568,12368,12913,8236
1989.122829,13374,12176,12775,8185
1989.969648,13436,12268,12795,8166
1990.816325,13211,12014,12811,8093
1991.66286,13276,12166,12602,8237
1992.509254,13496,12145,12884,8249
1993.355506,13335,12196,13016,8140
1994.201617,13447,12148,12960,8211
1995.047586,13478,12002,12720,8048
1995.893414,13297,12188,12667,8098
1996.7391,13362,12069,12772,8155
1997.584645,13438,12034,12705,8067
1998.430049,13366,11988,12763,8130
1999.275311,13398,12006,12725,8067
2000.120432,13444,12006,12797,8261
2000.965412,13515,12154,12805,8064
2001.810251,13352,12112,12747,8071
2002.654948,13330,11987,12699,8167
2003.499505,13298,12088,12594,7855
2004.34392,13306,11976,12919,8048
2005.188194,13404,12165,12872,8124
2006.032327,13474,12045,12815,8012
2006.876319,13236,12026,12748,8129
2007.72017,13314,12020,12737,8140
2008.56388,13317,12053,12751,8099
2009.407449,13302,11910,12851,8169
2010.250877,13206,11934,12773,8048
2011.094165,13318,12115,12838,8247
2011.937311,13482,11934,12869,8178
2012.780317,13432,12063,12815,8002
2013.623181,13270,12143,12752,7967
2014.465905,13367,11849,12818,8111
2015.308489,13274,11771,12721,7964
2016.150931,13235,12002,12811,8021
2016.993233,13383,11960,12859,8135
2017.835394,13419,12100,12606,8030
2018.677415,13291,12100,12749,8154
2019.519295,13308,11809,12544,7998
2020.361035,13060,11974,12737,8028
2021.202634,13217,12076,12735,8095
2022.044092,13311,11818,12687,7990
2022.88541,13366,11850,12723,8111
2023.726588,13272,11959,12553,8068
2024.567625,13265,11945,12647,8005
2025.408521,13375,11796,12540,8004
2026.249278,13201,11848,12576,8022
2027.089894,13260,11866,12706,8014
2027.93037,13272,12008,12605,7993
2028.770705,13331,11923,12804,8054
2029.610901,13280,11991,12810,7983
2030.450956,13195,11980,12732,8062
2031.290871,13155,11888,12692,8030
2032.130646,13291,11760,12803,8019
2032.97028,13081,11827,12664,8017
2033.809775,13268,11984,12682,8075
2034.649129,13219,11871,12756,7926
2035.488344,13222,12051,12500,8055
2036.327418,13248,11919,12759,8019
2037.166353,13104,11952,12661,7961
2038.005148,13276,11843,12747,7895
2038.843802,13257,11857,12645,7939
2039.682317,13250,11922,12760,7995
2040.520692,13218,11972,12627,8006
2041.358928,13126,12099,12627,7966
2042.197023,13345,12002,12714,7975
2043.034979,13326,11830,12709,8038
2043.872795,13002,11752,12607,7975
2044.710471,13199,11961,12684,7982
2045.548008,13270,11843,12823,8077
2046.385405,13097,12014,12876,8076
2047.222662,13255,12061,12802,8012
2048.05978,13188,11992,12785,7935
2048.896758,13123,11825,12754,7895
2049.733597,13086,11756,12698,7926
2050.570296,13152,11804,12644,7896
2051.406856,13269,11913,12722,8016
2052.243276,13330,11966,12702,8019
2053.079557,13207,11858,12931,7880
2053.915698,13225,11932,12707,8039
2054.751701,13249,11809,12960,8005
2055.587564,13199,11996,12674,7991
2056.423287,13021,11822,12684,7968
2057.258872,13303,11857,12763,8052
2058.094317,13149,11770,12703,8030
2058.929623,13343,11828,12720,7979
2059.764789,13122,11894,12752,7999
2060.599817,13361,11900,12703,8001
2061.434706,13077,11934,12731,7971
2062.269455,13196,11933,12793,7950
2063.104066,13286,11868,12706,7969
2063.938537,13312,11956,12857,8051
2064.772869,13304,11853,12845,8047
2065.607063,13402,11932,12752,7965
2066.441117,13371,11980,12790,8026
2067.275033,13202,11972,12887,8008
2068.10881,13293,11818,12773,7916
2068.942448,13347,11926,12803,8016
2069.775947,13203,12034,12779,8070
2070.609307,13485,12029,12826,7991
2071.442529,13213,11982,12815,7922
2072.275612,13157,12077,12724,8088
2073.108556,13334,11902,12880,7997
2073.941361,13279,11888,12834,8049
2074.774028,13164,11939,12813,7885
2075.606556,13428,12010,12785,7938
2076.438946,13304,11825,12898,7991
2077.271197,13401,11981,12846,7948
2078.10331,13414,11810,12900,8030
2078.935284,13385,11917,12836,7962
2079.76712,13276,11850,12765,7808
2080.598817,13213,12024,12881,7973
2081.430376,13390,12008,12845,8082
2082.261796,13377,12136,12887,8033
2083.093078,13455,12164,12875,7999
2083.924222,13223,11980,12811,8045
2084.755228,13264,11858,12880,7973
2085.586095,13166,11947,12840,7978
2086.416824,13133,11873,12887,7975
2087.247415,13375,12084,12860,7921
2088.077868,13301,11988,12934,8050
2088.908182,13424,12044,12809,7950
2089.738359,13185,11906,12773,8047
2090.568397,13245,11805,12656,7910
2091.398297,13199,11872,12701,7951
2092.22806,13252,11912,12846,8042
2093.057684,13412,11934,12960,8069
2093.88717,13437,11940,13063,8030
2094.716519,13591,11967,13040,8061
2095.545729,13124,11905,13043,7947
2096.374802,13375,11869,12920,7874
2097.203736,13257,11896,12842,7934
2098.032533,13219,11966,12906,8039
2098.861193,13442,11967,12794,7973
2099.689714,13329,12154,12940,7984
2100.518098,13211,11967,13016,7969
2101.346344,13245,11955,12931,7856
2102.174452,13251,11915,12795,7909
2103.002422,13221,11837,12759,7888
2103.830255,13104,11987,12811,7892
2104.657951,13205,11910,12978,7863
2105.485509,13268,11887,12945,7938
2106.312929,13529,11986,12895,8031
2107.140212,13187,11915,12688,7946
2107.967357,13213,11753,12879,7929
2108.794365,13221,11764,12779,7957
2109.621236,13255,11870,12806,7969
2110.447969,13308,11966,13043,7883
2111.274565,13233,11917,12979,8069
2112.101023,13150,11858,12845,7892
2112.927344,13306,11802,12857,7892
2113.753528,13206,11833,12856,7962
2114.579575,13055,11810,12724,7868
2115.405484,13200,11910,12866,7911
2116.231257,13220,11848,13052,7988
2117.056892,13326,11846,12859,7981
2117.88239,13278,11830,12988,7946
2118.707751,13114,11915,12827,7900
2119.532975,13128,11751,12732,7904
2120.358061,13013,11718,12669,7943
2121.183011,13138,11787,12955,8014
2122.007824,13223,11801,12767,7892
2122.8325,13356,11873,12969,7860
2123.657039,13202,11934,12805,7981
2124.481441,13329,11942,12954,7977
2125.305706,13058,11813,12946,8015
2126.129834,13184,11926,12924,7765
2126.953826,13173,11851,12789,7895
2127.777681,13314,11806,12822,7914
2128.601399,13346,11841,12824,7997
2129.42498,13416,11925,12995,8025
2130.248425,13371,11755,12786,8070
2131.071732,13130,11838,12634,7759
2131.894904,13022,11621,12874,7807
2132.717938,13038,11712,12837,7856
2133.540837,13154,11911,12922,8017
2134.363598,13234,11809,12878,8123
2135.186223,13283,11923,12856,7858
2136.008712,13096,11720,12927,7889
2136.831064,13179,11773,12802,7828
2137.653279,13107,11812,12730,7882
2138.475359,13085,11636,12773,7954
2139.297302,13134,11819,12840,7912
2140.119108,13092,11745,12805,7935
2140.940778,13202,11772,12946,7923
2141.762312,13237,11684,12980,7912
2142.58371,13224,11771,12844,7946
2143.404971,13240,11795,12749,7881
2144.226097,13172,11779,12843,7824
2145.047086,13084,11834,12949,7887
2145.867938,13146,11764,12858,7939
2146.688655,13249,11810,13012,7772
2147.509236,13200,11652,12802,7939
2148.329681,13093,11722,12924,7821
2149.149989,13168,11766,12799,7882
2149.970162,13228,11732,12848,7911
2150.790198,13259,11676,12914,7829
2151.610099,13132,11917,12813,7885
2152.429864,13250,11884,13101,7942
2153.249493,13125,11634,13087,7885
2154.068986,13191,11876,12914,7857
2154.888343,13108,11727,12904,7918
2155.707564,13095,11516,13025,7863
2156.52665,13065,11632,12935,7816
2157.345599,12984,11717,12887,7810
2158.164414,13259,11728,12877,7879
2158.983092,13143,11812,12830,7884
2159.801635,13153,11815,12930,7865
2160.620042,13140,11720,12936,7776
2161.438313,13169,11725,12811,7837
2162.256449,13219,11831,12869,7826
2163.07445,13105,11811,13052,7869
2163.892314,13207,11933,13049,7960
2164.710044,13129,11859,13058,7855
2165.527638,13311,11743,12894,7946
2166.345096,12982,11608,13039,7946
2167.162419,13070,11512,12829,7818
2167.979607,13135,11783,12785,7707
2168.796659,13306,11725,13087,7821
2169.613576,13277,11881,12861,7989
2170.430358,13309,11858,13043,7922
2171.247004,13350,11830,12751,7953
2172.063516,13127,11765,12973,7925
2172.879892,13279,11791,12809,7860
2173.696132,13242,11668,12958,7862
2174.512238,13196,11719,12848,7723
2175.328208,13372,11699,12952,7926
2176.144044,13259,11751,12936,7995
2176.959744,13169,11808,12896,8052
2177.77531,13158,11626,12948,7794
2178.59074,13133,11710,12823,7890
2179.406035,13265,11804,12926,7838
2180.221196,13209,11848,13041,7773
2181.036221,13285,11831,12926,7998
2181.851112,13399,11808,12943,7962
2182.665867,13162,11798,12893,7873
2183.480488,13239,11787,13024,7906
2184.294974,13102,11865,12974,7900
2185.109325,13216,11784,12940,7934
2185.923542,13106,11779,13021,7886
2186.737623,13225,11868,13172,8009
2187.55157,13347,11887,13053,7871
2188.365383,13232,11907,13076,7943
2189.179061,13332,11802,12987,7907
2189.992604,13286,11894,13001,7988
2190.806012,13336,11748,13036,7984
2191.619286,13298,11981,13105,8070
2192.432425,13316,11877,13054,8007
2193.24543,13439,11842,13057,7855
2194.058301,13430,11894,13151,8081
2194.871037,13382,11941,13139,7929
2195.683638,13276,11869,13169,7972
2196.496105,13164,11824,13101,7971
2197.308438,13445,11875,13170,7977
2198.120637,13327,11844,13015,7921
2198.932701,13242,11895,13312,8043
2199.744631,13380,12021,13184,8057
2200.556426,13243,11859,13115,7852
2201.368088,13308,11831,13164,7835
2202.179615,13255,11765,13169,7897
2202.991008,13233,11890,12983,7896
2203.802267,13295,11722,13086,7891
2204.613392,13430,11793,13049,7961
2205.424382,13351,11898,13190,7904
2206.235239,13279,12011,13228,7960
2207.045961,13203,11905,13071,7986
2207.85655,13229,11784,13084,7877
2208.667005,13329,11808,13101,7698
2209.477325,13223,11768,13231,7914
2210.287512,13354,11930,13002,8040
2211.097565,13217,11860,13218,7873
2211.907484,13322,11890,13096,7970
2212.717269,13365,11937,13131,7820
2213.52692,13439,11831,12939,7966
2214.336438,13224,11878,13119,7954
2215.145822,13290,11798,13074,7899
2215.955072,13413,11829,13148,7875
2216.764188,13336,11777,13228,7895
2217.573171,13421,11759,13280,7854
2218.38202,13316,11787,13172,7953
2219.190736,13373,11778,12998,7785
2219.999318,13312,11762,13038,7876
2220.807766,13074,11820,13060,7825
2221.616081,13265,11773,13205,7819
2222.424262,13374,11868,13053,7849
2223.23231,13386,11766,13147,7840
2224.040224,13389,11877,13082,7860
2224.848005,13146,11793,12997,7953
2225.655653,13284,11802,12813,7915
2226.463167,13141,11723,13040,7922
2227.270548,13136,11702,13069,7923
2228.077796,13272,11866,13069,7764
2228.88491,13342,11780,13110,7882
2229.691891,13329,11688,13076,8007
2230.498739,13207,11677,13112,8034
2231.305454,13181,11640,13016,7775
2232.112035,13144,11605,13138,7774
2232.918484,13199,11665,12916,7842
2233.724799,13395,11712,13067,7818
2234.530981,13359,11831,13019,7791
2235.33703,13357,11983,13052,7897
2236.142946,13330,11803,13084,7830
2236.948729,13208,11812,13105,7827
2237.754379,13316,11703,12974,7765
2238.559896,13094,11647,13003,7853
2239.365281,13307,11825,12979,7757
2240.170532,13306,11907,12901,7846
2240.97565,13262,11713,13138,7930
2241.780636,13189,11721,13167,7733
2242.585489,13270,11752,13087,7736
2243.390209,13124,11599,12897,7743
2244.194796,13049,11710,12914,7727
2244.999251,13256,11664,13025,7798
2245.803573,13162,11949,12952,7890
2246.607762,13266,11755,13033,7828
2247.411818,13212,11707,13144,7759
2248.215742,13031,11686,12881,7672
2249.019534,13122,11646,13098,7862
2249.823192,13065,11703,13041,7693
2250.626719,13163,11683,13061,7724
2251.430112,13205,11599,12979,7831
2252.233374,13206,11582,13184,7839
2253.036502,13169,11797,13227,7761
2253.839499,13123,11738,13025,7814
2254.642363,13223,11732,13053,7698
2255.445094,13132,11618,13001,7786
2256.247694,13128,11599,13051,7775
2257.050161,13219,11594,13124,7922
2257.852495,13358,11685,13123,7976
2258.654698,13503,11751,13182,7877
2259.456768,13282,11817,13348,7729
2260.258706,13062,11801,13051,7769
2261.060512,12960,11665,13041,7843
2261.862186,13217,11523,13070,7802
