#Wave,#Intensity1,#Intensity2,#Intensity4
352.8078093,9011,9013,7948
353.9410787,9049,9186,8065
355.0741405,8967,9089,7907
356.2069948,9012,9002,8056
357.3396415,9044,9008,7894
358.4720807,9088,9130,7993
359.6043126,9136,9112,7956
360.736337,9113,9038,8090
361.8681541,9126,9099,8154
362.999764,9226,9182,8027
364.1311666,9107,9161,8189
365.2623621,9223,9211,8164
366.3933504,9191,9118,8210
367.5241317,9119,9260,8061
368.654706,9226,9148,8147
369.7850733,9415,9195,8186
370.9152337,9259,9210,8227
372.0451872,9190,9321,8244
373.1749339,9324,9254,8102
374.3044739,9270,9273,8112
375.4338072,9222,9381,8176
376.5629338,9271,9315,8261
377.6918537,9399,9469,8297
378.8205672,9331,9387,8319
379.9490741,9390,9354,8389
381.0773746,9403,9439,8251
382.2054687,9434,9428,8381
383.3333564,9496,9453,8422
384.4610378,9460,9358,8339
385.588513,9363,9554,8254
386.7157819,9518,9365,8454
387.8428447,9554,9434,8269
388.9697015,9454,9447,8389
390.0963521,9513,9552,8352
391.2227968,9488,9405,8264
392.3490355,9482,9465,8417
393.4750684,9419,9438,8382
394.6008954,9444,9529,8369
395.7265166,9557,9458,8513
396.851932,9545,9367,8207
397.9771418,9487,9324,8354
399.1021459,9456,9423,8344
400.2269444,9513,9423,8370
401.3515374,9551,9522,8265
402.4759249,9513,9427,8308
403.6001069,9457,9387,8359
404.7240836,9515,9375,8313
405.8478549,9547,9462,8374
406.9714209,9569,9438,8288
408.0947817,9579,9451,8289
409.2179373,9436,9452,8423
410.3408878,9398,9515,8390
411.4636332,9451,9501,8366
412.5861735,9521,9504,8280
413.7085089,9499,9441,8318
414.8306393,9431,9481,8331
415.9525649,9634,9343,8414
417.0742856,9473,9441,8444
418.1958015,9521,9560,8414
419.3171127,9587,9537,8479
420.4382192,9583,9598,8293
421.559121,9655,9607,8384
422.6798183,9669,9603,8410
423.8003111,9667,9662,8380
424.9205993,9481,9532,8416
426.0406832,9696,9624,8427
427.1605626,9556,9629,8484
428.2802377,9595,9574,8488
429.3997085,9716,9699,8484
430.5189751,9811,9713,8639
431.6380376,9730,9652,8449
432.7568959,9736,9740,8560
433.8755501,9745,9721,8554
434.9940002,9762,9688,8497
436.1122464,9636,9692,8661
437.2302887,9653,9629,8634
438.348127,9810,9704,8568
439.4657616,9818,9655,8665
440.5831923,10000,9702,8639
441.7004194,9834,9897,8527
442.8174427,9869,9877,8649
443.9342624,9829,9720,8671
445.0508786,10033,9785,8687
446.1672912,9965,9815,8634
447.2835003,9988,9734,8756
448.399506,9882,9773,8594
449.5153083,9995,9773,8670
450.6309072,9941,9772,8686
451.7463029,10034,9818,8618
452.8614954,9997,9946,8606
453.9764846,10029,9787,8799
455.0912707,9819,9723,8517
456.2058538,9819.500228,9787,8729
457.3202338,9820.000364,9752,8718
458.4344108,9820.50041,9943,8762
459.5483849,9821.000364,9823,8741
460.6621561,9821.500228,9879,8765
461.7757245,9822,9797,8701
462.8890901,10013,10034,8666
464.0022529,9906,9805,8800
465.1152131,9989,9931,8730
466.2279706,9972,9961,8759
467.3405255,9961,9945,8725
468.4528779,9956,9788,8711
469.5650278,9971,9837,8728
470.6769753,9998,9899,8803
471.7887204,10042,9967,8852
472.9002631,10000,9749,8844
474.0116036,9962,9863,8849
475.1227418,9941,9930,8766
476.2336778,10116,9953,8832
477.3444117,10075,9976,8784
478.4549434,9983,9970,8748
479.5652732,10066,9931,8723
480.6754009,10141,9945,8957
481.7853267,10128,10038,8937
482.8950506,10098,9966,8843
484.0045727,10239,10004,8996
485.1138929,10190,10037,8806
486.2230114,10120,10119,8815.001637
487.3319282,10205,10190,8824.001637
488.4406434,10229,10210,8833
489.549157,10077,10061,8881
490.657469,10227,10035,8901
491.7655795,10259,10181,8858
492.8734885,10365,10161,8837
493.9811962,10280,10151,8978
495.0887025,10283,10141,8933
496.1960075,10200,10157,8923
497.3031112,10247,10108,8965
498.4100137,10259,10142,8973
499.5167151,10285,10314,8999
500.6232154,10332,10296,9070
501.7295146,10276,10289,9039
502.8356128,10217,10139,8955
503.94151,10368,10264,9042
505.0472063,10398,10323,9069
506.1527018,10308,10217,9076
507.2579964,10459,10268,8969
508.3630903,10212,10263,8967
509.4679835,10407,10187,9103
510.572676,10423,10315,9149
511.6771678,10441,10386,9137
512.7814591,10456,10362,9057
513.8855499,10453,10191,9142
514.9894402,10538,10370,9140
516.0931301,10413,10420,9113
517.1966197,10427,10269,9169
518.2999088,10423,10184,9035
519.4029978,10454,10275,9059
520.5058864,10462,10296,8993
521.6085749,10483,10338,9140
522.7110633,10539,10389,9180
523.8133516,10441,10207,9159
524.9154399,10454,10271,9127
526.0173282,10483,10220,9090
527.1190165,10394,10217,9117
528.2205049,10407,10335,9170
529.3217936,10398,10301,9094
530.4228824,10447,10260,9131
531.5237715,10427,10280,9107
532.6244609,10317,10189,9196
533.7249506,10485,10280,9047
534.8252408,10418,10253,9096
535.9253314,10535,10314,9159
537.0252225,10566,10383,9106
538.1249141,10497,10336,9191
539.2244064,10461,10452,9238
540.3236993,10512,10388,9167
541.4227929,10519,10305,9221
542.5216873,10450,10363,9134
543.6203824,10604,10312,9218
544.7188784,10478,10407,9266
545.8171752,10498,10374,9187
546.915273,10694,10375,9203
548.0131718,10650,10485,9234
549.1108717,10464,10361,9185
550.2083726,10608,10465,9187
551.3056746,10580,10512,9314
552.4027778,10644,10389,9179
553.4996823,10560,10483,9324
554.596388,10564,10430,9211
555.6928951,10657,10370,9237
556.7892035,10616,10621,9228
557.8853133,10733,10500,9278
558.9812246,10700,10535,9212
560.0769375,10531,10474,9344
561.1724519,10639,10519,9266
562.2677679,10735,10491,9244
563.3628856,10676,10762,9437
564.4578049,10841,10472,9400
565.5525261,10766,10631,9560
566.647049,10921,10631,9268
567.7413738,10764,10584,9431
568.8355005,10863,10503,9374
569.9294292,10825,10752,9357
571.0231598,10774,10741,9587
572.1166925,10865,10714,9375
573.2100273,10983,10784,9457
574.3031643,10833,10806,9541
575.3961034,10914,10890,9484
576.4888447,10924,10642,9437
577.5813884,10914,10729,9569
578.6737344,10801,10667,9320
579.7658827,10954,10647,9577
580.8578335,10759,10728,9555
581.9495868,10907,10876,9469
583.0411426,11075,10897,9371
584.132501,10933,10629,9602
585.223662,10942,10713,9322
586.3146257,10980,10793,9567
587.405392,10955,10756,9499
588.4959612,10927,10665,9585
589.5863331,10815,10631,9546
590.676508,11033,10820,9501
591.7664857,11031,10844,9583
592.8562664,11016,10930,9581
593.9458501,11001,10854,9562
595.0352368,11055,10757,9579
596.1244266,10935,10787,9612
597.2134196,11165,10921,9557
598.3022158,11097,10912,9765
599.3908152,11065,10905,9557
600.4792179,10955,10886,9627
601.567424,10943,10664,9620
602.6554334,10868,10883,9536
603.7432463,11091,10895,9663
604.8308626,11086,10801,9615
605.9182825,11026,10932,9570
607.005506,10940,10872,9544
608.092533,10822,10955,9570
609.1793638,11040,10882,9712
610.2659982,11082,10878,9628
611.3524364,11042,10812,9513
612.4386785,10919,10940,9655
613.5247244,11014,10943,9553
614.6105742,11005,10751,9613
615.6962279,11084,10849,9656
616.7816857,11131,10899,9615
617.8669475,11021,10974,9624
618.9520134,11012,10693,9639
620.0368834,10968,10941,9628
621.1215577,11091,11010,9661
622.2060361,11231,10924,9626
623.2903189,11226,11038,9782
624.374406,11007,10929,9619
625.4582975,11013,10926,9716
626.5419934,11154,10988,9781
627.6254937,11234,11064,9663
628.7087986,11098,10976,9686
629.7919081,11187,10977,9757
630.8748222,11143,10998,9691
631.9575409,11033,10982,9848
633.0400644,11212,11065,9684
634.1223926,11240,11092,9773
635.2045256,11232,11043,9800
636.2864635,11267,11159,9871
637.3682063,11243,11146,9985
638.449754,11251,11317,9943
639.5311067,11362,11170,9833
640.6122644,11355,11057,9890
641.6932273,11384,11093,9828
642.7739952,11396,11118,9900
643.8545684,11277,11070,9924
644.9349467,11383,11221,9875
646.0151304,11269,11244,9891
647.0951194,11454,11281,9985
648.1749137,11522,11276,9864
649.2545135,11269,11138,9943
650.3339187,11399,11307,9933
651.4131294,11349,11245,9917
652.4921457,11452,11279,10041
653.5709676,11389,11205,9844
654.6495951,11257,11171,9881
655.7280284,11408,11206,10001
656.8062674,11579,11234,9929
657.8843121,11442,11355,10008
658.9621627,11473,11344,10000
660.0398192,11508,11298,9929
661.1172816,11447,11320,9894
662.19455,11464,11282,10188
663.2716245,11339,11351,10049
664.348505,11516,11245,9923
665.4251916,11492,11277,9948
666.5016843,11437,11196,9925
667.5779833,11484,11334,9869
668.6540886,11461,11238,10031
669.7300001,11651,11246,10097
670.805718,11592,11232,10049
671.8812423,11465,11351,10036
672.956573,11355,11326,9936
674.0317103,11503,11371,9990
675.106654,11483,11209,9987
676.1814044,11640,11409,9955
677.2559614,11429,11197,9932
678.330325,11487,11275,10050
679.4044954,11316,11423,10018
680.4784725,11509,11440,9894
681.5522565,11398,11312,9994
682.6258473,11379,11418,9942
683.6992451,11422,11147,9944
684.7724497,11405,11224,9987
685.8454614,11494,11218,10184
686.9182802,11460,11326,9959
687.990906,11413,11236,9941
689.063339,11447,11257,10035
690.1355791,11592,11282,9932
691.2076265,11384,11156,9933
692.2794812,11536,11196,9964
693.3511432,11695,11345,9944
694.4226125,11580,11271,10054
695.4938893,11575,11241,10033
696.5649736,11570,11215,10094
697.6358653,11548,11344,9911
698.7065646,11715,11416,10151
699.7770715,11509,11308,10059
700.8473861,11789,11280,10133
701.9175084,11527,11422,10086
702.9874384,11523,11523,10216
704.0571762,11729,11407,10017
705.1267218,11655,11330,10084
706.1960753,11759,11423,10043
707.2652367,11578,11284,10052
708.3342061,11648,11463,10075
709.4029835,11680,11431,10145
710.471569,11740,11595,10204
711.5399626,11825,11425,10147
712.6081643,11749,11552,10151
713.6761743,11914,11418,10098
714.7439925,11643,11519,10233
715.811619,11618,11454,10177
716.8790538,11774,11536,10348
717.946297,11946,11570,10224
719.0133487,11865,11638,10223
720.0802088,11766,11652,10298
721.1468774,11764,11609,10204
722.2133546,12073,11639,10287
723.2796405,12024,11783,10353
724.345735,11873,11647,10329
725.4116381,11959,11593,10338
726.4773501,12059,11671,10263
727.5428708,11843,11779,10354
728.6082004,11928,11748,10229
729.6733389,11920,11828,10296
730.7382863,11798,11754,10453
731.8030427,11998,11723,10227
732.8676081,11819,11728,10480
733.9319826,12081,11711,10378
734.9961663,12000,11726,10437
736.060159,12115,11655,10510
737.123961,11894,11639,10436
738.1875723,11898,11698,10543
739.2509928,11955,11881,10446
740.3142227,11982,11915,10463
741.377262,11974,11758,10479
742.4401107,12057,11677,10389
743.5027689,12071,11734,10402
744.5652366,12088,11708,10585
745.6275139,12104,11671,10528
746.6896009,12116,11790,10461
747.7514974,11998,11692,10398
748.8132038,12005,11672,10366
749.8747198,12124,11724,10449
750.9360457,12001,11722,10460
751.9971814,12180,11929,10532
753.058127,12010,11716,10404
754.1188825,11954,11831,10457
755.179448,12016,11743,10295
756.2398236,11993,11703,10485
757.3000092,12002,11755,10404
758.3600049,12047,11744,10491
759.4198108,12068,11816,10462
760.479427,11947,11835,10418
761.5388533,12207,11866,10437
762.59809,12005,11757,10360
763.657137,12168,11805,10513
764.7159944,12076,11719,10353
765.7746623,11891,11699,10473
766.8331406,11811,11707,10508
767.8914295,11932,11836,10513
768.9495289,12070,11772,10577
770.0074389,12030,11906,10498
771.0651596,11762,11737,10406
772.122691,12059,11651,10320
773.1800332,11927,11702,10404
774.2371862,12039,11899,10487
775.29415,12106,11930,10538
776.3509247,12156,11966,10492
777.4075103,12011,11830,10378
778.4639069,12082,11826,10537
779.5201145,12010,11714,10539
780.5761332,12176,11893,10515
781.6319631,12162,11752,10515
782.687604,11988,11806,10450
783.7430562,11954,11702,10537
784.7983196,12179,11768,10616
785.8533943,12108,11995,10516
786.9082804,12263,11905,10549
787.9629778,12181,11840,10529
789.0174867,12065,11878,10571
790.071807,12122,11936,10569
791.1259389,12279,11914,10767
792.1798823,12335,12055,10635
793.2336373,12235,11982,10581
794.287204,12094,11930,10563
795.3405824,12145,11918,10671
796.3937725,12265,11975,10710
797.4467744,12227,12007,10698
798.4995882,12186,11952,10580
799.5522138,12272,12001,10806
800.6046513,12332,12132,10715
801.6569008,12387,11997,10518
802.7089623,12275,12014,10676
803.7608359,12324,11998,10906
804.8125216,12302,12119,10800
805.8640194,12392,12160,10868
806.9153294,12247,12090,10752
807.9664516,12271,12000,10833
809.0173861,12403,12078,10861
810.068133,12662,12363,10933
811.1186922,12572,12082,10767
812.1690638,12402,12129,10803
813.2192479,12391,12216,10887
814.2692445,12440,12240,10886
815.3190536,12457,12157,10832
816.3686753,12498,12118,10894
817.4181097,12415,12054,10782
818.4673567,12276,12246,10919
819.5164165,12549,12222,10856
820.565289,12548,12259,10857
821.6139743,12560,12228,10890
822.6624725,12629,12150,10806
823.7107836,12496,12296,10809
824.7589077,12494,12142,10852
825.8068447,12532,12337,10901
826.8545948,12548,12232,10858
827.902158,12545,12288,10923
828.9495342,12543,12171,10876
829.9967237,12569,12101,10883
831.0437263,12593,12079,10922
832.0905423,12520,12187,10931
833.1371715,12445,12044,10882
834.1836141,12448,12165,10938
835.22987,12528,12357,10914
836.2759394,12457,12193,10783
837.3218223,12613,12206,10758
838.3675187,12372,12217,11010
839.4130286,12557,12000,10820
840.4583522,12553,12278,10916
841.5034894,12469,12130,10808
842.5484404,12377,12110,10832
843.593205,12497,12022,10935
844.6377835,12455,12239,10948
845.6821758,12472,12114,10950
846.726382,12365,12153,10812
847.770402,12459,12217,10857
848.8142361,12472,12107,10854
849.8578842,12637,12189,10911
850.9013463,12481,12147,10875
851.9446225,12563,12192,10961
852.9877128,12436,12127,10941
854.0306174,12401,12090,10836
855.0733362,12532,12223,10748
856.1158692,12518,12205,10898
857.1582166,12515,12127,10987
858.2003783,12586,12225,10780
859.2423544,12549,12087,10983
860.284145,12369,12391,10959
861.32575,12584,12215,10819
862.3671696,12535,12335,10909
863.4084038,12472,12198,10939
864.4494526,12447,12278,10978
865.4903161,12437,12143,10914
866.5309943,12484,12126,10835
867.5714872,12570,12237,10936
868.611795,12616,12193,11009
869.6519176,12626,12291,11161
870.691855,12636,12331,11026
871.7316074,12629,12208,10879
872.7711748,12529,12152,10897
873.8105572,12709,12274,11019
874.8497547,12550,12431,10937
875.8887672,12740,12457,11043
876.9275949,12478,12281,11065
877.9662379,12705,12287,10964
879.004696,12643,12343,11094
880.0429694,12770,12235,10983
881.0810582,12638,12381,11072
882.1189623,12846,12338,11233
883.1566818,12757,12297,11118
884.1942168,12813,12387,11289
885.2315673,12815,12387,11166
886.2687333,12805,12391,11229
887.305715,12829,12365,11223
888.3425122,12901,12397,11232
889.3791251,12708,12483,11259
890.4155537,12770,12669,11218
891.4517981,12887,12637,11196
892.4878583,12874,12376,11152
893.5237344,13023,12561,11039
894.5594263,12600,12380,11130
895.5949342,12838,12457,11226
896.630258,12953,12520,11330
897.6653979,12994,12616,11420
898.7003538,13004,12487,11339
899.7351259,12822,12500,11231
900.7697141,12847,12532,11184
901.8041185,12949,12665,11184
902.8383391,12932,12493,11245
903.872376,12984,12688,11390
904.9062292,12869,12484,11384
905.9398988,12832,12581,11315
906.9733848,12796,12543,11163
908.0066873,12917,12519,11400
909.0398063,13061,12605,11324
910.0727418,13060,12620,11228
911.1054938,12957,12597,11103
912.1380626,12752,12579,11286
913.1704479,12869,12574,11216
914.20265,12836,12496,11207
915.2346689,12885,12577,11328
916.2665045,12958,12584,11295
917.298157,12952,12542,11208
918.3296264,12841,12447,11247
919.3609127,12849,12548,11202
920.392016,13047,12678,11179
921.4229363,12978,12491,11458
922.4536737,12923,12643,11311
923.4842282,12911,12389,11301
924.5145998,12925,12517,11244
925.5447886,12980,12543,11289
926.5747946,12966,12542,11261
927.6046179,12974,12673,11255
928.6342585,12869,12586,11177
929.6637165,12771,12405,11168
930.6929919,12834,12441,11261
931.7220847,12914,12363,11227
932.750995,12948,12670,11215
933.7797229,12954,12561,11230
934.8082683,12842,12573,11210
935.8366314,12768,12550,11297
936.8648121,12711,12602,11259
937.8928105,12805,12550,11131
938.9206266,12863,12766,11296
939.9482606,12825,12468,11123
940.9757123,12887,12386,11180
942.002982,12893,12627,11092
943.0300696,12869,12464,11093
944.0569751,12923,12605,11228
945.0836986,12992,12521,11281
946.1102402,12800,12494,11287
947.1365999,13012,12581,11338
948.1627777,12955,12460,11235
949.1887736,12846,12544,11345
950.2145878,12988,12589,11341
951.2402203,13119,12667,11171
952.265671,12965,12510,11158
953.2909401,12823,12604,11273
954.3160276,12987,12597,11332
955.3409335,12911,12521,11275
956.3656579,12887,12588,11274
957.3902008,12935,12586,11351
958.4145623,12842,12735,11345
959.4387423,12877,12573,11366
960.462741,12884,12674,11262
961.4865584,13100,12614,11398
962.5101945,13158,12590,11407
963.5336494,12996,12771,11263
964.5569231,13223,12781,11335
965.5800157,13114,12583,11526
966.6029272,13179,12742,11352
967.6256576,13188,12902,11457
968.6482069,13021,12754,11493
969.6705754,13282,12589,11439
970.6927628,13170,12751,11334
971.7147694,13079,12610,11534
972.7365952,13134,12634,11436
973.7582401,13397,12844,11438
974.7797043,13315,12754,11503
975.8009877,13045,12708,11469
976.8220905,13239,12739,11524
977.8430127,13286,12734,11697
978.8637542,13180,12897,11627
979.8843152,13418,12710,11673
980.9046957,13340,12764,11614
981.9248957,13272,12819,11537
982.9449153,13218,12741,11483
983.9647546,13242,12825,11701
984.9844134,13404,12825,11516
986.003892,13379,12948,11668
987.0231904,13354,12971,11626
988.0423085,13141,12724,11686
989.0612464,13248,12892,11650
990.0800042,13364,12979,11514
991.098582,13388,12939,11739
992.1169797,13371,12906,11516
993.1351974,13263,13019,11698
994.1532351,13338,13004,11606
995.1710929,13296,12962,11744
996.1887708,13320,12828,11784
997.2062689,13547,12771,11711
998.2235873,13387,12811,11733
999.2407258,13358,12957,11761
1000.257685,13398,13031,11464
1001.274464,13317,13040,11643
1002.291063,13461,13108,11714
1003.307483,13427,12850,11743
1004.323724,13280,12952,11652
1005.339785,13244,13070,11682
1006.355666,13389,12815,11801
1007.371368,13188,12957,11636
1008.386891,13236,12938,11635
1009.402235,13227,12908,11736
1010.417399,13474,12872,11657
1011.432383,13371,12834,11545
1012.447189,13314,12834,11627
1013.461816,13418,12875,11635
1014.476263,13260,12898,11595
1015.490531,13282,13017,11559
1016.504621,13313,12865,11633
1017.518531,13248,12757,11617
1018.532262,13258,12754,11493
1019.545814,13401,12844,11724
1020.559188,13317,12904,11740
1021.572383,13291,12917,11649
1022.585399,13266,12859,11783
1023.598236,13034,12699,11691
1024.610894,13178,12716,11669
1025.623374,13278,12773,11420
1026.635675,13311,12826,11731
1027.647798,13234,12815,11626
1028.659742,13402,12704,11573
1029.671508,13315,12880,11545
1030.683095,13309,12853,11754
1031.694503,13252,12738,11775
1032.705734,13174,12876,11518
1033.716786,13254,13014,11706
1034.72766,13229,12802,11639
1035.738355,13316,12611,11569
1036.748872,13233,12797,11593
1037.759211,13289,13077,11738
1038.769372,13430,12820,11849
1039.779355,13323,12893,11534
1040.78916,13144,12752,11596
1041.798787,13445,12991,11679
1042.808236,13259,12872,11789
1043.817507,13393,12903,11714
1044.8266,13308,12997,11842
1045.835516,13211,12922,11647
1046.844253,13241,12910,11696
1047.852813,13243,12851,11791
1048.861195,13472,12950,11803
1049.8694,13318,12799,11960
1050.877426,13443,12971,11697
1051.885276,13505,12974,11792
1052.892947,13338,12938,11811
1053.900442,13523,13043,11817
1054.907758,13532,13093,11795
1055.914898,13537,13052,11701
1056.92186,13496,13227,11805
1057.928644,13497,13045,11769
1058.935251,13434,12954,11862
1059.941682,13555,13191,11922
1060.947934,13687,13150,12016
1061.95401,13697,13207,11907
1062.959909,13591,13017,11927
1063.96563,13671,13230,11977
1064.971175,13598,13317,12132
1065.976542,13658,13295,12092
1066.981733,13802,13448,12120
1067.986746,13852,13637,12255
1068.991583,14069,13637,12211
1069.996243,14086.13555,13792,12096
1071.000726,14103.26808,13871,12275
1072.005032,14120.3976,13913,12475
1073.009161,14137.52411,14066,12467
1074.013114,14154.6476,14030,12446
1075.016891,14171.76808,14086,12448
1076.02049,14188.88554,14110,12554
1077.023913,14206,13940,12543
1078.02716,14200,14146,12528
1079.03023,14381,14067,12569
1080.033124,14128,13882,12501
1081.035841,14119,13925,12481
1082.038382,13957,13770,12304
1083.040747,14047,13683,12311
1084.042935,13898,13769,12102
1085.044947,13984,13537,12097
1086.046783,13759,13392,12204
1087.048443,13820,13251,12184
1088.049927,13807,13297,11951
1089.051235,13728,13385,12099
1090.052366,13803,13302,12153
1091.053322,13765,13277,12119
1092.054102,13663,13276,12228
1093.054706,13878,13115,12065
1094.055134,13667,13104,11962
1095.055386,13610,13384,11927
1096.055462,13668,13212,11907
1097.055363,13658,13356,12072
1098.055088,13639,13128,12135
1099.054637,13709,13251,11990
1100.054011,13651,13234,11906
1101.053209,13755,13145,11956
1102.052232,13665,13140,12096
1103.051079,13600,13162,12088
1104.049751,13659,13252,12017
1105.048247,13395,13019,11894
1106.046568,13507,13096,11936
1107.044714,13621,13077,11859
1108.042684,13557,13109,11844
1109.040479,13527,13376,12071
1110.038099,13612,13013,11800
1111.035544,13637,13032,11984
1112.032813,13461,13101,12025
1113.029908,13536,13058,11984
1114.026827,13621,13154,11979
1115.023571,13772,13032,11884
1116.020141,13708,13158,11899
1117.016536,13651,13008,11893
1118.012755,13587,13182,11856
1119.0088,13678,12983,12123
1120.00467,13526,13249,11795
1121.000365,13564,13191,12060
1121.995886,13460,13190,11914
1122.991232,13483,13048,11911
1123.986403,13607,13155,11821
1124.9814,13510,13033,11856
1125.976222,13669,13283,11964
1126.970869,13726,13157,12080
1127.965342,13705,13102,11965
1128.959641,13653,13005,12014
1129.953765,13799,13184,12134
1130.947715,13772,13435,12135
1131.941491,13884,13427,12214
1132.935092,13903,13366,12046
1133.928519,13902,13523,12176
1134.921772,13747,13592,12316
1135.914851,13799,13796,12131
1136.907756,14172,13810,12364
1137.900486,14198,13995,12531
1138.893043,14148,13936,12500
1139.885425,13967,14006,12655
1140.877634,14148,14214,12581
1141.869668,14160,14086,12594
1142.861529,14147,14388,12587
1143.853216,14259,14289,12491
1144.844729,14202,14430,12509
1145.836069,14194,14198,12533
1146.827234,14043,14034,12339
1147.818227,14215,14098,12448
1148.809045,13987,14111,12394
1149.79969,14025,14028,12475
1150.790161,13961,13767,12424
1151.780459,14089,13651,12231
1152.770583,13812,13674,12094
1153.760534,13814,13581,12268
1154.750311,13862,13538,12278
1155.739915,13842,13620,12152
1156.729346,13944,13640,12207
1157.718604,13898,13389,12068
1158.707688,13797,13403,12177
1159.696599,13858,13344,12190
1160.685337,13813,13399,12220
1161.673902,13764,13460,12298
1162.662294,13840,13453,12323
1163.650512,13807,13367,12219
1164.638558,13857,13273,12223
1165.626431,13729,13391,12203
1166.614131,14114,13411,12146
1167.601658,13830,13311,12093
1168.589012,13964,13362,12342
1169.576193,13855,13246,12268
1170.563202,13849,13173,12320
1171.550038,13905,13389,12167
1172.536701,13949,13398,12273
1173.523192,13976,13388,12286
1174.50951,13825,13203,12288
1175.495655,13767,13292,12204
1176.481628,13978,13262,12207
1177.467429,13955,13285,12325
1178.453057,14096,13516,12152
1179.438512,14118,13467,12305
1180.423796,13944,13524,12282
1181.408906,13964,13255,12123
1182.393845,14046,13452,12272
1183.378612,13817,13435,12234
1184.363206,13930,13461,12395
1185.347628,14089,13534,12296
1186.331878,13879,13249,12369
1187.315956,13957,13451,12325
1188.299862,13792,13472,12238
1189.283596,13820,13588,12288
1190.267158,13945,13424,12424
1191.250547,14063,13383,12445
1192.233766,13861,13465,12271
1193.216812,14009,13361,12353
1194.199686,13821,13463,12176
1195.182389,13847,13489,12317
1196.16492,13969,13515,12387
1197.147279,13852,13540,12338
1198.129467,13926,13467,12290
1199.111483,13886,13346,12150
1200.093328,13998,13384,12357
1201.075,13781,13223,12221
1202.056502,13982,13264,12188
1203.037832,13873,13240,12303
1204.018991,13692,13323,12258
1204.999978,13773,13155,12098
1205.980794,13622,13186,12102
1206.961438,13840,13253,12064
1207.941912,13851,13096,12180
1208.922214,13898,13256,12200
1209.902345,13816,13102,12163
1210.882305,13754,13160,12056
1211.862094,13659,13261,12105
1212.841711,13650,13298,12147
1213.821158,13833,13219,12412
1214.800434,13901,13290,12230
1215.779539,13784,13198,12212
1216.758473,13784,13049,12166
1217.737236,13798,13241,12140
1218.715828,13976,13286,12122
1219.694249,13845,13165,12148
1220.6725,13904,13422,12305
1221.65058,13758,13152,12343
1222.628489,13769,13141,12159
1223.606228,13793,13212,12341
1224.583796,13794,13198,12155
1225.561194,13910,13309,12260
1226.538421,13845,13317,12183
1227.515478,13865,13232,12330
1228.492364,13835,13021,12364
1229.46908,13963,13255,12395
1230.445625,13908,13279,12329
1231.422,13933,13303,12372
1232.398205,13979,13604,12359
1233.37424,13806,13345,12373
1234.350104,13887,13387,12457
1235.325799,13723,13239,12253
1236.301323,13803,13354,12450
1237.276677,13981,13370,12364
1238.251861,14006,13345,12453
1239.226875,14138,13296,12420
1240.20172,13958,13370,12295
1241.176394,13982,13373,12285
1242.150898,13941,13417,12488
1243.125233,14068,13386,12417
1244.099397,14098,13409,12623
1245.073392,14034,13367,12418
1246.047217,14196,13275,12289
1247.020873,14068,13222,12478
1247.994359,13977,13431,12537
1248.967675,14042,13455,12457
1249.940822,14120,13469,12634
1250.913799,13989,13514,12440
1251.886607,13980,13349,12483
1252.859245,14170,13407,12373
1253.831714,13967,13411,12527
1254.804013,14189,13598,12593
1255.776143,13978,13531,12472
1256.748104,14115,13482,12474
1257.719896,13941,13609,12462
1258.691518,14045,13309,12575
1259.662971,14176,13530,12525
1260.634255,14155,13416,12442
1261.60537,14086,13552,12512
1262.576316,13982,13480,12512
1263.547092,14040,13443,12542
1264.5177,14079,13356,12567
1265.488139,14069,13384,12527
1266.458409,14108,13485,12562
1267.42851,14193,13469,12588
1268.398442,14192,13411,12541
1269.368206,13925,13477,12378
1270.3378,14261,13338,12472
1271.307226,14019,13411,12544
1272.276484,13998,13489,12653
1273.245572,14196,13437,12664
1274.214492,14293,13375,12599
1275.183244,14116,13437,12458
1276.151827,13905,13443,12531
1277.120241,14305,13461,12660
1278.088487,14222,13458,12589
1279.056565,14353,13525,12586
1280.024474,14065,13465,12455
1280.992215,13994,13352,12553
1281.959787,13981,13352,12641
1282.927192,14160,13586,12596
1283.894428,14252,13496,12506
1284.861496,14289,13502,12693
1285.828396,14101,13343,12536
1286.795127,14105,13487,12599
1287.761691,14112,13168,12383
1288.728086,14190,13568,12442
1289.694314,14092,13473,12600
1290.660374,14211,13616,12644
1291.626265,14000,13470,12404
1292.591989,14094,13307,12504
1293.557545,14000,13201,12368
1294.522934,14142,13501,12660
1295.488154,14194,13577,12622
1296.453207,14151,13425,12628
1297.418092,14052,13306,12538
1298.382809,13962,13430,12617
1299.347359,14089,13455,12467
1300.311741,14051,13369,12737
1301.275956,14149,13540,12579
1302.240003,14060,13643,12662
1303.203883,14014,13523,12674
1304.167595,14181,13274,12453
1305.13114,13857,13495,12528
1306.094518,13969,13393,12472
1307.057728,14138,13553,12578
1308.020771,14129,13458,12788
1308.983647,13922,13611,12485
1309.946356,14038,13568,12594
1310.908897,14219,13557,12480
1311.871271,14164,13629,12611
1312.833479,14070,13366,12610
1313.795519,14207,13421,12551
1314.757392,14081,13591,12764
1315.719099,13915,13359,12499
1316.680638,13971,13397,12616
1317.64201,13946,13523,12647
1318.603216,13912,13443,12720
1319.564255,13958,13439,12618
1320.525127,14070,13423,12596
1321.485832,14169,13556,12486
1322.446371,14004,13342,12443
1323.406743,13989,13390,12614
1324.366948,14010,13385,12660
1325.326987,13852,13428,12729
1326.286859,14037,13467,12467
1327.246565,13932,13609,12550
1328.206104,14171,13433,12679
1329.165477,14130,13430,12543
1330.124684,14074,13618,12610
1331.083724,14334,13430,12702
1332.042598,14194,13461,12679
1333.001305,14029,13377,12553
1333.959846,14067,13429,12737
1334.918222,14002,13342,12602
1335.87643,14152,13457,12672
1336.834473,14067,13481,12624
1337.79235,14227,13654,12750
1338.75006,14210,13523,12721
1339.707605,14077,13360,12531
1340.664984,14091,13520,12751
1341.622196,14170,13455,12691
1342.579243,14127,13607,12721
1343.536124,14210,13446,12801
1344.492839,14121,13322,12706
1345.449389,14331,13526,12571
1346.405772,14248,13471,12740
1347.36199,14373,13518,12741
1348.318042,14081,13426,12636
1349.273929,14416,13613,12823
1350.22965,14132,13545,12760
1351.185205,14381,13680,12709
1352.140595,14220,13444,12708
1353.095819,14369,13576,12956
1354.050878,14239,13656,12797
1355.005772,14195,13629,12878
1355.9605,14411,13742,12863
1356.915063,14095,13411,12801
1357.86946,14360,13507,12716
1358.823692,14298,13755,12824
1359.777759,14336,13732,12792
1360.731661,14304,13857,12802
1361.685398,14315,13504,12895
1362.638969,14280,13701,12665
1363.592376,14417,13597,12857
1364.545617,14529,13692,12944
1365.498694,14339,13621,13008
1366.451605,14572,13716,13034
1367.404352,14181,13875,12917
1368.356933,14429,13688,12930
1369.30935,14271,13847,12892
1370.261602,14388,13748,12891
1371.213689,14462,13745,13047
1372.165612,14420,13730,12893
1373.117369,14460,13715,13136
1374.068962,14332,13794,12943
1375.020391,14157,13695,12845
1375.971655,14445,13806,12757
1376.922754,14366,13845,12991
1377.873689,14473,14221,13085
1378.824459,14706,13953,12950
1379.775065,14499,13858,13028
1380.725506,14393,14103,12885
1381.675784,14484,14025,12958
1382.625896,14542,14140,13152
1383.575845,14465,14108,13175
1384.525629,14608,14443,13113
1385.475249,14631,14371,13048
1386.424705,14653,14334,13049
1387.373996,14685,14474,13291
1388.323124,14676,14590,13206
1389.272088,14643,14570,13274
1390.220887,14653,14404,12918
1391.169522,14570,14337,13049
1392.117994,14709,14204,13164
1393.066301,14590,14145,13157
1394.014445,14652,14000,13191
1394.962425,14422,13991,13091
1395.910241,14366,13726,13008
1396.857893,14431,13684,12858
1397.805382,14194,13759,12671
1398.752707,14230,13561,12702
1399.699868,14217,13601,12949
1400.646865,14343,13572,12816
1401.593699,14238,13549,12772
1402.54037,14229,13502,12837
1403.486876,14084,13496,12782
1404.43322,14022,13345,12630
1405.3794,14197,13387,12695
1406.325416,14346,13453,12727
1407.271269,14125,13454,12728
1408.216959,14159,13559,12634
1409.162486,14088,13438,12577
1410.107849,14246,13279,12745
1411.053049,14198,13323,12667
1411.998086,14284,13412,12686
1412.94296,14325,13650,12793
1413.88767,14092,13590,12871
1414.832218,14168,13447,12763
1415.776602,14000,13445,12752
1416.720824,14356,13520,12825
1417.664882,14231,13659,12801
1418.608778,14215,13755,13027
1419.55251,14395,13732,13015
1420.49608,14426,13836,12810
1421.439487,14434,13666,12869
1422.382732,14524,13933,12997
1423.325813,14468,14062,13101
1424.268732,14658,14236,13099
1425.211488,14818,14411,13237
1426.154081,14664,14327,13170
1427.096512,14789,14490,13194
1428.038781,14737,14390,13297
1428.980886,14769,14521,13458
1429.92283,14874,14499,13424
1430.864611,14662,14610,13455
1431.806229,15011,14264,13346
1432.747685,14761,14319,13204
1433.688979,14682,14329,13341
1434.63011,14763,14147,13163
1435.571079,14698,14086,13401
1436.511886,14553,14002,13231
1437.452531,14759,14094,13247
1438.393014,14507,13825,13188
1439.333334,14650,13848,13164
1440.273492,14390,13745,13143
1441.213489,14762,13682,13216
1442.153323,14569,13758,13153
1443.092995,14406,13809,12905
1444.032506,14465,13779,13025
1444.971854,14471,13744,13166
1445.911041,14312,13513,12895
1446.850065,14394,13767,13143
1447.788928,14401,13722,13175
1448.72763,14378,13615,13029
1449.666169,14287,13636,12982
1450.604547,14329,13652,13029
1451.542763,14437,13617,13160
1452.480818,14182,13685,12911
1453.418711,14546,13625,12926
1454.356442,14320,13706,13170
1455.294012,14415,13858,12917
1456.23142,14398,13735,13006
1457.168667,14230,13626,12934
1458.105753,14214,13679,12994
1459.042677,14404,13709,12876
1459.97944,14390,13635,12891
1460.916042,14483,13551,13028
1461.852482,14375,13456,12898
1462.788761,14404,13587,12830
1463.724879,14270,13468,12833
1464.660836,14136,13597,13079
1465.596632,14455,13584,13204
1466.532266,14426,13610,12985
1467.46774,14416,13604,12942
1468.403053,14258,13417,12925
1469.338204,14302,13578,12943
1470.273195,14237,13568,12830
1471.208025,14268,13620,13048
1472.142694,14291,13593,13044
1473.077202,14261,13471,13130
1474.011549,14273,13642,12804
1474.945736,14290,13445,12930
1475.879762,14291,13504,12874
1476.813627,14438,13603,13008
1477.747332,14418,13387,12915
1478.680876,14391,13458,12987
1479.614259,14322,13412,12890
1480.547482,14232,13237,12871
1481.480545,14197,13401,12665
1482.413447,14082,13259,12852
1483.346188,14032,13393,12716
1484.278769,14245,13402,12855
1485.21119,14116,13228,12813
1486.143451,14107,13350,12816
1487.075551,14154,13284,12906
1488.007491,14054,13393,12845
1488.939271,14116,13422,12941
1489.87089,14280,13379,12893
1490.80235,14091,13507,12746
1491.733649,14115,13243,12747
1492.664788,14030,13285,12818
1493.595768,14211,13208,12815
1494.526587,14113,13203,12929
1495.457246,14189,13242,12914
1496.387746,14259,13437,12875
1497.318085,14078,13255,12644
1498.248265,13952,13299,12819
1499.178285,14007,13167,12741
1500.108145,14111,13325,12784
1501.037845,14168,13308,12871
1501.967386,14072,13334,12693
1502.896767,14069,13262,12778
1503.825988,14099,13298,12696
1504.75505,14030,13335,12737
1505.683952,13929,13164,12932
1506.612694,14008,13228,12882
1507.541278,14233,13266,12732
1508.469701,14164,13195,12704
1509.397965,14026,13243,12686
1510.32607,14065,13246,12604
1511.254016,14098,13242,12915
1512.181802,13907,13178,12751
1513.109429,14203,13384,12738
1514.036897,14075,13198,12781
1514.964205,14155,13140,12686
1515.891354,14040,13127,12575
1516.818345,14050,13337,12724
1517.745176,14022,13388,12883
1518.671848,14104,13256,12756
1519.598361,14180,13251,12799
1520.524715,14007,13213,12877
1521.45091,14098,13214,12709
1522.376946,14083,12997,12807
1523.302823,14009,13260,12783
1524.228541,14085,13055,12863
1525.154101,14286,13184,12896
1526.079502,14158,13218,12806
1527.004744,14104,13121,12779
1527.929827,14078,13069,12786
1528.854751,14080,13233,12835
1529.779517,14160,13286,12984
1530.704125,14304,13318,12686
1531.628574,14102,13214,12811
1532.552864,14029,13119,12902
1533.476996,14183,13191,12845
1534.400969,14062,13261,12784
1535.324784,14147,13259,12812
1536.24844,14154,13208,12826
1537.171938,14328,13390,12906
1538.095278,14161,13313,12779
1539.01846,14120,13279,12826
1539.941483,14142,13340,12856
1540.864348,14358,13298,12968
1541.787055,14312,13305,12960
1542.709604,14104,13413,12748
1543.631994,14264,13302,13035
1544.554227,14100,13307,12778
1545.476301,14098,13315,12972
1546.398218,14090,13266,12739
1547.319976,14276,13426,13013
1548.241577,14320,13332,12782
1549.163019,14126,13358,12978
1550.084304,14084,13441,12820
1551.005431,14204,13255,12953
1551.9264,14099,13400,12794
1552.847212,14153,13326,13034
1553.767866,14349,13463,13026
1554.688362,14443,13464,12955
1555.6087,14258,13463,12976
1556.528881,14240,13510,12959
1557.448904,14277,13296,12865
1558.368769,14327,13287,13048
1559.288477,14519,13441,13087
1560.208028,14317,13333,13071.49336
1561.127421,14320,13340,13055.98938
1562.046657,14160,13429,13040.48806
1562.965735,14373,13427,13024.98939
1563.884656,14174,13382,13009.49337
1564.80342,14406,13483,12994
1565.722027,14440,13569,13304
1566.640476,14258,13477,13136
1567.558768,14442,13451,13207
1568.476903,14310,13390,13122
1569.394881,14528,13597,13156
1570.312701,14500,13552,13222
1571.230365,14546,13639,13433
1572.147871,14621,13710,13427
1573.065221,14380,13552,13160
1573.982414,14399,13550,13224
1574.899449,14439,13635,13219
1575.816328,14454,13715,13338
1576.73305,14555,13681,13471
1577.649615,14610,13819,13388
1578.566024,14523,13658,13292
1579.482275,14316,13650,13325
1580.39837,14391,13555,13197
1581.314308,14329,13630,13232
1582.23009,14445,13486,13209
1583.145715,14441,13613,13208
1584.061183,14521,13649,13278
1584.976495,14332,13642,13189
1585.89165,14439,13496,13067
1586.806649,14322,13446,13106
1587.721492,14264,13543,13219
1588.636178,14385,13643,13221
1589.550708,14461,13517,13204
1590.465081,14250,13495,13213
1591.379298,14320,13500,13104
1592.293359,14102,13420,12843
1593.207263,14280,13379,13098
1594.121012,14184,13380,13155
1595.034604,14221,13355,13006
1595.94804,14103,13299,13084
1596.86132,14237,13252,12996
1597.774444,14085,13336,12866
1598.687412,14075,13189,12892
1599.600224,14060,13064,12988
1600.51288,14209,13213,12830
1601.42538,14269,13206,13033
1602.337724,14037,13233,12886
1603.249913,14016,13218,12799
1604.161945,13714,12944,12776
1605.073822,14073,13127,12906
1605.985543,14055,13191,12967
1606.897109,14135,13228,12855
1607.808518,14013,13273,12935
1608.719772,14032,13027,12854
1609.630871,13885,12983,12816
1610.541814,13943,13038,12675
1611.452601,14035,13239,12878
1612.363233,14100,12960,12982
1613.273709,14009,13104,12900
1614.18403,13863,13179,12735
1615.094196,14054,13144,12759
1616.004206,13891,12881,12782
1616.914061,14027,13020,12754
1617.82376,13971,13036,12917
1618.733304,14030,13138,12818
1619.642693,13989,12978,12897
1620.551927,13833,12928,12670
1621.461006,13949,13011,12808
1622.36993,14029,12956,12841
1623.278698,14072,13127,12859
1624.187311,13889,12990,12757
1625.09577,14034,13208,12900
1626.004073,13883,12961,12716
1626.912222,13864,13003,12827
1627.820215,14042,13050,12837
1628.728054,14038,13046,12738
1629.635738,14220,13116,12831
1630.543267,14043,13049,12820
1631.450641,14174,13183,12845
1632.357861,14159,13044,12838
1633.264925,14067,13009,12826
1634.171835,14040,13121,12917
1635.078591,13997,13096,12841
1635.985192,13973,13065,12923
1636.891638,14066,13322,12984
1637.79793,14079,12857,12874
1638.704067,14131,13085,12807
1639.61005,14051,13095,12839
1640.515878,13999,13255,12935
1641.421552,14196,13138,12938
1642.327071,14235,13121,13103
1643.232436,14013,13354,12932
1644.137647,14182,13139,12902
1645.042704,14068,13072,12791
1645.947606,14043,13123,12941
1646.852354,14055,13091,12903
1647.756948,14240,13159,13023
1648.661388,14215,13138,12996
1649.565674,14161,12996,12915
1650.469806,14118,13058,13044
1651.373783,13879,12997,12905
1652.277607,14132,13051,13111
1653.181277,14046,13133,12862
1654.084793,14085,13160,12854
1654.988154,14169,13119,12790
1655.891362,13951,13162,12937
1656.794417,14126,13002,12821
1657.697317,14007,13058,12919
1658.600064,14116,12995,12846
1659.502657,14222,13160,12991
1660.405096,14183,13090,12904
1661.307381,14228,13080,12916
1662.209513,14177,13098,13023
1663.111492,13940,13070,12893
1664.013316,14167,13016,12854
1664.914988,13976,13178,13041
1665.816505,14135,13187,13121
1666.71787,14133,12958,13029
1667.619081,13941,12963,12854
1668.520138,13967,12910,12890
1669.421042,14131,13074,12804
1670.321793,14210,13211,12927
1671.222391,14117,13266,13084
1672.122835,14092,13037,12913
1673.023126,14124,13095,12842
1673.923264,14206,13136,12952
1674.823249,13987,12947,12892
1675.72308,14211,13001,12919
1676.622759,14100,13010,12733
1677.522284,14024,12988,12960
1678.421657,13962,13133,12802
1679.320876,14015,13006,12927
1680.219943,13984,12800,12810
1681.118856,14070,12948,12887
1682.017617,14026,12911,12923
1682.916225,14207,12950,12958
1683.81468,14072,13022,13030
1684.712982,14068,13075,12700
1685.611132,13917,12850,12907
1686.509128,13919,12980,12591
1687.406972,13845,12848,12895
1688.304664,14003,13008,12757
1689.202203,13928,13028,12826
1690.099589,13969,12839,12819
1690.996823,13863,13125,12991
1691.893904,13794,12851,12838
1692.790833,13945,12945,12876
1693.687609,14092,13024,12849
1694.584233,14000,12965,12828
1695.480704,13921,13026,12948
1696.377023,13984,12826,12819
1697.27319,13962,12865,12745
1698.169205,13945,12752,12725
1699.065067,13946,12814,12910
1699.960777,13835,12964,12751
1700.856335,13980,12997,12701
1701.751741,13992,12908,12709
1702.646994,13936,12816,12605
1703.542096,13835,12851,12797
1704.437046,13761,12868,12795
1705.331843,13795,12781,12747
1706.226489,13959,12817,12845
1707.120982,13965,12835,12798
1708.015324,13810,12673,12864
1708.909514,13762,12716,12613
1709.803551,13796,12724,12764
1710.697438,13732,12703,12843
1711.591172,13909,12804,12836
1712.484755,13822,12830,12692
1713.378185,13930,12754,12669
1714.271465,13736,12674,12742
1715.164592,13693,12750,12548
1716.057568,13835,12637,12763
1716.950392,13715,12755,12809
1717.843065,13812,12767,12926
1718.735586,14036,12683,12854
1719.627956,13849,12733,12762
1720.520175,13856,12576,12678
1721.412242,13637,12785,12635
1722.304157,13717,12733,12729
1723.195921,13878,12774,12698
1724.087534,13915,12746,12650
1724.978996,14003,12733,12921
1725.870306,13808,12648,12783
1726.761465,13752,12554,12638
1727.652473,13846,12490,12647
1728.54333,13924,12735,12828
1729.434036,13771,12751,12789
1730.32459,13783,12927,12790
1731.214994,13818,12570,12615
1732.105247,13725,12647,12610
1732.995348,13841,12631,12608
1733.885299,13796,12743,12629
1734.775098,13890,12819,12656
1735.664747,13974,12868,12799
1736.554245,13937,12880,12807
1737.443592,13737,12558,12716
1738.332789,13898,12703,12819
1739.221834,13916,12643,12653
1740.110729,13810,12881,12744
1740.999473,13764,12808,12689
1741.888067,14031,13013,12828
1742.77651,13942,12725,12706
1743.664802,13915,12757,12709
1744.552944,13807,12721,12771
1745.440935,13863,12772,12730
1746.328776,13884,12795,12780
1747.216466,13904,12877,12823
1748.104006,13842,12634,12803
1748.991395,14066,12711,12865
1749.878634,13929,12683,12803
1750.765723,13892,12631,12746
1751.652661,13700,12853,12689
1752.53945,13915,12668,12857
1753.426088,13901,12817,12852
1754.312575,13728,12678,12914
1755.198913,13816,12759,12712
1756.085101,13861,12775,12853
1756.971138,13745,12659,12931
1757.857025,13791,12808,12882
1758.742763,14116,12756,13000
1759.62835,14057,12848,12936
1760.513787,13746,12824,12857
1761.399075,13894,12843,12813
1762.284212,13653,12522,12802
1763.1692,13795,12762,12796
1764.054037,14053,12658,12783
1764.938725,13975,12896,12888
1765.823264,13897,12855,12832
1766.707652,13989,12666,12852
1767.591891,13854,12814,12773
1768.47598,13813,12589,12857
1769.359919,13824,12734,12804
1770.243709,13916,12710,12850
1771.12735,13890,12690,12896
1772.01084,13943,12853,13032
1772.894182,13928,12654,12841
1773.777373,13785,12671,12938
1774.660416,13556,12661,12825
1775.543308,13897,12727,12870
1776.426052,13825,12681,12933
1777.308646,13866,12795,13011
1778.191091,13907,12816,12870
1779.073387,13651,12632,12775
1779.955533,13899,12615,12691
1780.83753,13758,12769,12782
1781.719378,13763,12807,12940
1782.601077,13917,12681,12859
1783.482626,13864,12609,12997
1784.364027,13747,12672,12744
1785.245278,13704,12611,12711
1786.126381,13738,12640,12854
1787.007334,13904,12650,12785
1787.888139,13852,12556,12775
1788.768794,13846,12708,12867
1789.649301,13759,12556,12840
1790.529659,13796,12561,12817
1791.409868,13709,12544,12833
1792.289928,13682,12481,12743
1793.16984,13765,12660,12744
1794.049602,13724,12510,12893
1794.929216,13827,12623,12772
1795.808682,13804,12699,12702
1796.687999,13746,12555,12785
1797.567167,13648,12447,12860
1798.446186,13748,12598,12858
1799.325057,13770,12783,12767
1800.20378,13834,12581,12825
1801.082354,13828,12633,12785
1801.960779,13682,12513,12770
1802.839057,13818,12724,12777
1803.717185,13686,12493,12658
1804.595166,13734,12428,12788
1805.472998,13549,12624,12569
1806.350682,13748,12596,12847
1807.228218,13556,12509,12728
1808.105605,13751,12367,12796
1808.982844,13756,12555,12791
1809.859935,13644,12626,12835
1810.736878,13777,12562,12778
1811.613673,13659,12624,12841
1812.49032,13572,12528,12686
1813.366819,13693,12575,12767
1814.24317,13662,12506,12649
1815.119372,13538,12453,12668
1815.995427,13610,12432,12738
1816.871334,13564,12442,12724
1817.747094,13806,12570,12805
1818.622705,13645,12447,12781
1819.498169,13672,12397,12811
1820.373484,13567,12414,12701
1821.248652,13537,12354,12572
1822.123673,13450,12410,12709
1822.998545,13636,12344,12668
1823.87327,13726,12461,12771
1824.747848,13789,12432,12814
1825.622278,13685,12515,12722
1826.49656,13600,12415,12528
1827.370695,13630,12325,12850
1828.244682,13737,12642,12679
1829.118522,13554,12502,12600
1829.992215,13679,12443,12761
1830.86576,13614,12406,12709
1831.739157,13852,12453,12641
1832.612408,13612,12530,12754
1833.485511,13697,12442,12820
1834.358467,13658,12394,12815
1835.231275,13845,12479,12713
1836.103937,13634,12323,12757
1836.976451,13718,12404,12823
1837.848818,13623,12322,12596
1838.721038,13636,12508,12736
1839.593111,13585,12470,12878
1840.465037,13605,12409,12948
1841.336816,13665,12523,12783
1842.208448,13631,12485,12837
1843.079934,13728,12515,12819
1843.951272,13666,12462,12669
1844.822463,13602,12473,12679
1845.693508,13536,12328,12773
1846.564405,13827,12598,12781
1847.435156,13733,12582,12879
1848.30576,13639,12385,12697
1849.176218,13521,12409,12738
1850.046528,13599,12436,12594
1850.916692,13568,12305,12735
1851.78671,13596,12415,12898
1852.656581,13659,12538,12764
1853.526305,13638,12449,12839
1854.395883,13653,12453,12866
1855.265314,13714,12658,12747
1856.134599,13566,12441,12720
1857.003738,13670,12642,12775
1857.87273,13617,12534,12870
1858.741575,13698,12647,12867
1859.610275,13777,12446,12697
1860.478828,13665,12580,12798
1861.347234,13583,12350,12677
1862.215495,13528,12478,12896
1863.083609,13644,12402,12798
1863.951577,13697,12470,12861
1864.819399,13927,12554,12886
1865.687075,13596,12573,12952
1866.554605,13542,12448,12840
1867.421989,13586,12359,12844
1868.289226,13603,12531,12697
1869.156318,13772,12470,12892
1870.023264,13731,12549,12711
1870.890064,13807,12544,12903
1871.756718,13676,12481,12947
1872.623226,13466,12410,12735
1873.489588,13619,12439,12819
1874.355805,13636,12580,12741
1875.221875,13621,12399,12762
1876.0878,13665,12509,12891
1876.95358,13691,12364,12730
1877.819213,13694,12455,12813
1878.684701,13722,12416,12939
1879.550043,13610,12392,12816
1880.41524,13649,12432,12764
1881.280291,13669,12510,12795
1882.145197,13717,12514,13006
1883.009957,13693,12580,12877
1883.874572,13517,12373,12724
1884.739041,13701,12285,12798
1885.603365,13502,12273,12706
1886.467544,13596,12470,12755
1887.331577,13611,12382,12951
1888.195465,13589,12367,12887
1889.059208,13685,12589,12943
1889.922805,13457,12472,12886
1890.786258,13580,12274,12876
1891.649565,13401,12209,12535
1892.512727,13657,12393,12870
1893.375744,13708,12499,12892
1894.238615,13623,12418,12743
1895.101342,13656,12382,12783
1895.963924,13488,12450,12776
1896.826361,13468,12435,12826
1897.688652,13467,12319,12563
1898.550799,13551,12385,12542
1899.412801,13533,12341,12770
1900.274658,13565,12442,12623
1901.136371,13528,12345,12735
1901.997938,13457,12305,12667
1902.859361,13438,12245,12788
1903.720639,13536,12440,12721
1904.581772,13453,12405,12822
1905.442761,13520,12364,12873
1906.303605,13570,12251,12887
1907.164304,13409,12248,12786
1908.024859,13481,12340,12767
1908.885269,13407,12181,12645
1909.745535,13574,12266,12726
1910.605656,13489,12254,12710
1911.465633,13649,12456,12667
1912.325465,13512,12330,12765
1913.185153,13478,12260,12751
1914.044696,13621,12185,12596
1914.904096,13369,12203,12707
1915.763351,13474,12241,12614
1916.622461,13479,12250,12670
1917.481428,13578,12435,12782
1918.34025,13493,12286,12734
1919.198928,13341,12240,12709
1920.057462,13502,12317,12730
1920.915852,13417,12136,12704
1921.774098,13275,12065,12843
1922.632199,13435,12257,12756
1923.490157,13556,12504,12753
1924.347971,13551,12265,12803
1925.20564,13459,12232,12618
1926.063166,13351,12025,12424
1926.920548,13389,12065,12635
1927.777786,13451,12242,12755
1928.63488,13584,12127,12639
1929.49183,13512,12194,12615
1930.348637,13349,12043,12666
1931.2053,13394,12088,12669
1932.061819,13349,12202,12583
1932.918195,13452,12063,12605
1933.774426,13353,12130,12718
1934.630514,13401,12220,12715
1935.486459,13640,12124,12952
1936.34226,13583,12203,12801
1937.197918,13446,12126,12716
1938.053432,13245,12153,12689
1938.908802,13435,12058,12468
1939.764029,13363,12168,12752
1940.619113,13423,12266,12812
1941.474053,13397,12333,12783
1942.32885,13414,12210,12795
1943.183504,13405,12031,12870
1944.038014,13397,12160,12596
1944.892381,13403,12115,12542
1945.746605,13443,11999,12776
1946.600686,13492,12014,12799
1947.454624,13580,12261,12915
1948.308418,13543,12294,12701
1949.162069,13542,12086,12569
1950.015578,13352,12041,12779
1950.868943,13254,12077,12548
1951.722165,13348,12237,12867
1952.575244,13510,12212,12898
1953.428181,13468,12199,12823
1954.280974,13406,12292,12874
1955.133625,13441,12125,12861
1955.986132,13319,12223,12764
1956.838497,13364,12113,12878
1957.690719,13462,12274,12698
1958.542798,13522,12212,12796
1959.394735,13536,12283,12788
1960.246529,13499,12161,12692
1961.09818,13366,12175,12781
1961.949688,13330,12173,12674
1962.801054,13460,12233,12768
1963.652278,13290,12172,12895
1964.503359,13576,12352,12962
1965.354297,13458,12201,12725
1966.205093,13233,12112,12801
1967.055746,13401,12024,12723
1967.906257,13371,12281,12751
1968.756625,13558,12181,12709
1969.606851,13469,12262,12791
1970.456935,13655,12284,12929
1971.306877,13599,12134,12710
1972.156676,13553,12259,12833
1973.006333,13310,12121,12743
1973.855848,13560,12147,12895
1974.70522,13414,12148,12782
1975.554451,13474,12309,12923
1976.403539,13598,12369,13020
1977.252485,13284,12230,12945
1978.101289,13580,12273,12969
1978.949951,13517,12253,12788
1979.798472,13356,12148,12715
1980.64685,13507,12069,12672
1981.495086,13437,12318,12778
1982.34318,13553,12193,12893
1983.191133,13499,12154,12765
1984.038943,13489,12164,12705
1984.886612,13538,12218,12741
1985.734139,13363,12102,12855
1986.581524,13377,12182,12750
1987.428768,13460,12049,12864
1988.275869,13568,12368,12913
1989.122829,13374,12176,12775
1989.969648,13436,12268,12795
1990.816325,13211,12014,12811
1991.66286,13276,12166,12602
1992.509254,13496,12145,12884
1993.355506,13335,12196,13016
1994.201617,13447,12148,12960
1995.047586,13478,12002,12720
1995.893414,13297,12188,12667
1996.7391,13362,12069,12772
1997.584645,13438,12034,12705
1998.430049,13366,11988,12763
1999.275311,13398,12006,12725
2000.120432,13444,12006,12797
2000.965412,13515,12154,12805
2001.810251,13352,12112,12747
2002.654948,13330,11987,12699
2003.499505,13298,12088,12594
2004.34392,13306,11976,12919
2005.188194,13404,12165,12872
2006.032327,13474,12045,12815
2006.876319,13236,12026,12748
2007.72017,13314,12020,12737
2008.56388,13317,12053,12751
2009.407449,13302,11910,12851
2010.250877,13206,11934,12773
2011.094165,13318,12115,12838
2011.937311,13482,11934,12869
2012.780317,13432,12063,12815
2013.623181,13270,12143,12752
2014.465905,13367,11849,12818
2015.308489,13274,11771,12721
2016.150931,13235,12002,12811
2016.993233,13383,11960,12859
2017.835394,13419,12100,12606
2018.677415,13291,12100,12749
2019.519295,13308,11809,12544
2020.361035,13060,11974,12737
2021.202634,13217,12076,12735
2022.044092,13311,11818,12687
2022.88541,13366,11850,12723
2023.726588,13272,11959,12553
2024.567625,13265,11945,12647
2025.408521,13375,11796,12540
2026.249278,13201,11848,12576
2027.089894,13260,11866,12706
2027.93037,13272,12008,12605
2028.770705,13331,11923,12804
2029.610901,13280,11991,12810
2030.450956,13195,11980,12732
2031.290871,13155,11888,12692
2032.130646,13291,11760,12803
2032.97028,13081,11827,12664
2033.809775,13268,11984,12682
2034.649129,13219,11871,12756
2035.488344,13222,12051,12500
2036.327418,13248,11919,12759
2037.166353,13104,11952,12661
2038.005148,13276,11843,12747
2038.843802,13257,11857,12645
2039.682317,13250,11922,12760
2040.520692,13218,11972,12627
2041.358928,13126,12099,12627
2042.197023,13345,12002,12714
2043.034979,13326,11830,12709
2043.872795,13002,11752,12607
2044.710471,13199,11961,12684
2045.548008,13270,11843,12823
2046.385405,13097,12014,12876
2047.222662,13255,12061,12802
2048.05978,13188,11992,12785
2048.896758,13123,11825,12754
2049.733597,13086,11756,12698
2050.570296,13152,11804,12644
2051.406856,13269,11913,12722
2052.243276,13330,11966,12702
2053.079557,13207,11858,12931
2053.915698,13225,11932,12707
2054.751701,13249,11809,12960
2055.587564,13199,11996,12674
2056.423287,13021,11822,12684
2057.258872,13303,11857,12763
2058.094317,13149,11770,12703
2058.929623,13343,11828,12720
2059.764789,13122,11894,12752
2060.599817,13361,11900,12703
2061.434706,13077,11934,12731
2062.269455,13196,11933,12793
2063.104066,13286,11868,12706
2063.938537,13312,11956,12857
2064.772869,13304,11853,12845
2065.607063,13402,11932,12752
2066.441117,13371,11980,12790
2067.275033,13202,11972,12887
2068.10881,13293,11818,12773
2068.942448,13347,11926,12803
2069.775947,13203,12034,12779
2070.609307,13485,12029,12826
2071.442529,13213,11982,12815
2072.275612,13157,12077,12724
2073.108556,13334,11902,12880
2073.941361,13279,11888,12834
2074.774028,13164,11939,12813
2075.606556,13428,12010,12785
2076.438946,13304,11825,12898
2077.271197,13401,11981,12846
2078.10331,13414,11810,12900
2078.935284,13385,11917,12836
2079.76712,13276,11850,12765
2080.598817,13213,12024,12881
2081.430376,13390,12008,12845
2082.261796,13377,12136,12887
2083.093078,13455,12164,12875
2083.924222,13223,11980,12811
2084.755228,13264,11858,12880
2085.586095,13166,11947,12840
2086.416824,13133,11873,12887
2087.247415,13375,12084,12860
2088.077868,13301,11988,12934
2088.908182,13424,12044,12809
2089.738359,13185,11906,12773
2090.568397,13245,11805,12656
2091.398297,13199,11872,12701
2092.22806,13252,11912,12846
2093.057684,13412,11934,12960
2093.88717,13437,11940,13063
2094.716519,13591,11967,13040
2095.545729,13124,11905,13043
2096.374802,13375,11869,12920
2097.203736,13257,11896,12842
2098.032533,13219,11966,12906
2098.861193,13442,11967,12794
2099.689714,13329,12154,12940
2100.518098,13211,11967,13016
2101.346344,13245,11955,12931
2102.174452,13251,11915,12795
2103.002422,13221,11837,12759
2103.830255,13104,11987,12811
2104.657951,13205,11910,12978
2105.485509,13268,11887,12945
2106.312929,13529,11986,12895
2107.140212,13187,11915,12688
2107.967357,13213,11753,12879
2108.794365,13221,11764,12779
2109.621236,13255,11870,12806
2110.447969,13308,11966,13043
2111.274565,13233,11917,12979
2112.101023,13150,11858,12845
2112.927344,13306,11802,12857
2113.753528,13206,11833,12856
2114.579575,13055,11810,12724
2115.405484,13200,11910,12866
2116.231257,13220,11848,13052
2117.056892,13326,11846,12859
2117.88239,13278,11830,12988
2118.707751,13114,11915,12827
2119.532975,13128,11751,12732
2120.358061,13013,11718,12669
2121.183011,13138,11787,12955
2122.007824,13223,11801,12767
2122.8325,13356,11873,12969
2123.657039,13202,11934,12805
2124.481441,13329,11942,12954
2125.305706,13058,11813,12946
2126.129834,13184,11926,12924
2126.953826,13173,11851,12789
2127.777681,13314,11806,12822
2128.601399,13346,11841,12824
2129.42498,13416,11925,12995
2130.248425,13371,11755,12786
2131.071732,13130,11838,12634
2131.894904,13022,11621,12874
2132.717938,13038,11712,12837
2133.540837,13154,11911,12922
2134.363598,13234,11809,12878
2135.186223,13283,11923,12856
2136.008712,13096,11720,12927
2136.831064,13179,11773,12802
2137.653279,13107,11812,12730
2138.475359,13085,11636,12773
2139.297302,13134,11819,12840
2140.119108,13092,11745,12805
2140.940778,13202,11772,12946
2141.762312,13237,11684,12980
2142.58371,13224,11771,12844
2143.404971,13240,11795,12749
2144.226097,13172,11779,12843
2145.047086,13084,11834,12949
2145.867938,13146,11764,12858
2146.688655,13249,11810,13012
2147.509236,13200,11652,12802
2148.329681,13093,11722,12924
2149.149989,13168,11766,12799
2149.970162,13228,11732,12848
2150.790198,13259,11676,12914
2151.610099,13132,11917,12813
2152.429864,13250,11884,13101
2153.249493,13125,11634,13087
2154.068986,13191,11876,12914
2154.888343,13108,11727,12904
2155.707564,13095,11516,13025
2156.52665,13065,11632,12935
2157.345599,12984,11717,12887
2158.164414,13259,11728,12877
2158.983092,13143,11812,12830
2159.801635,13153,11815,12930
2160.620042,13140,11720,12936
2161.438313,13169,11725,12811
2162.256449,13219,11831,12869
2163.07445,13105,11811,13052
2163.892314,13207,11933,13049
2164.710044,13129,11859,13058
2165.527638,13311,11743,12894
2166.345096,12982,11608,13039
2167.162419,13070,11512,12829
2167.979607,13135,11783,12785
2168.796659,13306,11725,13087
2169.613576,13277,11881,12861
2170.430358,13309,11858,13043
2171.247004,13350,11830,12751
2172.063516,13127,11765,12973
2172.879892,13279,11791,12809
2173.696132,13242,11668,12958
2174.512238,13196,11719,12848
2175.328208,13372,11699,12952
2176.144044,13259,11751,12936
2176.959744,13169,11808,12896
2177.77531,13158,11626,12948
2178.59074,13133,11710,12823
2179.406035,13265,11804,12926
2180.221196,13209,11848,13041
2181.036221,13285,11831,12926
2181.851112,13399,11808,12943
2182.665867,13162,11798,12893
2183.480488,13239,11787,13024
2184.294974,13102,11865,12974
2185.109325,13216,11784,12940
2185.923542,13106,11779,13021
2186.737623,13225,11868,13172
2187.55157,13347,11887,13053
2188.365383,13232,11907,13076
2189.179061,13332,11802,12987
2189.992604,13286,11894,13001
2190.806012,13336,11748,13036
2191.619286,13298,11981,13105
2192.432425,13316,11877,13054
2193.24543,13439,11842,13057
2194.058301,13430,11894,13151
2194.871037,13382,11941,13139
2195.683638,13276,11869,13169
2196.496105,13164,11824,13101
2197.308438,13445,11875,13170
2198.120637,13327,11844,13015
2198.932701,13242,11895,13312
2199.744631,13380,12021,13184
2200.556426,13243,11859,13115
2201.368088,13308,11831,13164
2202.179615,13255,11765,13169
2202.991008,13233,11890,12983
2203.802267,13295,11722,13086
2204.613392,13430,11793,13049
2205.424382,13351,11898,13190
2206.235239,13279,12011,13228
2207.045961,13203,11905,13071
2207.85655,13229,11784,13084
2208.667005,13329,11808,13101
2209.477325,13223,11768,13231
2210.287512,13354,11930,13002
2211.097565,13217,11860,13218
2211.907484,13322,11890,13096
2212.717269,13365,11937,13131
2213.52692,13439,11831,12939
2214.336438,13224,11878,13119
2215.145822,13290,11798,13074
2215.955072,13413,11829,13148
2216.764188,13336,11777,13228
2217.573171,13421,11759,13280
2218.38202,13316,11787,13172
2219.190736,13373,11778,12998
2219.999318,13312,11762,13038
2220.807766,13074,11820,13060
2221.616081,13265,11773,13205
2222.424262,13374,11868,13053
2223.23231,13386,11766,13147
2224.040224,13389,11877,13082
2224.848005,13146,11793,12997
2225.655653,13284,11802,12813
2226.463167,13141,11723,13040
2227.270548,13136,11702,13069
2228.077796,13272,11866,13069
2228.88491,13342,11780,13110
2229.691891,13329,11688,13076
2230.498739,13207,11677,13112
2231.305454,13181,11640,13016
2232.112035,13144,11605,13138
2232.918484,13199,11665,12916
2233.724799,13395,11712,13067
2234.530981,13359,11831,13019
2235.33703,13357,11983,13052
2236.142946,13330,11803,13084
2236.948729,13208,11812,13105
2237.754379,13316,11703,12974
2238.559896,13094,11647,13003
2239.365281,13307,11825,12979
2240.170532,13306,11907,12901
2240.97565,13262,11713,13138
2241.780636,13189,11721,13167
2242.585489,13270,11752,13087
2243.390209,13124,11599,12897
2244.194796,13049,11710,12914
2244.999251,13256,11664,13025
2245.803573,13162,11949,12952
2246.607762,13266,11755,13033
2247.411818,13212,11707,13144
2248.215742,13031,11686,12881
2249.019534,13122,11646,13098
2249.823192,13065,11703,13041
2250.626719,13163,11683,13061
2251.430112,13205,11599,12979
2252.233374,13206,11582,13184
2253.036502,13169,11797,13227
2253.839499,13123,11738,13025
2254.642363,13223,11732,13053
2255.445094,13132,11618,13001
2256.247694,13128,11599,13051
2257.050161,13219,11594,13124
2257.852495,13358,11685,13123
2258.654698,13503,11751,13182
2259.456768,13282,11817,13348
2260.258706,13062,11801,13051
2261.060512,12960,11665,13041
2261.862186,13217,11523,13070
