#Wave,#Intensity17
2261.862186,7802
2261.060512,7843
2260.258706,7769
2259.456768,7729
2258.654698,7877
2257.852495,7976
2257.050161,7922
2256.247694,7775
2255.445094,7786
2254.642363,7698
2253.839499,7814
2253.036502,7761
2252.233374,7839
2251.430112,7831
2250.626719,7724
2249.823192,7693
2249.019534,7862
2248.215742,7672
2247.411818,7759
2246.607762,7828
2245.803573,7890
2244.999251,7798
2244.194796,7727
2243.390209,7743
2242.585489,7736
2241.780636,7733
2240.97565,7930
2240.170532,7846
2239.365281,7757
2238.559896,7853
2237.754379,7765
2236.948729,7827
2236.142946,7830
2235.33703,7897
2234.530981,7791
2233.724799,7818
2232.918484,7842
2232.112035,7774
2231.305454,7775
2230.498739,8034
2229.691891,8007
2228.88491,7882
2228.077796,7764
2227.270548,7923
2226.463167,7922
2225.655653,7915
2224.848005,7953
2224.040224,7860
2223.23231,7840
2222.424262,7849
2221.616081,7819
2220.807766,7825
2219.999318,7876
2219.190736,7785
2218.38202,7953
2217.573171,7854
2216.764188,7895
2215.955072,7875
2215.145822,7899
2214.336438,7954
2213.52692,7966
2212.717269,7820
2211.907484,7970
2211.097565,7873
2210.287512,8040
2209.477325,7914
2208.667005,7698
2207.85655,7877
2207.045961,7986
2206.235239,7960
2205.424382,7904
2204.613392,7961
2203.802267,7891
2202.991008,7896
2202.179615,7897
2201.368088,7835
2200.556426,7852
2199.744631,8057
2198.932701,8043
2198.120637,7921
2197.308438,7977
2196.496105,7971
2195.683638,7972
2194.871037,7929
2194.058301,8081
2193.24543,7855
2192.432425,8007
2191.619286,8070
2190.806012,7984
2189.992604,7988
2189.179061,7907
2188.365383,7943
2187.55157,7871
2186.737623,8009
2185.923542,7886
2185.109325,7934
2184.294974,7900
2183.480488,7906
2182.665867,7873
2181.851112,7962
2181.036221,7998
2180.221196,7773
2179.406035,7838
2178.59074,7890
2177.77531,7794
2176.959744,8052
2176.144044,7995
2175.328208,7926
2174.512238,7723
2173.696132,7862
2172.879892,7860
2172.063516,7925
2171.247004,7953
2170.430358,7922
2169.613576,7989
2168.796659,7821
2167.979607,7707
2167.162419,7818
2166.345096,7946
2165.527638,7946
2164.710044,7855
2163.892314,7960
2163.07445,7869
2162.256449,7826
2161.438313,7837
2160.620042,7776
2159.801635,7865
2158.983092,7884
2158.164414,7879
2157.345599,7810
2156.52665,7816
2155.707564,7863
2154.888343,7918
2154.068986,7857
2153.249493,7885
2152.429864,7942
2151.610099,7885
2150.790198,7829
2149.970162,7911
2149.149989,7882
2148.329681,7821
2147.509236,7939
2146.688655,7772
2145.867938,7939
2145.047086,7887
2144.226097,7824
2143.404971,7881
2142.58371,7946
2141.762312,7912
2140.940778,7923
2140.119108,7935
2139.297302,7912
2138.475359,7954
2137.653279,7882
2136.831064,7828
2136.008712,7889
2135.186223,7858
2134.363598,8123
2133.540837,8017
2132.717938,7856
2131.894904,7807
2131.071732,7759
2130.248425,8070
2129.42498,8025
2128.601399,7997
2127.777681,7914
2126.953826,7895
2126.129834,7765
2125.305706,8015
2124.481441,7977
2123.657039,7981
2122.8325,7860
2122.007824,7892
2121.183011,8014
2120.358061,7943
2119.532975,7904
2118.707751,7900
2117.88239,7946
2117.056892,7981
2116.231257,7988
2115.405484,7911
2114.579575,7868
2113.753528,7962
2112.927344,7892
2112.101023,7892
2111.274565,8069
2110.447969,7883
2109.621236,7969
2108.794365,7957
2107.967357,7929
2107.140212,7946
2106.312929,8031
2105.485509,7938
2104.657951,7863
2103.830255,7892
2103.002422,7888
2102.174452,7909
2101.346344,7856
2100.518098,7969
2099.689714,7984
2098.861193,7973
2098.032533,8039
2097.203736,7934
2096.374802,7874
2095.545729,7947
2094.716519,8061
2093.88717,8030
2093.057684,8069
2092.22806,8042
2091.398297,7951
2090.568397,7910
2089.738359,8047
2088.908182,7950
2088.077868,8050
2087.247415,7921
2086.416824,7975
2085.586095,7978
2084.755228,7973
2083.924222,8045
2083.093078,7999
2082.261796,8033
2081.430376,8082
2080.598817,7973
2079.76712,7808
2078.935284,7962
2078.10331,8030
2077.271197,7948
2076.438946,7991
2075.606556,7938
2074.774028,7885
2073.941361,8049
2073.108556,7997
2072.275612,8088
2071.442529,7922
2070.609307,7991
2069.775947,8070
2068.942448,8016
2068.10881,7916
2067.275033,8008
2066.441117,8026
2065.607063,7965
2064.772869,8047
2063.938537,8051
2063.104066,7969
2062.269455,7950
2061.434706,7971
2060.599817,8001
2059.764789,7999
2058.929623,7979
2058.094317,8030
2057.258872,8052
2056.423287,7968
2055.587564,7991
2054.751701,8005
2053.915698,8039
2053.079557,7880
2052.243276,8019
2051.406856,8016
2050.570296,7896
2049.733597,7926
2048.896758,7895
2048.05978,7935
2047.222662,8012
2046.385405,8076
2045.548008,8077
2044.710471,7982
2043.872795,7975
2043.034979,8038
2042.197023,7975
2041.358928,7966
2040.520692,8006
2039.682317,7995
2038.843802,7939
2038.005148,7895
2037.166353,7961
2036.327418,8019
2035.488344,8055
2034.649129,7926
2033.809775,8075
2032.97028,8017
2032.130646,8019
2031.290871,8030
2030.450956,8062
2029.610901,7983
2028.770705,8054
2027.93037,7993
2027.089894,8014
2026.249278,8022
2025.408521,8004
2024.567625,8005
2023.726588,8068
2022.88541,8111
2022.044092,7990
2021.202634,8095
2020.361035,8028
2019.519295,7998
2018.677415,8154
2017.835394,8030
2016.993233,8135
2016.150931,8021
2015.308489,7964
2014.465905,8111
2013.623181,7967
2012.780317,8002
2011.937311,8178
2011.094165,8247
2010.250877,8048
2009.407449,8169
2008.56388,8099
2007.72017,8140
2006.876319,8129
2006.032327,8012
2005.188194,8124
2004.34392,8048
2003.499505,7855
2002.654948,8167
2001.810251,8071
2000.965412,8064
2000.120432,8261
1999.275311,8067
1998.430049,8130
1997.584645,8067
1996.7391,8155
1995.893414,8098
1995.047586,8048
1994.201617,8211
1993.355506,8140
1992.509254,8249
1991.66286,8237
1990.816325,8093
1989.969648,8166
1989.122829,8185
1988.275869,8236
1987.428768,8267
1986.581524,8119
1985.734139,8145
1984.886612,8111
1984.038943,8150
1983.191133,8236
1982.34318,8177
1981.495086,8176
1980.64685,8228
1979.798472,8137
1978.949951,8052
1978.101289,8047
1977.252485,8164
1976.403539,8287
1975.554451,8282
1974.70522,8071
1973.855848,8228
1973.006333,8108
1972.156676,8152
1971.306877,8191
1970.456935,8270
1969.606851,8180
1968.756625,8282
1967.906257,8149
1967.055746,8159
1966.205093,8133
1965.354297,8246
1964.503359,8261
1963.652278,8119
1962.801054,8234
1961.949688,8121
1961.09818,7942
1960.246529,8089
1959.394735,8159
1958.542798,8344
1957.690719,8214
1956.838497,8197
1955.986132,8173
1955.133625,8209
1954.280974,8183
1953.428181,8147
1952.575244,8179
1951.722165,8017
1950.868943,8102
1950.015578,8147
1949.162069,8150
1948.308418,8281
1947.454624,8113
1946.600686,8255
1945.746605,8169
1944.892381,8115
1944.038014,8182
1943.183504,8103
1942.32885,8233
1941.474053,8165
1940.619113,8260
1939.764029,8231
1938.908802,8187
1938.053432,8168
1937.197918,8247
1936.34226,8203
1935.486459,8276
1934.630514,8203
1933.774426,8273
1932.918195,8174
1932.061819,8065
1931.2053,8179
1930.348637,8307
1929.49183,8153
1928.63488,8119
1927.777786,8049
1926.920548,8204
1926.063166,8149
1925.20564,8142
1924.347971,8204
1923.490157,8242
1922.632199,8184
1921.774098,8270
1920.915852,8159
1920.057462,8297
1919.198928,8187
1918.34025,8271
1917.481428,8201
1916.622461,8179
1915.763351,8318
1914.904096,8145
1914.044696,8212
1913.185153,8154
1912.325465,8213
1911.465633,8288
1910.605656,8231
1909.745535,8253
1908.885269,8208
1908.024859,8307
1907.164304,8309
1906.303605,8255
1905.442761,8300
1904.581772,8338
1903.720639,8286
1902.859361,8267
1901.997938,8186
1901.136371,8265
1900.274658,8252
1899.412801,8338
1898.550799,8355
1897.688652,8155
1896.826361,8241
1895.963924,8281
1895.101342,8274
1894.238615,8209
1893.375744,8378
1892.512727,8386
1891.649565,8229
1890.786258,8396
1889.922805,8332
1889.059208,8306
1888.195465,8242
1887.331577,8328
1886.467544,8361
1885.603365,8283
1884.739041,8318
1883.874572,8344
1883.009957,8186
1882.145197,8403
1881.280291,8296
1880.41524,8340
1879.550043,8436
1878.684701,8252
1877.819213,8320
1876.95358,8343
1876.0878,8310
1875.221875,8390
1874.355805,8406
1873.489588,8267
1872.623226,8368
1871.756718,8299
1870.890064,8523
1870.023264,8309
1869.156318,8323
1868.289226,8295
1867.421989,8417
1866.554605,8282
1865.687075,8384
1864.819399,8432
1863.951577,8369
1863.083609,8302
1862.215495,8411
1861.347234,8396
1860.478828,8339
1859.610275,8357
1858.741575,8492
1857.87273,8365
1857.003738,8363
1856.134599,8404
1855.265314,8347
1854.395883,8332
1853.526305,8348
1852.656581,8458
1851.78671,8334
1850.916692,8315
1850.046528,8206
1849.176218,8268
1848.30576,8376
1847.435156,8446
1846.564405,8418
1845.693508,8322
1844.822463,8382
1843.951272,8537
1843.079934,8292
1842.208448,8282
1841.336816,8536
1840.465037,8318
1839.593111,8288
1838.721038,8369
1837.848818,8333
1836.976451,8381
1836.103937,8337
1835.231275,8451
1834.358467,8339
1833.485511,8386
1832.612408,8231
1831.739157,8375
1830.86576,8334
1829.992215,8354
1829.118522,8408
1828.244682,8340
1827.370695,8245
1826.49656,8398
1825.622278,8372
1824.747848,8377
1823.87327,8339
1822.998545,8395
1822.123673,8255
1821.248652,8372
1820.373484,8305
1819.498169,8409
1818.622705,8428
1817.747094,8464
1816.871334,8392
1815.995427,8339
1815.119372,8347
1814.24317,8370
1813.366819,8294
1812.49032,8510
1811.613673,8414
1810.736878,8516
1809.859935,8324
1808.982844,8457
1808.105605,8413
1807.228218,8517
1806.350682,8485
1805.472998,8483
1804.595166,8424
1803.717185,8417
1802.839057,8428
1801.960779,8418
1801.082354,8500
1800.20378,8395
1799.325057,8478
1798.446186,8435
1797.567167,8404
1796.687999,8405
1795.808682,8425
1794.929216,8403
1794.049602,8353
1793.16984,8470
1792.289928,8487
1791.409868,8489
1790.529659,8414
1789.649301,8441
1788.768794,8598
1787.888139,8435
1787.007334,8571
1786.126381,8507
1785.245278,8324
1784.364027,8486
1783.482626,8533
1782.601077,8502
1781.719378,8472
1780.83753,8568
1779.955533,8494
1779.073387,8476
1778.191091,8590
1777.308646,8613
1776.426052,8529
1775.543308,8537
1774.660416,8593
1773.777373,8556
1772.894182,8442
1772.01084,8677
1771.12735,8547
1770.243709,8567
1769.359919,8536
1768.47598,8494
1767.591891,8576
1766.707652,8506
1765.823264,8575
1764.938725,8588
1764.054037,8743
1763.1692,8550
1762.284212,8449
1761.399075,8555
1760.513787,8539
1759.62835,8425
1758.742763,8591
1757.857025,8422
1756.971138,8680
1756.085101,8594
1755.198913,8538
1754.312575,8470
1753.426088,8601
1752.53945,8634
1751.652661,8481
1750.765723,8460
1749.878634,8606
1748.991395,8548
1748.104006,8574
1747.216466,8638
1746.328776,8538
1745.440935,8575
1744.552944,8627
1743.664802,8563
1742.77651,8618
1741.888067,8706
1740.999473,8633
1740.110729,8602
1739.221834,8501
1738.332789,8472
1737.443592,8450
1736.554245,8518
1735.664747,8531
1734.775098,8553
1733.885299,8557
1732.995348,8516
1732.105247,8533
1731.214994,8506
1730.32459,8548
1729.434036,8581
1728.54333,8479
1727.652473,8494
1726.761465,8490
1725.870306,8502
1724.978996,8457
1724.087534,8603
1723.195921,8525
1722.304157,8540
1721.412242,8623
1720.520175,8449
1719.627956,8612
1718.735586,8613
1717.843065,8464
1716.950392,8622
1716.057568,8458
1715.164592,8520
1714.271465,8581
1713.378185,8474
1712.484755,8474
1711.591172,8525
1710.697438,8464
1709.803551,8447
1708.909514,8627
1708.015324,8505
1707.120982,8471
1706.226489,8567
1705.331843,8652
1704.437046,8594
1703.542096,8550
1702.646994,8681
1701.751741,8596
1700.856335,8746
1699.960777,8657
1699.065067,8545
1698.169205,8631
1697.27319,8571
1696.377023,8610
1695.480704,8624
1694.584233,8525
1693.687609,8718
1692.790833,8616
1691.893904,8554
1690.996823,8665
1690.099589,8692
1689.202203,8831
1688.304664,8840
1687.406972,8726
1686.509128,8685
1685.611132,8703
1684.712982,8735
1683.81468,8810
1682.916225,8836
1682.017617,8926
1681.118856,8929
1680.219943,8649
1679.320876,8728
1678.421657,8987
1677.522284,8878
1676.622759,8877
1675.72308,8889
1674.823249,8748
1673.923264,8864
1673.023126,8880
1672.122835,8912
1671.222391,8918
1670.321793,8860
1669.421042,8925
1668.520138,8739
1667.619081,8949
1666.71787,8903
1665.816505,8966
1664.914988,9086
1664.013316,8878
1663.111492,8863
1662.209513,8922
1661.307381,8902
1660.405096,8977
1659.502657,9027
1658.600064,9044
1657.697317,8828
1656.794417,8882
1655.891362,8771
1654.988154,8903
1654.084793,9104
1653.181277,8976
1652.277607,9034
1651.373783,8959
1650.469806,8917
1649.565674,8841
1648.661388,9036
1647.756948,8956
1646.852354,8990
1645.947606,8956
1645.042704,8971
1644.137647,8936
1643.232436,9010
1642.327071,9033
1641.421552,8935
1640.515878,9114
1639.61005,9010
1638.704067,8952
1637.79793,8999
1636.891638,8962
1635.985192,9042
1635.078591,9082
1634.171835,9001
1633.264925,9045
1632.357861,8949
1631.450641,9012
1630.543267,9135
1629.635738,9215
1628.728054,9144
1627.820215,9069
1626.912222,9021
1626.004073,9089
1625.09577,8924
1624.187311,9209
1623.278698,9118
1622.36993,9145
1621.461006,9097
1620.551927,9029
1619.642693,9066
1618.733304,9306
1617.82376,9049
1616.914061,9091
1616.004206,9174
1615.094196,9209
1614.18403,9102
1613.273709,9186
1612.363233,9098
1611.452601,9241
1610.541814,9167
1609.630871,9223
1608.719772,9265
1607.808518,9248
1606.897109,9247
1605.985543,9166
1605.073822,9018
1604.161945,9105
1603.249913,9177
1602.337724,9192
1601.42538,9223
1600.51288,9140
1599.600224,9219
1598.687412,9108
1597.774444,9293
1596.86132,9207
1595.94804,9342
1595.034604,9433
1594.121012,9354
1593.207263,9560
1592.293359,9551
1591.379298,9503
1590.465081,9486
1589.550708,9772
1588.636178,9880
1587.721492,9842
1586.806649,9776
1585.89165,9869
1584.976495,9660
1584.061183,9797
1583.145715,9818
1582.23009,9747
1581.314308,9771
1580.39837,9664
1579.482275,9950
1578.566024,9762
1577.649615,9807
1576.73305,9599
1575.816328,9740
1574.899449,9770
1573.982414,9643
1573.065221,9671
1572.147871,9708
1571.230365,9899
1570.312701,9674
1569.394881,9548
1568.476903,9460
1567.558768,9603
1566.640476,9480
1565.722027,9522
1564.80342,9657
1563.884656,9483
1562.965735,9443
1562.046657,9416
1561.127421,9337
1560.208028,9431
1559.288477,9315
1558.368769,9164
1557.448904,9309
1556.528881,9100
1555.6087,9196
1554.688362,9323
1553.767866,9367
1552.847212,9205
1551.9264,9220
1551.005431,9152
1550.084304,9121
1549.163019,9223
1548.241577,9283
1547.319976,9239
1546.398218,9235
1545.476301,9162
1544.554227,9153
1543.631994,9200
1542.709604,9125
1541.787055,9182
1540.864348,9183
1539.941483,9097
1539.01846,9232
1538.095278,9075
1537.171938,9207
1536.24844,9099
1535.324784,9120
1534.400969,9103
1533.476996,9211
1532.552864,9057
1531.628574,9149
1530.704125,9103
1529.779517,9123
1528.854751,8994
1527.929827,9120
1527.004744,9026
1526.079502,9100
1525.154101,9180
1524.228541,9046
1523.302823,9124
1522.376946,8957
1521.45091,9060
1520.524715,9075
1519.598361,9073
1518.671848,9116
1517.745176,9008
1516.818345,9115
1515.891354,8974
1514.964205,9143
1514.036897,9018
1513.109429,9098
1512.181802,8925
1511.254016,9014
1510.32607,9047
1509.397965,8932
1508.469701,8904
1507.541278,9134
1506.612694,9073
1505.683952,9040
1504.75505,8970
1503.825988,9075
1502.896767,9080
1501.967386,9015
1501.037845,9039
1500.108145,9050
1499.178285,9082
1498.248265,9039
1497.318085,9022
1496.387746,9098
1495.457246,9138
1494.526587,8998
1493.595768,9089
1492.664788,9100
1491.733649,9082
1490.80235,9147
1489.87089,9201
1488.939271,9156
1488.007491,8949
1487.075551,9073
1486.143451,9062
1485.21119,9251
1484.278769,9150
1483.346188,9085
1482.413447,9228
1481.480545,9069
1480.547482,9144
1479.614259,9179
1478.680876,9170
1477.747332,9185
1476.813627,9237
1475.879762,9203
1474.945736,9051
1474.011549,9119
1473.077202,9264
1472.142694,9217
1471.208025,9281
1470.273195,9046
1469.338204,9225
1468.403053,9107
1467.46774,9149
1466.532266,9334
1465.596632,9219
1464.660836,9355
1463.724879,9179
1462.788761,9282
1461.852482,9301
1460.916042,9098
1459.97944,9378
1459.042677,9409
1458.105753,9232
1457.168667,9111
1456.23142,9345
1455.294012,9395
1454.356442,9281
1453.418711,9379
1452.480818,9339
1451.542763,9330
1450.604547,9240
1449.666169,9344
1448.72763,9312
1447.788928,9335
1446.850065,9277
1445.911041,9254
1444.971854,9309
1444.032506,9296
1443.092995,9347
1442.153323,9364
1441.213489,9512
1440.273492,9481
1439.333334,9457
1438.393014,9463
1437.452531,9535
1436.511886,9659
1435.571079,9573
1434.63011,9625
1433.688979,9681
1432.747685,9692
1431.806229,9774
1430.864611,9953
1429.92283,9963
1428.980886,9925
1428.038781,9941
1427.096512,10017
1426.154081,9933
1425.211488,9835
1424.268732,9864
1423.325813,9621
1422.382732,9609
1421.439487,9429
1420.49608,9406
1419.55251,9347
1418.608778,9413
1417.664882,9451
1416.720824,9129
1415.776602,9150
1414.832218,9068
1413.88767,9094
1412.94296,9128
1411.998086,9072
1411.053049,8947
1410.107849,9095
1409.162486,9117
1408.216959,9111
1407.271269,9054
1406.325416,9313
1405.3794,9127
1404.43322,9062
1403.486876,9263
1402.54037,9167
1401.593699,9238
1400.646865,9193
1399.699868,9269
1398.752707,9140
1397.805382,9207
1396.857893,9426
1395.910241,9327
1394.962425,9366
1394.014445,9384
1393.066301,9400
1392.117994,9310
1391.169522,9576
1390.220887,9688
1389.272088,9751
1388.323124,9601
1387.373996,9564
1386.424705,9702
1385.475249,9605
1384.525629,9691
1383.575845,9645
1382.625896,9589
1381.675784,9505
1380.725506,9399
1379.775065,9448
1378.824459,9489
1377.873689,9428
1376.922754,9406
1375.971655,9403
1375.020391,9480
1374.068962,9356
1373.117369,9437
1372.165612,9540
1371.213689,9415
1370.261602,9386
1369.30935,9321
1368.356933,9381
1367.404352,9285
1366.451605,9470
1365.498694,9429
1364.545617,9395
1363.592376,9374
1362.638969,9313
1361.685398,9336
1360.731661,9357
1359.777759,9282
1358.823692,9312
1357.86946,9316
1356.915063,9187
1355.9605,9427
1355.005772,9198
1354.050878,9230
1353.095819,9382
1352.140595,9187
1351.185205,9275
1350.22965,9103
1349.273929,9228
1348.318042,9210
1347.36199,9217
1346.405772,9132
1345.449389,9261
1344.492839,9263
1343.536124,9221
1342.579243,9308
1341.622196,9175
1340.664984,9233
1339.707605,9204
1338.75006,9155
1337.79235,9146
1336.834473,9261
1335.87643,9045
1334.918222,9233
1333.959846,9173
1333.001305,9249
1332.042598,9284
1331.083724,9180
1330.124684,9056
1329.165477,9149
1328.206104,9143
1327.246565,9055
1326.286859,9222
1325.326987,9170
1324.366948,9236
1323.406743,9047
1322.446371,9080
1321.485832,9014
1320.525127,9019
1319.564255,9142
1318.603216,9148
1317.64201,9017
1316.680638,9063
1315.719099,9086
1314.757392,9032
1313.795519,9105
1312.833479,9106
1311.871271,9022
1310.908897,9037
1309.946356,9052
1308.983647,9112
1308.020771,9019
1307.057728,9079
1306.094518,9140
1305.13114,9079
1304.167595,9049
1303.203883,9175
1302.240003,9181
1301.275956,9150
1300.311741,9192
1299.347359,8986
1298.382809,8985
1297.418092,9059
1296.453207,9083
1295.488154,9105
1294.522934,9005
1293.557545,8966
1292.591989,9084
1291.626265,8878
1290.660374,9042
1289.694314,8993
1288.728086,8902
1287.761691,8887
1286.795127,8969
1285.828396,8930
1284.861496,9041
1283.894428,9111
1282.927192,8978
1281.959787,8960
1280.992215,8954
1280.024474,8983
1279.056565,9028
1278.088487,9070
1277.120241,9120
1276.151827,8969
1275.183244,8814
1274.214492,9113
1273.245572,9068
1272.276484,8970
1271.307226,8975
1270.3378,8998
1269.368206,9001
1268.398442,8960
1267.42851,8911
1266.458409,8920
1265.488139,8978
1264.5177,8897
1263.547092,9054
1262.576316,9055
1261.60537,8946
1260.634255,8916
1259.662971,9086
1258.691518,9000
1257.719896,8972
1256.748104,8883
1255.776143,8885
1254.804013,9061
1253.831714,8882
1252.859245,8813
1251.886607,9010
1250.913799,8949
1249.940822,8957
1248.967675,9027
1247.994359,8910
1247.020873,8952
1246.047217,8876
1245.073392,8888
1244.099397,8859
1243.125233,8980
1242.150898,8856
1241.176394,9000
1240.20172,8859
1239.226875,8890
1238.251861,8996
1237.276677,8828
1236.301323,8906
1235.325799,8786
1234.350104,8818
1233.37424,8780
1232.398205,8835
1231.422,8782
1230.445625,8855
1229.46908,8890
1228.492364,8780
1227.515478,8743
1226.538421,8809
1225.561194,8802
1224.583796,8792
1223.606228,8653
1222.628489,8756
1221.65058,8570
1220.6725,8749
1219.694249,8703
1218.715828,8860
1217.737236,8754
1216.758473,8661
1215.779539,8646
1214.800434,8689
1213.821158,8689
1212.841711,8681
1211.862094,8659
1210.882305,8688
1209.902345,8664
1208.922214,8725
1207.941912,8565
1206.961438,8706
1205.980794,8556
1204.999978,8724
1204.018991,8701
1203.037832,8691
1202.056502,8782
1201.075,8621
1200.093328,8617
1199.111483,8822
1198.129467,8540
1197.147279,8730
1196.16492,8801
1195.182389,8719
1194.199686,8669
1193.216812,8686
1192.233766,8704
1191.250547,8810
1190.267158,8656
1189.283596,8887
1188.299862,8968
1187.315956,8806
1186.331878,8887
1185.347628,8998
1184.363206,8928
1183.378612,8895
1182.393845,8936
1181.408906,8821
1180.423796,8737
1179.438512,8829
1178.453057,8768
1177.467429,8782
1176.481628,8734
1175.495655,8759
1174.50951,8703
1173.523192,8704
1172.536701,8672
1171.550038,8707
1170.563202,8732
1169.576193,8688
1168.589012,8640
1167.601658,8651
1166.614131,8776
1165.626431,8594
1164.638558,8639
1163.650512,8601
1162.662294,8605
1161.673902,8675
1160.685337,8688
1159.696599,8621
1158.707688,8578
1157.718604,8551
1156.729346,8564
1155.739915,8672
1154.750311,8600
1153.760534,8649
1152.770583,8628
1151.780459,8660
1150.790161,8655
1149.79969,8577
1148.809045,8809
1147.818227,8853
1146.827234,8763
1145.836069,8859
1144.844729,8857
1143.853216,8893
1142.861529,9014
1141.869668,9112
1140.877634,9049
1139.885425,9170
1138.893043,9206
1137.900486,9346
1136.907756,9249
1135.914851,9117
1134.921772,9064
1133.928519,8942
1132.935092,8983
1131.941491,8956
1130.947715,8829
1129.953765,8709
1128.959641,8609
1127.965342,8509
1126.970869,8599
1125.976222,8580
1124.9814,8462
1123.986403,8386
1122.991232,8515
1121.995886,8421
1121.000365,8415
1120.00467,8402
1119.0088,8414
1118.012755,8401
1117.016536,8344
1116.020141,8325
1115.023571,8324
1114.026827,8452
1113.029908,8257
1112.032813,8342
1111.035544,8402
1110.038099,8261
1109.040479,8336
1108.042684,8275
1107.044714,8299
1106.046568,8227
1105.048247,8341
1104.049751,8350
1103.051079,8485
1102.052232,8355
1101.053209,8396
1100.054011,8355
1099.054637,8384
1098.055088,8380
1097.055363,8447
1096.055462,8553
1095.055386,8430
1094.055134,8449
1093.054706,8542
1092.054102,8452
1091.053322,8515
1090.052366,8547
1089.051235,8420
1088.049927,8448
1087.048443,8526
1086.046783,8642
1085.044947,8688
1084.042935,8755
1083.040747,8908
1082.038382,8922
1081.035841,9006
1080.033124,8934
1079.03023,9167
1078.02716,9125
1077.023913,9125
1076.02049,9219
1075.016891,9059
1074.013114,9067
1073.009161,9186
1072.005032,9004
1071.000726,8922
1069.996243,8884
1068.991583,8977
1067.986746,8988
1066.981733,8678
1065.976542,8626
1064.971175,8540
1063.96563,8526
1062.959909,8554
1061.95401,8425
1060.947934,8293
1059.941682,8251
1058.935251,8237
1057.928644,8367
1056.92186,8396
1055.914898,8259
1054.907758,8400
1053.900442,8164
1052.892947,8274
1051.885276,8133
1050.877426,8092
1049.8694,8154
1048.861195,8123
1047.852813,7949
1046.844253,8051
1045.835516,8116
1044.8266,8085
1043.817507,8063
1042.808236,8129
1041.798787,8113
1040.78916,7995
1039.779355,8102
1038.769372,8134
1037.759211,8183
1036.748872,8200
1035.738355,7918
1034.72766,7965
1033.716786,8048
1032.705734,7992
1031.694503,8157
1030.683095,7988
1029.671508,7950
1028.659742,8042
1027.647798,8126
1026.635675,8132
1025.623374,8118
1024.610894,8048
1023.598236,7939
1022.585399,7893
1021.572383,8093
1020.559188,8114
1019.545814,8029
1018.532262,8070
1017.518531,8025
1016.504621,8001
1015.490531,8102
1014.476263,8026
1013.461816,8078
1012.447189,8079
1011.432383,7934
1010.417399,8006
1009.402235,8214
1008.386891,8205
1007.371368,7997
1006.355666,8218
1005.339785,8086
1004.323724,8219
1003.307483,8182
1002.291063,8164
1001.274464,8143
1000.257685,8106
999.2407258,7996
998.2235873,8092
997.2062689,8064
996.1887708,8192
995.1710929,8051
994.1532351,8088
993.1351974,8030
992.1169797,8120
991.098582,8011
990.0800042,7960
989.0612464,7990
988.0423085,8045
987.0231904,8103
986.003892,7952
984.9844134,8058
983.9647546,8069
982.9449153,7982
981.9248957,8089
980.9046957,7989
979.8843152,7909
978.8637542,8003
977.8430127,8003
976.8220905,7871
975.8009877,7993
974.7797043,7926
973.7582401,7903
972.7365952,7969
971.7147694,8012
970.6927628,7864
969.6705754,7945
968.6482069,7826
967.6256576,7977
966.6029272,8022
965.5800157,7757
964.5569231,7793
963.5336494,7835
962.5101945,7843
961.4865584,7873
960.462741,7785
959.4387423,7738
958.4145623,7888
957.3902008,7722
956.3656579,7884
955.3409335,7863
954.3160276,7908
953.2909401,7714
952.265671,7820
951.2402203,7800
950.2145878,7874
949.1887736,7843
948.1627777,7781
947.1365999,7807
946.1102402,7743
945.0836986,7738
944.0569751,7836
943.0300696,7677
942.002982,7693
940.9757123,7759
939.9482606,7599
938.9206266,7789
937.8928105,7728
936.8648121,7797
935.8366314,7759
934.8082683,7703
933.7797229,7704
932.750995,7830
931.7220847,7804
930.6929919,7744
929.6637165,7618
928.6342585,7782
927.6046179,7809
926.5747946,7773
925.5447886,7759
924.5145998,7675
923.4842282,7635
922.4536737,7789
921.4229363,7809
920.392016,7759
919.3609127,7751
918.3296264,7755
917.298157,7749
916.2665045,7763
915.2346689,7896
914.20265,7919
913.1704479,7885
912.1380626,7791
911.1054938,7704
910.0727418,7821
909.0398063,7787
908.0066873,7819
906.9733848,7728
905.9398988,7785
904.9062292,7699
903.872376,7792
902.8383391,7744
901.8041185,7634
900.7697141,7652
899.7351259,7643
898.7003538,7789
897.6653979,7813
896.630258,7680
895.5949342,7785
894.5594263,7676
893.5237344,7670
892.4878583,7713
891.4517981,7751
890.4155537,7663
889.3791251,7680
888.3425122,7678
887.305715,7686
886.2687333,7679
885.2315673,7669
884.1942168,7547
883.1566818,7596
882.1189623,7585
881.0810582,7529
880.0429694,7599
879.004696,7649
877.9662379,7573
876.9275949,7437
875.8887672,7573
874.8497547,7562
873.8105572,7571
872.7711748,7553
871.7316074,7386
870.691855,7521
869.6519176,7508
868.611795,7500
867.5714872,7603
866.5309943,7551
865.4903161,7420
864.4494526,7616
863.4084038,7472
862.3671696,7482
861.32575,7578
860.284145,7393
859.2423544,7395
858.2003783,7403
857.1582166,7420
856.1158692,7514
855.0733362,7376
854.0306174,7428
852.9877128,7372
851.9446225,7500
850.9013463,7403
849.8578842,7456
848.8142361,7529
847.770402,7354
846.726382,7445
845.6821758,7425
844.6377835,7411
843.593205,7454
842.5484404,7495
841.5034894,7460
840.4583522,7501
839.4130286,7357
838.3675187,7515
837.3218223,7492
836.2759394,7520
835.22987,7447
834.1836141,7615
833.1371715,7570
832.0905423,7461
831.0437263,7376
829.9967237,7483
828.9495342,7520
827.902158,7385
826.8545948,7416
825.8068447,7488
824.7589077,7389
823.7107836,7361
822.6624725,7369
821.6139743,7375
820.565289,7403
819.5164165,7447
818.4673567,7324
817.4181097,7457
816.3686753,7263
815.3190536,7324
814.2692445,7532
813.2192479,7319
812.1690638,7384
811.1186922,7428
810.068133,7392
809.0173861,7451
807.9664516,7370
806.9153294,7395
805.8640194,7348
804.8125216,7383
803.7608359,7316
802.7089623,7353
801.6569008,7296
800.6046513,7223
799.5522138,7359
798.4995882,7338
797.4467744,7370
796.3937725,7261
795.3405824,7207
794.287204,7242
793.2336373,7177
792.1798823,7285
791.1259389,7311
790.071807,7257
789.0174867,7178
787.9629778,7247
786.9082804,7194
785.8533943,7180
784.7983196,7208
783.7430562,7227
782.687604,7218
781.6319631,7090
780.5761332,7280
779.5201145,7229
778.4639069,7260
777.4075103,7184
776.3509247,7104
775.29415,7080
774.2371862,7083
773.1800332,7261
772.122691,7161
771.0651596,7087
770.0074389,7104
768.9495289,7237
767.8914295,7080
766.8331406,7131
765.7746623,7115
764.7159944,7245
763.657137,7121
762.59809,7112
761.5388533,7101
760.479427,7131
759.4198108,7136
758.3600049,7143
757.3000092,7151
756.2398236,7179
755.179448,7228
754.1188825,7202
753.058127,7136
751.9971814,7140
750.9360457,7090
749.8747198,7085
748.8132038,7170
747.7514974,7143
746.6896009,7120
745.6275139,7188
744.5652366,7151
743.5027689,7115
742.4401107,7116
741.377262,7134
740.3142227,7165
739.2509928,7151
738.1875723,7155
737.123961,7080
736.060159,7072
734.9961663,7023
733.9319826,7046
732.8676081,7113
731.8030427,6964
730.7382863,7137
729.6733389,7060
728.6082004,7163
727.5428708,7046
726.4773501,7083
725.4116381,6999
724.345735,6983
723.2796405,7090
722.2133546,7036
721.1468774,6938
720.0802088,7017
719.0133487,7011
717.946297,7045
716.8790538,6915
715.811619,7042
714.7439925,7036
713.6761743,6965
712.6081643,7077
711.5399626,6890
710.471569,7047
709.4029835,6942
708.3342061,6882
707.2652367,6874
706.1960753,6771
705.1267218,6875
704.0571762,6898
702.9874384,6779
701.9175084,6940
700.8473861,6803
699.7770715,6845
698.7065646,6901
697.6358653,6716
696.5649736,6837
695.4938893,6702
694.4226125,6912
693.3511432,6816
692.2794812,6832
691.2076265,6761
690.1355791,6853
689.063339,6723
687.990906,6698
686.9182802,6819
685.8454614,6799
684.7724497,6813
683.6992451,6747
682.6258473,6741
681.5522565,6851
680.4784725,6882
679.4044954,6844
678.330325,6735
677.2559614,6823
676.1814044,6841
675.106654,6799
674.0317103,6855
672.956573,6741
671.8812423,6752
670.805718,6774
669.7300001,6863
668.6540886,6828
667.5779833,6724
666.5016843,6864
665.4251916,6743
664.348505,6896
663.2716245,6872
662.19455,6724
661.1172816,6803
660.0398192,6846
658.9621627,6912
657.8843121,6758
656.8062674,6787
655.7280284,6778
654.6495951,6764
653.5709676,6727
652.4921457,6704
651.4131294,6778
650.3339187,6719
649.2545135,6934
648.1749137,6642
647.0951194,6698
646.0151304,6796
644.9349467,6680
643.8545684,6752
642.7739952,6712
641.6932273,6689
640.6122644,6658
639.5311067,6675
638.449754,6737
637.3682063,6735
636.2864635,6683
635.2045256,6798
634.1223926,6661
633.0400644,6592
631.9575409,6600
630.8748222,6628
629.7919081,6642
628.7087986,6606
627.6254937,6548
626.5419934,6541
625.4582975,6625
624.374406,6619
623.2903189,6541
622.2060361,6671
621.1215577,6551
620.0368834,6564
618.9520134,6598
617.8669475,6643
616.7816857,6470
615.6962279,6628
614.6105742,6582
613.5247244,6469
612.4386785,6628
611.3524364,6468
610.2659982,6571
609.1793638,6570.250203
608.092533,6569.500271
607.005506,6568.750203
605.9182825,6568
604.8308626,6567
603.7432463,6536
602.6554334,6432
601.567424,6487
600.4792179,6587
599.3908152,6516
598.3022158,6457
597.2134196,6510
596.1244266,6425
595.0352368,6453
593.9458501,6472
592.8562664,6467
591.7664857,6301
590.676508,6600
589.5863331,6417
588.4959612,6486
587.405392,6451
586.3146257,6377
585.223662,6399
584.132501,6439
583.0411426,6462
581.9495868,6521
580.8578335,6402
579.7658827,6430
578.6737344,6423
577.5813884,6492
576.4888447,6355
575.3961034,6383
574.3031643,6313
573.2100273,6331
572.1166925,6303
571.0231598,6301
569.9294292,6461
568.8355005,6364
567.7413738,6433
566.647049,6372
565.5525261,6335
564.4578049,6388
563.3628856,6399
562.2677679,6334
561.1724519,6292
560.0769375,6256
558.9812246,6258
557.8853133,6248
556.7892035,6307
555.6928951,6221
554.596388,6192
553.4996823,6258
552.4027778,6312
551.3056746,6140
550.2083726,6273
549.1108717,6225
548.0131718,6335
546.915273,6215
545.8171752,6287
544.7188784,6243
543.6203824,6218
542.5216873,6243
541.4227929,6223
540.3236993,6316
539.2244064,6199
538.1249141,6199
537.0252225,6317
535.9253314,6251
534.8252408,6292
533.7249506,6208
532.6244609,6203
531.5237715,6153
530.4228824,6113
529.3217936,6183
528.2205049,6174
527.1190165,6226
526.0173282,6229
524.9154399,6114
523.8133516,6123
522.7110633,6190
521.6085749,6250
520.5058864,6118
519.4029978,6199
518.2999088,6105
517.1966197,6156
516.0931301,6205
514.9894402,6183
513.8855499,6124
512.7814591,6164
511.6771678,6125
510.572676,6258
509.4679835,6119
508.3630903,6081
507.2579964,6117
506.1527018,6007
505.0472063,6151
503.94151,6129
502.8356128,6032
501.7295146,6123
500.6232154,6036
499.5167151,6090
498.4100137,6175
497.3031112,6118
496.1960075,6051
495.0887025,6030
493.9811962,6141
492.8734885,6052
491.7655795,6008
490.657469,6120
489.549157,5989
488.4406434,6228
487.3319282,6115
486.2230114,6108
485.1138929,5930
484.0045727,5964
482.8950506,5969
481.7853267,6057
480.6754009,6032
479.5652732,6005
478.4549434,5903
477.3444117,5880
476.2336778,5996
475.1227418,5975
474.0116036,5937
472.9002631,5920
471.7887204,5954
470.6769753,5868
469.5650278,5960
468.4528779,5903
467.3405255,5867
466.2279706,5930
465.1152131,5869
464.0022529,5852
462.8890901,5929
461.7757245,5952
460.6621561,5784
459.5483849,5876
458.4344108,5875
457.3202338,5829
456.2058538,5839
455.0912707,5869
453.9764846,5925
452.8614954,5976
451.7463029,5870
450.6309072,5828
449.5153083,5846
448.399506,5769
447.2835003,5853
446.1672912,5846
445.0508786,5819
443.9342624,5809
442.8174427,5780
441.7004194,5764
440.5831923,5707
439.4657616,5775
438.348127,5815
437.2302887,5771
436.1122464,5828
434.9940002,5849
433.8755501,5754
432.7568959,5701
431.6380376,5726
430.5189751,5796
429.3997085,5723
428.2802377,5714
427.1605626,5723
426.0406832,5746
424.9205993,5711
423.8003111,5786
422.6798183,5603
421.559121,5719
420.4382192,5648
419.3171127,5657
418.1958015,5789
417.0742856,5582
415.9525649,5655
414.8306393,5697
413.7085089,5650
412.5861735,5720
411.4636332,5606
410.3408878,5692
409.2179373,5580
408.0947817,5656
406.9714209,5682
405.8478549,5597
404.7240836,5666
403.6001069,5569
402.4759249,5689
401.3515374,5685
400.2269444,5699
399.1021459,5679
397.9771418,5711
396.851932,5624
395.7265166,5694
394.6008954,5605
393.4750684,5726
392.3490355,5641
391.2227968,5632
390.0963521,5596
388.9697015,5764
387.8428447,5687
386.7157819,5676
385.588513,5630
384.4610378,5615
383.3333564,5743
382.2054687,5698
381.0773746,5700
379.9490741,5535
378.8205672,5529
377.6918537,5548
376.5629338,5578
375.4338072,5478
374.3044739,5525
373.1749339,5527
372.0451872,5485
370.9152337,5609
369.7850733,5529
368.654706,5405
367.5241317,5531
366.3933504,5605
365.2623621,5363
364.1311666,5386
362.999764,5542
361.8681541,5404
360.736337,5379
359.6043126,5450
358.4720807,5474
357.3396415,5382
356.2069948,5437
355.0741405,5328
353.9410787,5327
352.8078093,5404
