#Wave,#Intensity1,#Intensity2
2261.862186,5236,4717
2261.060512,5259,4711
2260.258706,5270,4807
2259.456768,5283,4718
2258.654698,5327,4670
2257.852495,5248,4683
2257.050161,5324,4687
2256.247694,5317.502679,4702
2255.445094,5311.004287,4736
2254.642363,5304.504823,4808
2253.839499,5298.004287,4713
2253.036502,5291.50268,4657
2252.233374,5285,4661
2251.430112,5339,4726
2250.626719,5240,4690
2249.823192,5243.913114,4687
2249.019534,5247.826874,4597
2248.215742,5251.74128,4735
2247.411818,5255.656331,4729
2246.607762,5259.572027,4769
2245.803573,5263.48837,4628
2244.999251,5267.405359,4680
2244.194796,5271.322994,4711
2243.390209,5275.241276,4757
2242.585489,5279.160204,4701
2241.780636,5283.079779,4689
2240.97565,5287,4720
2240.170532,5323,4805
2239.365281,5354,4692
2238.559896,5282,4763
2237.754379,5334,4714
2236.948729,5306,4656
2236.142946,5316,4664
2235.33703,5331,4751
2234.530981,5289,4752
2233.724799,5259,4743
2232.918484,5247,4743
2232.112035,5268,4689
2231.305454,5303,4728
2230.498739,5324,4742
2229.691891,5330,4669
2228.88491,5345,4727
2228.077796,5292,4749
2227.270548,5330,4699
2226.463167,5243,4703
2225.655653,5280,4692
2224.848005,5323,4733
2224.040224,5305,4784
2223.23231,5388,4752
2222.424262,5331,4729
2221.616081,5394,4736
2220.807766,5386,4748
2219.999318,5345,4753
2219.190736,5402,4770
2218.38202,5344,4757
2217.573171,5339,4749
2216.764188,5381,4748
2215.955072,5328,4700
2215.145822,5382,4778
2214.336438,5399,4739
2213.52692,5347,4762
2212.717269,5361,4764
2211.907484,5332,4724
2211.097565,5269,4772
2210.287512,5245,4758
2209.477325,5358,4745
2208.667005,5358,4763
2207.85655,5364,4751
2207.045961,5320,4766
2206.235239,5374,4721
2205.424382,5374,4762
2204.613392,5303,4785
2203.802267,5358,4720
2202.991008,5379,4757
2202.179615,5368,4762
2201.368088,5337,4791
2200.556426,5277,4758
2199.744631,5378,4773
2198.932701,5295,4742
2198.120637,5282,4756
2197.308438,5382,4734
2196.496105,5371,4752
2195.683638,5337,4835
2194.871037,5376,4744
2194.058301,5317,4767
2193.24543,5383,4728
2192.432425,5335,4710
2191.619286,5377,4858
2190.806012,5286,4798
2189.992604,5305,4780
2189.179061,5320,4780
2188.365383,5331,4870
2187.55157,5394,4804
2186.737623,5316,4768
2185.923542,5394,4723
2185.109325,5306,4725
2184.294974,5331,4837
2183.480488,5380,4787
2182.665867,5331,4771
2181.851112,5363,4775
2181.036221,5373,4816
2180.221196,5469,4798
2179.406035,5336,4818
2178.59074,5381,4746
2177.77531,5442,4802
2176.959744,5325,4815
2176.144044,5330,4774
2175.328208,5395,4721
2174.512238,5403,4718
2173.696132,5380,4795
2172.879892,5391,4797
2172.063516,5406,4711
2171.247004,5341,4692
2170.430358,5300,4699
2169.613576,5347,4754
2168.796659,5328,4689
2167.979607,5309,4723
2167.162419,5385,4676
2166.345096,5394,4766
2165.527638,5312,4731
2164.710044,5268,4726
2163.892314,5318,4791
2163.07445,5402,4770
2162.256449,5330,4718
2161.438313,5408,4745
2160.620042,5289,4782
2159.801635,5400,4731
2158.983092,5263,4891
2158.164414,5365,4784
2157.345599,5289,4802
2156.52665,5395,4798
2155.707564,5347,4798
2154.888343,5398,4857
2154.068986,5427,4776
2153.249493,5318,4865
2152.429864,5431,4805
2151.610099,5396,4772
2150.790198,5414,4749
2149.970162,5368,4780
2149.149989,5358,4806
2148.329681,5420,4814
2147.509236,5384,4777
2146.688655,5410,4817
2145.867938,5356,4709
2145.047086,5272,4806
2144.226097,5409,4808
2143.404971,5352,4743
2142.58371,5400,4811
2141.762312,5401,4807
2140.940778,5340,4809
2140.119108,5271,4788
2139.297302,5349,4733
2138.475359,5451,4785
2137.653279,5334,4809
2136.831064,5474,4772
2136.008712,5418,4839
2135.186223,5408,4756
2134.363598,5396,4831
2133.540837,5315,4859
2132.717938,5321,4794
2131.894904,5378,4741
2131.071732,5396,4754
2130.248425,5409,4731
2129.42498,5429,4794
2128.601399,5339,4787
2127.777681,5388,4798
2126.953826,5376,4724
2126.129834,5333,4791
2125.305706,5374,4798
2124.481441,5314,4796
2123.657039,5400,4809
2122.8325,5490,4810
2122.007824,5410,4762
2121.183011,5403,4750
2120.358061,5382,4793
2119.532975,5399,4873
2118.707751,5394,4804
2117.88239,5404,4798
2117.056892,5407,4806
2116.231257,5457,4809
2115.405484,5425,4861
2114.579575,5424,4808
2113.753528,5357,4676
2112.927344,5452,4800
2112.101023,5453,4782
2111.274565,5388,4812
2110.447969,5414,4816
2109.621236,5422,4812
2108.794365,5397,4730
2107.967357,5428,4859
2107.140212,5431,4836
2106.312929,5393,4799
2105.485509,5404,4904
2104.657951,5484,4745
2103.830255,5481,4895
2103.002422,5416,4833
2102.174452,5420,4863
2101.346344,5425,4829
2100.518098,5438,4815
2099.689714,5388,4837
2098.861193,5482,4877
2098.032533,5444,4865
2097.203736,5414,4839
2096.374802,5453,4887
2095.545729,5424,4780
2094.716519,5419,4843
2093.88717,5482,4828
2093.057684,5563,4864
2092.22806,5434,4884
2091.398297,5429,4842
2090.568397,5483,4801
2089.738359,5488,4895
2088.908182,5415,4896
2088.077868,5429,4827
2087.247415,5499,4838
2086.416824,5442,4928
2085.586095,5417,4806
2084.755228,5479,4836
2083.924222,5459,4834
2083.093078,5431,4880
2082.261796,5442,4883
2081.430376,5369,4882
2080.598817,5420,4841
2079.76712,5391,4881
2078.935284,5379,4829
2078.10331,5451,4905
2077.271197,5431,4860
2076.438946,5446,4828
2075.606556,5462,4875
2074.774028,5432,4888
2073.941361,5375,4821
2073.108556,5452,4807
2072.275612,5455,4884
2071.442529,5462,4860
2070.609307,5471,4893
2069.775947,5504,4873
2068.942448,5488,4833
2068.10881,5487,4795
2067.275033,5417,4844
2066.441117,5470,4787
2065.607063,5405,4798
2064.772869,5514,4854
2063.938537,5451,4899
2063.104066,5461,4824
2062.269455,5422,4851
2061.434706,5406,4817
2060.599817,5525,4858
2059.764789,5336,4851
2058.929623,5424,4854
2058.094317,5510,4932
2057.258872,5444,4850
2056.423287,5403,4864
2055.587564,5457,4848
2054.751701,5439,4834
2053.915698,5501,4840
2053.079557,5479,4910
2052.243276,5461,4830
2051.406856,5447,4844
2050.570296,5416,4928
2049.733597,5389,4860
2048.896758,5426,4878
2048.05978,5389,4892
2047.222662,5389,4891
2046.385405,5478,4799
2045.548008,5359,4883
2044.710471,5483,4867
2043.872795,5542,4845
2043.034979,5436,4818
2042.197023,5429,4879
2041.358928,5489,4905
2040.520692,5436,4864
2039.682317,5399,4803
2038.843802,5462,4845
2038.005148,5503,4743
2037.166353,5429,4839
2036.327418,5515,4906
2035.488344,5422,4901
2034.649129,5514,4858
2033.809775,5483,4912
2032.97028,5459,4878
2032.130646,5488,4869
2031.290871,5422,4787
2030.450956,5513,4819
2029.610901,5491,4874
2028.770705,5589,4864
2027.93037,5486,4827
2027.089894,5471,4903
2026.249278,5419,4813
2025.408521,5520,4881
2024.567625,5536,4873
2023.726588,5423,4897
2022.88541,5475,4898
2022.044092,5540,4844
2021.202634,5482,4912
2020.361035,5477,4993
2019.519295,5502,4807
2018.677415,5472,4773
2017.835394,5460,4849
2016.993233,5432,4906
2016.150931,5496,4871
2015.308489,5521,4881
2014.465905,5535,4885
2013.623181,5414,4804
2012.780317,5455,4919
2011.937311,5439,4954
2011.094165,5520,4898
2010.250877,5486,4885
2009.407449,5567,4868
2008.56388,5455,4841
2007.72017,5405,4824
2006.876319,5597,4922
2006.032327,5459,4957
2005.188194,5547,4944
2004.34392,5463,4880
2003.499505,5524,4989
2002.654948,5433,4916
2001.810251,5508,4907
2000.965412,5430,4867
2000.120432,5494,4932
1999.275311,5498,4896
1998.430049,5530,4996
1997.584645,5541,4914
1996.7391,5579,4872
1995.893414,5506,4939
1995.047586,5577,4906
1994.201617,5615,4943
1993.355506,5527,4931
1992.509254,5584,4913
1991.66286,5644,4967
1990.816325,5454,4920
1989.969648,5506,4912
1989.122829,5536,4937
1988.275869,5625,4893
1987.428768,5508,4936
1986.581524,5541,4906
1985.734139,5580,4910
1984.886612,5565,4957
1984.038943,5665,4963
1983.191133,5543,4907
1982.34318,5548,4869
1981.495086,5529,4973
1980.64685,5653,4975
1979.798472,5503,4971
1978.949951,5583,4880
1978.101289,5626,4908
1977.252485,5619,4919
1976.403539,5488,4964
1975.554451,5562,4893
1974.70522,5633,4919
1973.855848,5695,4998
1973.006333,5521,5049
1972.156676,5649,4939
1971.306877,5603,4907
1970.456935,5568,4960
1969.606851,5566,4900
1968.756625,5627,4943
1967.906257,5595,4982
1967.055746,5444,4931
1966.205093,5517,4957
1965.354297,5559,4921
1964.503359,5550,5013
1963.652278,5619,4997.721965
1962.801054,5642,4982.441372
1961.949688,5517,4967.158218
1961.09818,5547,4951.872505
1960.246529,5628,4936.584231
1959.394735,5573,4921.293397
1958.542798,5518,4906
1957.690719,5559,4980
1956.838497,5551,4940
1955.986132,5593,4950
1955.133625,5575,5045
1954.280974,5518,4960
1953.428181,5574,4963
1952.575244,5573,4989
1951.722165,5660,4934
1950.868943,5605,4966
1950.015578,5620,4991
1949.162069,5530,4957
1948.308418,5689,4909
1947.454624,5636,4977
1946.600686,5599,4971
1945.746605,5554,4967
1944.892381,5615,4970
1944.038014,5577,4974
1943.183504,5628,4897
1942.32885,5589,4966
1941.474053,5552,4964
1940.619113,5565,4969
1939.764029,5544,4957
1938.908802,5596,4946
1938.053432,5562,4903
1937.197918,5560,4981
1936.34226,5621,4902
1935.486459,5596,5003
1934.630514,5485,4900
1933.774426,5612,4943
1932.918195,5507,4974
1932.061819,5642,4942
1931.2053,5640,4960
1930.348637,5596,4909
1929.49183,5645,5043
1928.63488,5574,4984
1927.777786,5543,4974
1926.920548,5557,4979
1926.063166,5579,5032
1925.20564,5607,4929
1924.347971,5541,4894
1923.490157,5661,5021
1922.632199,5559,5019
1921.774098,5592,4950
1920.915852,5556,5013
1920.057462,5535,5014
1919.198928,5613,4982
1918.34025,5628,4921
1917.481428,5622,4923
1916.622461,5560,4978
1915.763351,5627,4967
1914.904096,5641,5006
1914.044696,5678,5002
1913.185153,5631,4964
1912.325465,5661,5006
1911.465633,5528,5009
1910.605656,5651,4963
1909.745535,5662,4948
1908.885269,5667,4990
1908.024859,5572,5086
1907.164304,5695,5012
1906.303605,5660,5035
1905.442761,5653,5068
1904.581772,5634,5029
1903.720639,5666,5017
1902.859361,5557,5013
1901.997938,5667,4967
1901.136371,5660,4982
1900.274658,5653,4991
1899.412801,5729,5060
1898.550799,5672,4944
1897.688652,5602,5086
1896.826361,5704,5007
1895.963924,5688,4993
1895.101342,5658,4953
1894.238615,5706,5008
1893.375744,5719,5103
1892.512727,5681,5018
1891.649565,5739,4971
1890.786258,5652,5073
1889.922805,5666,5058
1889.059208,5764,5083
1888.195465,5705,5042
1887.331577,5716,5025
1886.467544,5779,5080
1885.603365,5735,5034
1884.739041,5617,5057
1883.874572,5657,5008
1883.009957,5655,5030
1882.145197,5656,5073
1881.280291,5688,5055
1880.41524,5691,5095
1879.550043,5795,4999
1878.684701,5659,5084
1877.819213,5733,5016
1876.95358,5784,5028
1876.0878,5799,5052
1875.221875,5706,5044
1874.355805,5765,5095
1873.489588,5700,5038
1872.623226,5822,4976
1871.756718,5739,5004.190507
1870.890064,5680,5032.38576
1870.023264,5739,5060.585759
1869.156318,5689,5088.790505
1868.289226,5726,5117
1867.421989,5728,5113.715945
1866.554605,5704,5110.431337
1865.687075,5662,5107.146176
1864.819399,5756,5103.860462
1863.951577,5735,5100.574195
1863.083609,5694,5097.287374
1862.215495,5700,5094
1861.347234,5645,5049
1860.478828,5645.499705,5049.499705
1859.610275,5645.999495,5049.999495
1858.741575,5646.499368,5050.499368
1857.87273,5646.999326,5050.999326
1857.003738,5647.499368,5051.499368
1856.134599,5647.999495,5051.999495
1855.265314,5648.499705,5052.499705
1854.395883,5649,5053
1853.526305,5712,5067
1852.656581,5776,5128
1851.78671,5718,5086
1850.916692,5748,5120
1850.046528,5719,5074
1849.176218,5725,5115
1848.30576,5734,5041
1847.435156,5770,4987
1846.564405,5820,5112
1845.693508,5753,5113
1844.822463,5688,5065
1843.951272,5744,4969
1843.079934,5743,5029
1842.208448,5748,5090
1841.336816,5794,5047
1840.465037,5706,5090
1839.593111,5721,5071
1838.721038,5748,5140
1837.848818,5695,4999
1836.976451,5697,5071
1836.103937,5786,5021
1835.231275,5780,5091
1834.358467,5715,5052
1833.485511,5710,5138
1832.612408,5776,5045
1831.739157,5713,5080
1830.86576,5701,5022
1829.992215,5715,5057
1829.118522,5683,5075
1828.244682,5739,5083
1827.370695,5746,5117
1826.49656,5722,5098
1825.622278,5741,5092
1824.747848,5771,5019
1823.87327,5759,5128
1822.998545,5779,5104
1822.123673,5719,5116
1821.248652,5799,5060
1820.373484,5808,5072
1819.498169,5758,5132
1818.622705,5794,5084
1817.747094,5716,5023
1816.871334,5800,5167
1815.995427,5703,5062
1815.119372,5745,5065
1814.24317,5724,4994
1813.366819,5789,5099
1812.49032,5699,5092
1811.613673,5750,5052
1810.736878,5696,5179
1809.859935,5823,5057
1808.982844,5746,5095
1808.105605,5685,5095
1807.228218,5713,5020
1806.350682,5859,5131
1805.472998,5752,5075
1804.595166,5766,5035
1803.717185,5775,5118
1802.839057,5814,5229
1801.960779,5662,5074
1801.082354,5808,5071
1800.20378,5761,5109
1799.325057,5763,5128
1798.446186,5852,5158
1797.567167,5799,5054
1796.687999,5668,5086
1795.808682,5832,5163
1794.929216,5798,5196
1794.049602,5811,5121
1793.16984,5913,5070
1792.289928,5803,5115
1791.409868,5809,5072
1790.529659,5815,5095
1789.649301,5809,5198
1788.768794,5754,5137
1787.888139,5754,5116
1787.007334,5835,5046
1786.126381,5754,5153
1785.245278,5810,5112
1784.364027,5789,5135
1783.482626,5814,5146
1782.601077,5855,5157
1781.719378,5825,5167
1780.83753,5788,5141
1779.955533,5866,5126
1779.073387,5875,5084
1778.191091,5885,5111
1777.308646,5830,5146
1776.426052,5879,5177
1775.543308,5808,5151
1774.660416,5825,5219
1773.777373,5761,5169
1772.894182,5861,5189
1772.01084,5885,5240
1771.12735,5811,5189
1770.243709,5776,5089
1769.359919,5792,5127
1768.47598,5906,5181
1767.591891,5775,5172
1766.707652,5780,5131
1765.823264,5766,5201
1764.938725,5878,5221
1764.054037,5852,5191
1763.1692,5913,5182
1762.284212,5884,5172
1761.399075,5904,5151
1760.513787,5829,5186
1759.62835,5817,5203
1758.742763,5869,5143
1757.857025,5862,5152
1756.971138,5885,5219
1756.085101,5816,5222
1755.198913,5946,5179
1754.312575,5820,5158
1753.426088,5860,5238
1752.53945,5786,5136
1751.652661,5853,5191
1750.765723,5937,5118
1749.878634,5916,5125
1748.991395,5894,5171
1748.104006,5871,5179
1747.216466,5872,5269
1746.328776,5838,5151
1745.440935,5910,5133
1744.552944,5855,5186
1743.664802,5812,5206
1742.77651,5795,5196
1741.888067,5927,5095
1740.999473,5900,5185
1740.110729,5847,5063
1739.221834,5814,5196
1738.332789,5888,5168
1737.443592,5804,5170
1736.554245,5803,5129
1735.664747,5842,5297
1734.775098,5786,5173
1733.885299,5784,5147
1732.995348,5806,5204
1732.105247,5869,5119
1731.214994,5846,5142
1730.32459,5881,5116
1729.434036,5856,5190
1728.54333,5848,5113
1727.652473,5890,5255
1726.761465,5900,5224
1725.870306,5814,5148
1724.978996,5799,5112
1724.087534,5820,5113
1723.195921,5867,5110
1722.304157,5891,5130
1721.412242,5905,5227
1720.520175,5918,5159
1719.627956,5755,5213
1718.735586,5894,5180
1717.843065,5829,5130
1716.950392,5806,5219
1716.057568,5903,5240
1715.164592,5845,5102
1714.271465,5896,5245
1713.378185,5891,5115
1712.484755,5935,5184
1711.591172,5904,5272
1710.697438,5867,5260
1709.803551,5940,5171
1708.909514,5829,5123
1708.015324,5871,5237
1707.120982,5846,5208
1706.226489,5912,5146
1705.331843,5904,5302
1704.437046,5921,5194
1703.542096,5843,5238
1702.646994,5882,5175
1701.751741,5900,5335
1700.856335,5874,5217
1699.960777,5842,5211
1699.065067,5855,5181
1698.169205,5879,5226
1697.27319,5786,5174
1696.377023,5901,5212
1695.480704,5993,5184
1694.584233,5883,5332
1693.687609,5925,5194
1692.790833,5990,5256
1691.893904,5923,5210
1690.996823,5868,5149
1690.099589,5910,5325
1689.202203,5958,5129
1688.304664,5960,5255
1687.406972,5925,5282
1686.509128,5896,5201
1685.611132,5997,5251
1684.712982,5946,5204
1683.81468,5912,5274
1682.916225,5926,5359
1682.017617,5971,5310
1681.118856,6040,5192
1680.219943,5958,5203
1679.320876,5952,5277
1678.421657,5963,5271
1677.522284,6011,5260
1676.622759,5908,5272
1675.72308,5973,5332
1674.823249,6016,5260
1673.923264,6072,5267
1673.023126,6053,5267
1672.122835,5935,5243
1671.222391,6147,5368
1670.321793,5997,5381
1669.421042,5994,5355
1668.520138,5891,5359
1667.619081,5928,5312
1666.71787,6006,5280
1665.816505,5974,5403
1664.914988,6035,5423
1664.013316,6007,5365
1663.111492,6042,5348
1662.209513,5984,5365
1661.307381,6016,5317
1660.405096,6113,5338
1659.502657,5959,5357
1658.600064,5987,5345
1657.697317,6029,5368
1656.794417,5992,5280
1655.891362,6036,5334
1654.988154,6029,5330
1654.084793,5980,5408
1653.181277,5909,5342
1652.277607,6017,5341
1651.373783,6048,5318
1650.469806,6032,5363
1649.565674,6034,5362
1648.661388,6009,5360
1647.756948,6006,5338
1646.852354,6021,5357
1645.947606,6044,5360
1645.042704,5990,5347
1644.137647,6009,5405
1643.232436,5920,5277
1642.327071,5998,5334
1641.421552,6002,5288
1640.515878,6088,5381
1639.61005,5974,5308
1638.704067,6021,5310
1637.79793,5997,5391
1636.891638,6010,5380
1635.985192,6082,5397
1635.078591,6042,5403
1634.171835,6110,5331
1633.264925,5886,5284
1632.357861,6021,5380
1631.450641,6033,5373
1630.543267,6070,5331
1629.635738,6052,5306
1628.728054,5932,5328
1627.820215,6047,5352
1626.912222,6014,5374
1626.004073,6003,5376
1625.09577,5997,5409
1624.187311,5989,5387
1623.278698,6064,5383
1622.36993,6082,5332
1621.461006,6077,5311
1620.551927,6006,5346
1619.642693,6061,5340
1618.733304,5965,5337
1617.82376,6010,5358
1616.914061,6034,5275
1616.004206,6021,5336
1615.094196,6071,5365
1614.18403,6011,5363
1613.273709,5953,5341
1612.363233,6113,5397
1611.452601,6071,5279
1610.541814,6045,5299
1609.630871,6053,5405
1608.719772,6102,5414
1607.808518,6109,5333
1606.897109,6060,5177
1605.985543,5978,5351
1605.073822,6116,5350
1604.161945,5930,5289
1603.249913,5950,5234
1602.337724,6027,5295
1601.42538,6039,5324
1600.51288,6060,5400
1599.600224,6018,5369
1598.687412,6071,5315
1597.774444,6054,5391
1596.86132,6033,5345
1595.94804,6086,5356
1595.034604,6140,5445
1594.121012,6016,5342
1593.207263,6134,5425
1592.293359,5998,5323
1591.379298,6082,5419
1590.465081,6174,5306
1589.550708,6016,5429
1588.636178,6221,5417
1587.721492,6173,5455
1586.806649,6211,5435
1585.89165,6160,5411
1584.976495,6167,5441
1584.061183,6410,5410
1583.145715,6367,5535
1582.23009,6439,5464
1581.314308,6443,5582
1580.39837,6460,5467
1579.482275,6486,5605
1578.566024,6559,5534
1577.649615,6390,5582
1576.73305,6608,5601
1575.816328,6593,5656
1574.899449,6468,5606
1573.982414,6430,5657
1573.065221,6383,5550
1572.147871,6408,5733
1571.230365,6365,5702
1570.312701,6365,5651
1569.394881,6385,5567
1568.476903,6281,5525
1567.558768,6302,5521
1566.640476,6353,5635
1565.722027,6291,5599
1564.80342,6227,5513
1563.884656,6226,5595
1562.965735,6294,5513
1562.046657,6234,5525
1561.127421,6190,5495
1560.208028,6154,5485
1559.288477,6230,5390
1558.368769,6233,5446
1557.448904,6206,5460
1556.528881,6118,5443
1555.6087,6067,5390
1554.688362,6102,5499
1553.767866,6156,5475
1552.847212,6170,5487
1551.9264,6108,5382
1551.005431,6123,5397
1550.084304,6075,5399
1549.163019,6099,5421
1548.241577,6143,5390
1547.319976,6187,5509
1546.398218,6101,5467
1545.476301,6116,5372
1544.554227,6162,5428
1543.631994,6217,5446
1542.709604,6106,5459
1541.787055,6045,5426
1540.864348,6135,5380
1539.941483,6132,5458
1539.01846,6092,5422
1538.095278,6185,5390
1537.171938,6079,5437
1536.24844,6121,5393
1535.324784,6167,5297
1534.400969,6051,5297
1533.476996,6013,5401
1532.552864,6143,5438
1531.628574,6010,5405
1530.704125,6084,5381
1529.779517,6090,5434
1528.854751,6070,5368
1527.929827,6103,5441
1527.004744,6030,5472
1526.079502,6092,5486
1525.154101,6089,5422
1524.228541,6047,5389
1523.302823,6086,5394
1522.376946,6002,5377
1521.45091,6090,5381
1520.524715,6037,5354
1519.598361,6150,5412
1518.671848,6039,5405
1517.745176,6203,5450
1516.818345,6075,5410
1515.891354,6132,5384
1514.964205,6138,5368
1514.036897,6074,5358
1513.109429,6082,5388
1512.181802,6089,5430
1511.254016,6065,5363
1510.32607,6033,5350
1509.397965,6094,5343
1508.469701,6025,5368
1507.541278,6158,5367
1506.612694,5980,5364
1505.683952,6140,5412
1504.75505,6175,5428
1503.825988,6083,5393
1502.896767,6003,5339
1501.967386,6123,5382
1501.037845,6059,5378
1500.108145,6193,5508
1499.178285,6123,5404
1498.248265,6011,5395
1497.318085,6079,5405
1496.387746,6196,5375
1495.457246,6137,5478
1494.526587,6112,5421
1493.595768,6061,5407
1492.664788,6083,5473
1491.733649,6122,5407
1490.80235,6143,5352
1489.87089,6147,5399
1488.939271,6183,5365
1488.007491,6106,5453
1487.075551,6192,5453
1486.143451,6126,5341
1485.21119,6180,5387
1484.278769,6218,5398
1483.346188,6036,5448
1482.413447,6169,5481
1481.480545,6218,5435
1480.547482,6192,5498
1479.614259,6236,5379
1478.680876,6224,5511
1477.747332,6348,5511
1476.813627,6286,5506
1475.879762,6358,5537
1474.945736,6274,5480
1474.011549,6308,5455
1473.077202,6319,5452
1472.142694,6325,5572
1471.208025,6360,5556
1470.273195,6304,5526
1469.338204,6343,5516
1468.403053,6219,5590
1467.46774,6273,5480
1466.532266,6279,5539
1465.596632,6332,5516
1464.660836,6290,5559
1463.724879,6277,5495
1462.788761,6368,5524
1461.852482,6242,5584
1460.916042,6345,5516
1459.97944,6442,5554
1459.042677,6223,5579
1458.105753,6412,5648
1457.168667,6361,5525
1456.23142,6363,5520
1455.294012,6373,5505
1454.356442,6417,5547
1453.418711,6398,5681
1452.480818,6465,5582
1451.542763,6444,5668
1450.604547,6411,5535
1449.666169,6434,5626
1448.72763,6528,5578
1447.788928,6511,5634
1446.850065,6570,5652
1445.911041,6557,5628
1444.971854,6688,5683
1444.032506,6814,5712
1443.092995,6850,5741
1442.153323,6852,5793
1441.213489,6889,5777
1440.273492,7076,5944
1439.333334,7111,5855
1438.393014,7222,5866
1437.452531,7240,5967
1436.511886,7331,5969
1435.571079,7394,5963
1434.63011,7341,6060
1433.688979,7311,6038
1432.747685,7209,6068
1431.806229,7234,6043
1430.864611,7052,6028
1429.92283,7074,6033
1428.980886,7050,6036
1428.038781,6863,6012
1427.096512,6749,5885
1426.154081,6664,5947
1425.211488,6660,6054
1424.268732,6543,6012
1423.325813,6506,5992
1422.382732,6502,5942
1421.439487,6472,5891
1420.49608,6500,5820
1419.55251,6482,5838
1418.608778,6404,5659
1417.664882,6513,5699
1416.720824,6448,5608
1415.776602,6325,5585
1414.832218,6421,5609
1413.88767,6418,5545
1412.94296,6337,5495
1411.998086,6421,5575
1411.053049,6312,5471
1410.107849,6241,5497
1409.162486,6274,5488
1408.216959,6271,5479
1407.271269,6236,5501
1406.325416,6249,5530
1405.3794,6285,5504
1404.43322,6272,5481
1403.486876,6280,5543
1402.54037,6394,5462
1401.593699,6303,5505
1400.646865,6542,5565
1399.699868,6480,5609
1398.752707,6598,5597
1397.805382,6487,5652
1396.857893,6644,5621
1395.910241,6751,5647
1394.962425,6760,5712
1394.014445,6902,5815
1393.066301,6887,5775
1392.117994,6965,5834
1391.169522,6933,5907
1390.220887,7096,5841
1389.272088,6969,5908
1388.323124,6766,5809
1387.373996,6866,5788
1386.424705,6820,5877
1385.475249,6719,5828
1384.525629,6666,5973
1383.575845,6716,5834
1382.625896,6720,5941
1381.675784,6678,5819
1380.725506,6515,5856
1379.775065,6560,5898
1378.824459,6592,5926
1377.873689,6466,5754
1376.922754,6505,5925
1375.971655,6425,5817
1375.020391,6485,5815
1374.068962,6435,5749
1373.117369,6398,5716
1372.165612,6455,5702
1371.213689,6391,5701
1370.261602,6338,5714
1369.30935,6418,5602
1368.356933,6329,5683
1367.404352,6311,5616
1366.451605,6350,5608
1365.498694,6389,5630
1364.545617,6320,5652
1363.592376,6443,5617
1362.638969,6334,5556
1361.685398,6260,5646
1360.731661,6403,5550
1359.777759,6292,5497
1358.823692,6342,5598
1357.86946,6345,5561
1356.915063,6266,5596
1355.9605,6336,5583
1355.005772,6256,5583
1354.050878,6330,5585
1353.095819,6276,5590
1352.140595,6266,5558
1351.185205,6259,5487
1350.22965,6307,5576
1349.273929,6227,5528
1348.318042,6316,5535
1347.36199,6262,5505
1346.405772,6183,5498
1345.449389,6236,5463
1344.492839,6228,5531
1343.536124,6303,5522
1342.579243,6226,5554
1341.622196,6219,5493
1340.664984,6217,5565
1339.707605,6153,5582
1338.75006,6190,5568
1337.79235,6307,5449
1336.834473,6283,5568
1335.87643,6210,5533
1334.918222,6219,5497
1333.959846,6185,5567
1333.001305,6236,5571
1332.042598,6289,5477
1331.083724,6171,5630
1330.124684,6277,5542
1329.165477,6199,5535
1328.206104,6234,5533
1327.246565,6149,5500
1326.286859,6267,5470
1325.326987,6288,5517
1324.366948,6245,5467
1323.406743,6195,5490
1322.446371,6151,5422
1321.485832,6268,5559
1320.525127,6147,5447
1319.564255,6123,5492
1318.603216,6245,5527
1317.64201,6238,5536
1316.680638,6206,5512
1315.719099,6248,5445
1314.757392,6278,5521
1313.795519,6181,5407
1312.833479,6224,5515
1311.871271,6242,5444
1310.908897,6341,5453.619151
1309.946356,6255,5463.239973
1308.983647,6230,5472.862465
1308.020771,6273,5482.486628
1307.057728,6299,5492.112463
1306.094518,6222,5501.73997
1305.13114,6292,5511.369149
1304.167595,6297,5521
1303.203883,6317,5617
1302.240003,6354,5504
1301.275956,6226,5575
1300.311741,6239,5518
1299.347359,6145,5504
1298.382809,6193,5600
1297.418092,6264,5530
1296.453207,6275,5532
1295.488154,6187,5589
1294.522934,6206,5512
1293.557545,6196,5561
1292.591989,6154,5475
1291.626265,6270,5510
1290.660374,6219,5494
1289.694314,6185,5543
1288.728086,6204,5510
1287.761691,6302,5504
1286.795127,6172,5523
1285.828396,6159,5445
1284.861496,6316,5528
1283.894428,6263,5570
1282.927192,6345,5466
1281.959787,6204,5494
1280.992215,6195,5449
1280.024474,6227,5559
1279.056565,6249,5587
1278.088487,6238,5496
1277.120241,6255,5545
1276.151827,6199,5495
1275.183244,6189,5582
1274.214492,6195,5588
1273.245572,6254,5479
1272.276484,6242,5540
1271.307226,6298,5531
1270.3378,6244,5568
1269.368206,6228,5576
1268.398442,6218,5581
1267.42851,6239,5569
1266.458409,6181,5569
1265.488139,6212,5555
1264.5177,6207,5517
1263.547092,6261,5518
1262.576316,6193,5477
1261.60537,6147,5439
1260.634255,6236,5479
1259.662971,6151,5532
1258.691518,6306,5518
1257.719896,6269,5548
1256.748104,6184,5414
1255.776143,6240,5410
1254.804013,6139,5499
1253.831714,6226,5578
1252.859245,6168,5481
1251.886607,6149,5554
1250.913799,6214,5535
1249.940822,6224,5493
1248.967675,6213,5494
1247.994359,6200,5450
1247.020873,6190,5514
1246.047217,6195,5464
1245.073392,6166,5507
1244.099397,6177,5453
1243.125233,6223,5471
1242.150898,6181,5485
1241.176394,6198,5555
1240.20172,6199,5476
1239.226875,6202,5486
1238.251861,6127,5540
1237.276677,6121,5481
1236.301323,6108,5508
1235.325799,6201,5505
1234.350104,6180,5474
1233.37424,6177,5422
1232.398205,6204,5533
1231.422,6247,5446
1230.445625,6071,5531
1229.46908,6182,5479
1228.492364,6140,5409
1227.515478,6150,5472
1226.538421,6194,5466
1225.561194,6198,5500
1224.583796,6096,5490
1223.606228,6102,5452
1222.628489,6154,5455
1221.65058,6164,5465
1220.6725,6140,5442
1219.694249,6079,5418
1218.715828,6131,5337
1217.737236,6172,5457
1216.758473,6167.127978,5339
1215.779539,6162.255106,5452
1214.800434,6157.381382,5418
1213.821158,6152.506809,5383
1212.841711,6147.631383,5424
1211.862094,6142.755107,5464
1210.882305,6137.877979,5400
1209.902345,6133,5445
1208.922214,6130,5470
1207.941912,6183,5428
1206.961438,6085,5466
1205.980794,6077,5506
1204.999978,6232,5462
1204.018991,6254,5470
1203.037832,6260,5433
1202.056502,6236,5446
1201.075,6344,5554
1200.093328,6255,5496
1199.111483,6293,5485
1198.129467,6335,5592
1197.147279,6303,5544
1196.16492,6329,5646
1195.182389,6360,5591
1194.199686,6312,5631
1193.216812,6317,5654
1192.233766,6341,5638
1191.250547,6265,5582
1190.267158,6305,5616
1189.283596,6360,5662
1188.299862,6289,5661
1187.315956,6290,5668
1186.331878,6283,5549
1185.347628,6171,5591
1184.363206,6219,5486
1183.378612,6200,5505
1182.393845,6270,5441
1181.408906,6156,5580
1180.423796,6227,5616
1179.438512,6213,5589
1178.453057,6154,5477
1177.467429,6185,5562
1176.481628,6268,5472
1175.495655,6188,5534
1174.50951,6256,5491
1173.523192,6256,5550
1172.536701,6230,5519
1171.550038,6183,5483
1170.563202,6192,5415
1169.576193,6224,5489
1168.589012,6250,5482
1167.601658,6286,5468
1166.614131,6262,5561
1165.626431,6285,5478
1164.638558,6261,5504
1163.650512,6122,5449
1162.662294,6281,5468
1161.673902,6237,5513
1160.685337,6414,5465
1159.696599,6344,5542
1158.707688,6312,5450
1157.718604,6323,5453
1156.729346,6338,5522
1155.739915,6453,5519
1154.750311,6363,5519
1153.760534,6447,5518
1152.770583,6328,5537
1151.780459,6430,5508
1150.790161,6433,5589
1149.79969,6403,5589
1148.809045,6586,5658
1147.818227,6520,5706
1146.827234,6608,5707
1145.836069,6547,5747
1144.844729,6622,5760
1143.853216,6569,5800
1142.861529,6544,5893
1141.869668,6534,5937
1140.877634,6529,5836
1139.885425,6389,5770
1138.893043,6365,5771
1137.900486,6212,5753
1136.907756,6328,5718
1135.914851,6266,5659
1134.921772,6258,5630
1133.928519,6185,5514
1132.935092,6125,5538
1131.941491,6180,5497
1130.947715,6089,5529
1129.953765,6138,5546
1128.959641,6210,5530
1127.965342,6127,5514
1126.970869,6090,5428
1125.976222,6130,5458
1124.9814,6143,5521
1123.986403,6230,5471
1122.991232,6201,5439
1121.995886,6087,5451
1121.000365,6077,5544
1120.00467,6146,5534
1119.0088,6152,5571
1118.012755,6158,5497
1117.016536,6159,5483
1116.020141,6154,5464
1115.023571,6132,5481
1114.026827,6123,5507
1113.029908,6163,5459
1112.032813,6150,5445
1111.035544,6110,5393
1110.038099,6239,5431
1109.040479,6130,5428
1108.042684,6135,5474
1107.044714,6144,5450
1106.046568,6209,5465
1105.048247,6171,5493
1104.049751,6153,5454
1103.051079,6196,5474
1102.052232,6280,5424
1101.053209,6057,5504
1100.054011,6178,5469
1099.054637,6076,5456
1098.055088,6126,5456
1097.055363,6174,5440
1096.055462,6193,5447
1095.055386,6189,5534
1094.055134,6170,5519
1093.054706,6201,5495
1092.054102,6233,5536
1091.053322,6137,5480
1090.052366,6165,5453
1089.051235,6236,5537
1088.049927,6144,5508
1087.048443,6210,5479
1086.046783,6154,5474
1085.044947,6285,5467
1084.042935,6266,5496
1083.040747,6199,5560
1082.038382,6195,5576
1081.035841,6335,5597
1080.033124,6198,5553
1079.03023,6368,5677
1078.02716,6346,5614
1077.023913,6498,5691
1076.02049,6379,5686
1075.016891,6396,5718
1074.013114,6388,5755
1073.009161,6473,5691
1072.005032,6279,5740
1071.000726,6449,5694
1069.996243,6342,5689
1068.991583,6270,5702
1067.986746,6359,5531
1066.981733,6280,5511
1065.976542,6363,5577
1064.971175,6172,5519
1063.96563,6194,5457
1062.959909,6185,5453
1061.95401,6193,5411
1060.947934,6128,5463
1059.941682,6067,5414
1058.935251,6155,5385
1057.928644,6060,5439
1056.92186,6132,5391
1055.914898,6083,5419
1054.907758,6088,5468
1053.900442,6045,5384
1052.892947,6096,5285
1051.885276,6016,5414
1050.877426,6134,5429
1049.8694,6074,5377
1048.861195,5999,5441
1047.852813,6084,5431
1046.844253,6074,5366
1045.835516,6038,5443
1044.8266,6118,5333
1043.817507,6039,5374
1042.808236,6013,5454
1041.798787,6012,5437
1040.78916,6078,5368
1039.779355,6058,5418
1038.769372,6144,5299
1037.759211,6001,5403
1036.748872,6027,5415
1035.738355,6008,5403
1034.72766,6054,5417
1033.716786,6106,5342
1032.705734,6040,5332
1031.694503,6084,5375
1030.683095,6125,5483
1029.671508,6020,5381
1028.659742,5966,5400
1027.647798,6005,5479
1026.635675,6017,5415
1025.623374,6098,5305
1024.610894,6032,5332
1023.598236,6033,5436
1022.585399,6021,5315
1021.572383,6027,5472
1020.559188,6076,5351
1019.545814,6059,5375
1018.532262,6006,5382
1017.518531,6056,5361
1016.504621,6042,5415
1015.490531,6064,5388
1014.476263,6100,5372
1013.461816,6020,5416
1012.447189,6048,5364
1011.432383,6083,5354
1010.417399,6109,5360
1009.402235,5955,5319
1008.386891,6003,5443
1007.371368,6030,5393
1006.355666,6083,5482
1005.339785,5987,5425
1004.323724,6085,5427
1003.307483,6114,5407
1002.291063,6040,5398
1001.274464,6089,5456
1000.257685,6056,5425
999.2407258,6075,5314
998.2235873,6142,5409
997.2062689,6083,5427
996.1887708,6004,5429
995.1710929,6035,5379
994.1532351,6069,5427
993.1351974,6017,5493
992.1169797,6087,5367
991.098582,6122,5386
990.0800042,6173,5399
989.0612464,6081,5336
988.0423085,5930,5487
987.0231904,5989,5310
986.003892,5991,5398
984.9844134,6067,5389
983.9647546,6082,5319
982.9449153,6046,5400
981.9248957,6104,5407
980.9046957,6023,5397
979.8843152,6027,5378
978.8637542,6025,5351
977.8430127,6089,5415
976.8220905,6023,5365
975.8009877,6079,5435
974.7797043,6009,5341
973.7582401,6032,5360
972.7365952,6075,5309
971.7147694,6041,5382
970.6927628,5988,5283
969.6705754,5971,5402
968.6482069,6006,5369
967.6256576,5913,5363
966.6029272,5963,5359
965.5800157,6018,5377
964.5569231,5935,5415
963.5336494,5964,5323
962.5101945,5915,5290
961.4865584,6037,5294
960.462741,6010,5337
959.4387423,5917,5255
958.4145623,5952,5320
957.3902008,6039,5353
956.3656579,5960,5348
955.3409335,5937,5331
954.3160276,5966,5294
953.2909401,5926,5362
952.265671,5992,5345
951.2402203,6077,5319
950.2145878,5951,5302
949.1887736,5960,5338
948.1627777,5877,5387
947.1365999,6035,5303
946.1102402,6036,5299
945.0836986,6002,5317
944.0569751,5973,5362
943.0300696,5956,5347
942.002982,5928,5299
940.9757123,5941,5287
939.9482606,5936,5334
938.9206266,5929,5253
937.8928105,5959,5360
936.8648121,5967,5187
935.8366314,6010,5364
934.8082683,5950,5303
933.7797229,5951,5350
932.750995,6007,5293
931.7220847,5982,5331
930.6929919,5977,5278
929.6637165,5910,5327
928.6342585,5978,5280
927.6046179,6013,5407
926.5747946,6048,5335
925.5447886,5939,5287
924.5145998,6001,5398
923.4842282,6070,5339
922.4536737,6009,5321
921.4229363,6018,5295
920.392016,6027,5414
919.3609127,6062,5376
918.3296264,6029,5325
917.298157,6057,5366
916.2665045,6030,5292
915.2346689,6035,5352
914.20265,6083,5337
913.1704479,6009,5341
912.1380626,5971,5321
911.1054938,6030,5264
910.0727418,5968,5336
909.0398063,5965,5373
908.0066873,6018,5309
906.9733848,6016,5313
905.9398988,6001,5310
904.9062292,5988,5375
903.872376,6021,5363
902.8383391,5878,5265
901.8041185,6051,5264
900.7697141,5999,5309
899.7351259,5949,5311
898.7003538,5952,5346
897.6653979,5975,5309
896.630258,6036,5386
895.5949342,5969,5418
894.5594263,5933,5312
893.5237344,5978,5395
892.4878583,5992,5325
891.4517981,6092,5290
890.4155537,5997,5293
889.3791251,6018,5314
888.3425122,5932,5291
887.305715,6030,5381
886.2687333,5963,5314
885.2315673,6056,5250
884.1942168,5981,5341
883.1566818,5952,5308
882.1189623,5925,5348
881.0810582,5853,5438
880.0429694,5955,5326
879.004696,5891,5281
877.9662379,5932,5276
876.9275949,5892,5209
875.8887672,5899,5156
874.8497547,5898,5271
873.8105572,5895,5240
872.7711748,5884,5202
871.7316074,5886,5278
870.691855,5841,5285
869.6519176,5838,5307
868.611795,5880,5334
867.5714872,5820,5264
866.5309943,5835,5228
865.4903161,5821,5181
864.4494526,5866,5330
863.4084038,5776,5190
862.3671696,5919,5321
861.32575,5888,5248
860.284145,5881,5204
859.2423544,5876,5276
858.2003783,5871,5185
857.1582166,5903,5212
856.1158692,5855,5264
855.0733362,5895,5243
854.0306174,5933,5274
852.9877128,5902,5221
851.9446225,5832,5184
850.9013463,5915,5266
849.8578842,5872,5295
848.8142361,5844,5350
847.770402,5878,5215
846.726382,5894,5243
845.6821758,5860,5273
844.6377835,5819,5241
843.593205,5985,5311
842.5484404,5855,5229
841.5034894,5869,5222
840.4583522,5871,5271
839.4130286,5875,5182
838.3675187,5990,5263
837.3218223,5779,5250
836.2759394,5898,5273
835.22987,5869,5246
834.1836141,5859,5235
833.1371715,5820,5255
832.0905423,5871,5311
831.0437263,5898,5181
829.9967237,5876,5322
828.9495342,5893,5255
827.902158,5976,5282
826.8545948,5961,5322
825.8068447,5940,5255
824.7589077,5928,5202
823.7107836,5876,5288
822.6624725,5875,5241
821.6139743,5802,5314
820.565289,5815,5224
819.5164165,5852,5331
818.4673567,5866,5227
817.4181097,5924,5222
816.3686753,5859,5321
815.3190536,5860,5297
814.2692445,5833,5269
813.2192479,5884,5263
812.1690638,5743,5232
811.1186922,5839,5333
810.068133,5819,5246
809.0173861,5871,5273
807.9664516,5764,5264
806.9153294,5856,5214
805.8640194,5813,5247
804.8125216,5820,5167
803.7608359,5774,5225
802.7089623,5882,5240
801.6569008,5945,5257
800.6046513,5807,5271
799.5522138,5865,5221
798.4995882,5844,5284
797.4467744,5810,5163
796.3937725,5843,5247
795.3405824,5767,5173
794.287204,5799,5149
793.2336373,5791,5245
792.1798823,5801,5206
791.1259389,5794,5279
790.071807,5724,5149
789.0174867,5812,5180
787.9629778,5846,5208
786.9082804,5844,5204
785.8533943,5714,5146
784.7983196,5867,5176
783.7430562,5717,5224
782.687604,5790,5141
781.6319631,5765,5196
780.5761332,5765,5208
779.5201145,5829,5214
778.4639069,5695,5082
777.4075103,5785,5179
776.3509247,5859,5148
775.29415,5708,5082
774.2371862,5784,5269
773.1800332,5815,5178
772.122691,5778,5178
771.0651596,5714,5181
770.0074389,5688,5156
768.9495289,5771,5143
767.8914295,5675,5194
766.8331406,5748,5104
765.7746623,5755,5232
764.7159944,5734,5128
763.657137,5809,5239
762.59809,5816,5104
761.5388533,5795,5112
760.479427,5709,5215
759.4198108,5746,5163
758.3600049,5733,5170
757.3000092,5776,5184
756.2398236,5832,5157
755.179448,5747,5192
754.1188825,5751,5187
753.058127,5757,5152
751.9971814,5764,5277
750.9360457,5841,5190
749.8747198,5759,5193
748.8132038,5774,5178
747.7514974,5704,5189
746.6896009,5816,5192
745.6275139,5697,5168
744.5652366,5824,5288
743.5027689,5756,5224
742.4401107,5854,5140
741.377262,5785,5171
740.3142227,5742,5205
739.2509928,5731,5181
738.1875723,5781,5185
737.123961,5743,5209
736.060159,5808,5136
734.9961663,5687,5206
733.9319826,5726,5129
732.8676081,5649,5100
731.8030427,5716,5148
730.7382863,5753,5184
729.6733389,5691,5175
728.6082004,5752,5142
727.5428708,5736,5149
726.4773501,5762,5198
725.4116381,5766,5156
724.345735,5687,5238
723.2796405,5852,5117
722.2133546,5650,5130
721.1468774,5804,5082
720.0802088,5668,5075
719.0133487,5746,5199
717.946297,5753,5071
716.8790538,5710,5115
715.811619,5591,5057
714.7439925,5741,5163
713.6761743,5725,5209
712.6081643,5663,5072
711.5399626,5700,5126
710.471569,5702,5159
709.4029835,5734,5093
708.3342061,5630,5138
707.2652367,5674,5195
706.1960753,5660,5108
705.1267218,5614,5064
704.0571762,5608,5059
702.9874384,5684,5117
701.9175084,5705,5048
700.8473861,5723,5141
699.7770715,5624,5097
698.7065646,5684,5021
697.6358653,5628,5041
696.5649736,5563,5059
695.4938893,5614,5096
694.4226125,5533,5076
693.3511432,5579,5118
692.2794812,5601,5057
691.2076265,5554,5097
690.1355791,5598,5070
689.063339,5582,5043
687.990906,5657,5059
686.9182802,5574,5135
685.8454614,5595,5176
684.7724497,5635,5037
683.6992451,5598,5133
682.6258473,5647,5111
681.5522565,5624,5133
680.4784725,5659,5122.504722
679.4044954,5581,5112.007556
678.330325,5626,5101.508501
677.2559614,5618,5091.007557
676.1814044,5595,5080.504724
675.106654,5682,5070
674.0317103,5646,5081
672.956573,5643,5074
671.8812423,5725,5091
670.805718,5591,5097
669.7300001,5647,5103
668.6540886,5636,5032
667.5779833,5632,5091
666.5016843,5678,5108
665.4251916,5678,5066
664.348505,5628,5074
663.2716245,5637,5059
662.19455,5595,5120
661.1172816,5690,5060
660.0398192,5671,5098
658.9621627,5730,5091
657.8843121,5672,5083
656.8062674,5559,5056
655.7280284,5601,5129
654.6495951,5651,5052
653.5709676,5642,5061
652.4921457,5544,5070
651.4131294,5676,5128
650.3339187,5556,5072
649.2545135,5666,5105
648.1749137,5577,5124
647.0951194,5562,5071
646.0151304,5606,5149
644.9349467,5641,5076
643.8545684,5562,5063
642.7739952,5573,5059
641.6932273,5586,5061
640.6122644,5687,5123
639.5311067,5531,5096
638.449754,5589,5073
637.3682063,5561,5106
636.2864635,5602,5020
635.2045256,5622,5070
634.1223926,5595,5035
633.0400644,5525,5031
631.9575409,5571,5076
630.8748222,5513,5007
629.7919081,5656,5007
628.7087986,5511,5108
627.6254937,5506,5044
626.5419934,5533,5044
625.4582975,5548,4976
624.374406,5517,4969
623.2903189,5556,5003
622.2060361,5575,5000
621.1215577,5555,5033
620.0368834,5467,5004
618.9520134,5520,4995
617.8669475,5497,5058
616.7816857,5533,5058
615.6962279,5521,4989
614.6105742,5518,4971
613.5247244,5469,4936
612.4386785,5433,4976
611.3524364,5447,5042
610.2659982,5412,4979
609.1793638,5519,5039
608.092533,5490,5049
607.005506,5520,4989
605.9182825,5523,4999
604.8308626,5458,5015
603.7432463,5430,5010
602.6554334,5454,4965
601.567424,5507,4980
600.4792179,5429,5023
599.3908152,5562,5018
598.3022158,5472,4982
597.2134196,5422,5024
596.1244266,5470,5017
595.0352368,5487,4903
593.9458501,5479,4957
592.8562664,5452,4998
591.7664857,5511,4919
590.676508,5441,5036
589.5863331,5515,5067
588.4959612,5446,4943
587.405392,5460,4946
586.3146257,5407,4954
585.223662,5539,4999
584.132501,5472,4913
583.0411426,5509,4959
581.9495868,5545,5023
580.8578335,5441,4929
579.7658827,5504,4924
578.6737344,5424,4963
577.5813884,5411,4960
576.4888447,5495,4995
575.3961034,5412,4951
574.3031643,5515,4928
573.2100273,5524,4912
572.1166925,5480,4930
571.0231598,5445,4979
569.9294292,5412,4920
568.8355005,5453,4983
567.7413738,5378,4859
566.647049,5464,4856
565.5525261,5363,4930
564.4578049,5365,4910
563.3628856,5399,4916
562.2677679,5473,4886
561.1724519,5373,4914
560.0769375,5403,4840
558.9812246,5396,4955
557.8853133,5395,4919
556.7892035,5409,4932
555.6928951,5378,4883
554.596388,5361,4894
553.4996823,5392,4905
552.4027778,5441,4872
551.3056746,5378,4798
550.2083726,5324,4816
549.1108717,5403,4877
548.0131718,5341,4838
546.915273,5297,4850
545.8171752,5403,4906
544.7188784,5356,4843
543.6203824,5352,4902
542.5216873,5312,4874
541.4227929,5321,4777
540.3236993,5293,4836
539.2244064,5366,4856
538.1249141,5335,4886
537.0252225,5323,4817
535.9253314,5365,4815
534.8252408,5318,4800
533.7249506,5297,4869
532.6244609,5254,4844
531.5237715,5425,4817
530.4228824,5316,4849
529.3217936,5340,4800
528.2205049,5310,4796
527.1190165,5317,4891
526.0173282,5409,4831
524.9154399,5311,4820
523.8133516,5319,4793
522.7110633,5275,4806
521.6085749,5339,4764
520.5058864,5382,4840
519.4029978,5300,4831
518.2999088,5263,4823
517.1966197,5325,4940
516.0931301,5283,4799
514.9894402,5279,4779
513.8855499,5325,4783
512.7814591,5304,4710
511.6771678,5311,4851
510.572676,5412,4808
509.4679835,5310,4798
508.3630903,5413,4850
507.2579964,5336,4838
506.1527018,5323,4839
505.0472063,5351,4828
503.94151,5333,4830
502.8356128,5235,4838
501.7295146,5383,4859
500.6232154,5274,4748
499.5167151,5289,4842
498.4100137,5250,4782
497.3031112,5271,4777
496.1960075,5247,4884
495.0887025,5327,4792
493.9811962,5287,4870
492.8734885,5313,4786
491.7655795,5254,4775
490.657469,5257,4724
489.549157,5305,4845
488.4406434,5292,4696
487.3319282,5297,4784
486.2230114,5246,4772
485.1138929,5244,4728
484.0045727,5296,4785
482.8950506,5265,4768
481.7853267,5252,4743
480.6754009,5136,4816
479.5652732,5135,4689
478.4549434,5183,4789
477.3444117,5155,4784
476.2336778,5168,4732
475.1227418,5232,4788
474.0116036,5238,4756
472.9002631,5235,4780
471.7887204,5186,4794
470.6769753,5186,4775
469.5650278,5200,4708
468.4528779,5182,4738
467.3405255,5195,4742
466.2279706,5202,4693
465.1152131,5144,4736
464.0022529,5267,4772
462.8890901,5200,4754
461.7757245,5138,4709
460.6621561,5170,4636
459.5483849,5225,4755
458.4344108,5161,4736
457.3202338,5145,4777
456.2058538,5190,4694
455.0912707,5261,4777
453.9764846,5164,4688
452.8614954,5179,4727
451.7463029,5239,4676
450.6309072,5148,4722
449.5153083,5128,4613
448.399506,5163,4708
447.2835003,5235,4693
446.1672912,5208,4619
445.0508786,5192,4657
443.9342624,5151,4715
442.8174427,5170,4778
441.7004194,5162,4729
440.5831923,5116,4708
439.4657616,5170,4709
438.348127,5105,4656
437.2302887,5133,4714
436.1122464,5092,4728
434.9940002,5107,4692
433.8755501,5127,4681
432.7568959,5167,4668
431.6380376,5166,4635
430.5189751,5096,4697
429.3997085,5043,4668
428.2802377,5011,4679
427.1605626,5043,4594
426.0406832,5018,4662
424.9205993,5010,4653
423.8003111,5123,4645
422.6798183,5081,4608
421.559121,5042,4591
420.4382192,5058,4633
419.3171127,5050,4624
418.1958015,5056,4616
417.0742856,5057,4627
415.9525649,5023,4560
414.8306393,4981,4666
413.7085089,4927,4562
412.5861735,4978,4554
411.4636332,4996,4535
410.3408878,5022,4589
409.2179373,5045,4616
408.0947817,5007,4577
406.9714209,5005,4637
405.8478549,4972,4582
404.7240836,5010,4508
403.6001069,4988,4560
402.4759249,4984,4600
401.3515374,4993,4617
400.2269444,5011,4574
399.1021459,4928,4577
397.9771418,5001,4557
396.851932,5002,4560
395.7265166,5025,4611
394.6008954,4999,4594
393.4750684,5080,4578
392.3490355,4891,4526
391.2227968,4956,4562
390.0963521,5046,4549
388.9697015,4958,4518
387.8428447,5043,4566
386.7157819,4964,4560
385.588513,4996,4565
384.4610378,5012,4558
383.3333564,5049,4679
382.2054687,5002,4557
381.0773746,4968,4489
379.9490741,5016,4575
378.8205672,5021,4597
377.6918537,5009,4561
376.5629338,5020,4528
375.4338072,5036,4532
374.3044739,4893,4548
373.1749339,4960,4598
372.0451872,4883,4490
370.9152337,4943,4588
369.7850733,4924,4553
368.654706,4982,4512
367.5241317,4901,4538
366.3933504,4975,4509
365.2623621,4880,4587
364.1311666,4900,4570
362.999764,4883,4473
361.8681541,4900,4468
360.736337,4946,4526
359.6043126,4927,4475
358.4720807,4966,4588
357.3396415,4883,4507
356.2069948,4893,4500
355.0741405,4806,4435
353.9410787,4858,4443
352.8078093,4858,4500
