#Wave,#Intensity1,#Intensity2,#Intensity3
351.7692476,5582,5172,5085
352.902517,5626,5125,5076
354.0355789,5561,5151,5061
355.1684331,5646,5198,5069
356.3010798,5679,5197,5050
357.4335191,5670,5185,5139
358.5657509,5572,5166,5063
359.6977753,5751,5150,5028
360.8295924,5614,5205,5104
361.9612023,5682,5297,5116
363.0926049,5655,5231,5147
364.2238004,5786,5103,5109
365.3547887,5725,5185,5132
366.48557,5645,5221,5116
367.6161443,5677,5160,5078
368.7465116,5683,5271,5190
369.876672,5746,5256,5071
371.0066255,5747,5213,5123
372.1363723,5701,5201,5197
373.2659122,5638,5283,5106
374.3952455,5751,5288,5094
375.5243721,5771,5261,5222
376.6532921,5753,5302,5143
377.7820055,5773,5357,5246
378.9105124,5795,5262,5157
380.0388129,5816,5267,5190
381.166907,5750,5297,5257
382.2947947,5821,5329,5224
383.4224761,5733,5286,5207
384.5499513,5767,5364,5149
385.6772202,5697,5304,5174
386.8042831,5827,5336,5274
387.9311398,5755,5242,5240
389.0577904,5760,5235,5138
390.1842351,5700,5296,5181
391.3104739,5847,5332,5270
392.4365067,5727,5307,5212
393.5623337,5773,5311,5193
394.6879549,5775,5278,5219
395.8133703,5802,5323,5156
396.9385801,5729,5264,5223
398.0635842,5742,5341,5159
399.1883827,5747,5263,5194
400.3129757,5740,5306,5215
401.4373632,5759,5313,5187
402.5615452,5838,5269,5270
403.6855219,5738,5430,5269
404.8092932,5834,5257,5194
405.9328592,5772,5330,5250
407.05622,5807,5354,5231
408.1793756,5741,5326,5289
409.3023261,5813,5300,5322
410.4250715,5748,5368,5251
411.5476118,5775,5321,5298
412.6699472,5694,5335,5229
413.7920776,5759,5333,5246
414.9140032,5986,5312,5329
416.0357239,5761,5368,5278
417.1572398,5792,5295,5206
418.278551,5893,5298,5314
419.3996575,5877,5317,5275
420.5205593,5771,5296,5271
421.6412566,5766,5368,5294
422.7617494,5745,5368,5193
423.8820376,5762,5361,5224
425.0021215,5864,5297,5292
426.1220009,5873,5487,5237
427.241676,5825,5452,5371
428.3611469,5897,5373,5349
429.4804135,5838,5391,5300
430.5994759,5917,5391,5242
431.7183342,5860,5512,5344
432.8369884,5960,5430,5384
433.9554385,5798,5484,5352
435.0736847,5933,5395,5309
436.191727,5939,5440,5306
437.3095654,5886,5447,5417
438.4271999,5975,5461,5432
439.5446307,5884,5532,5403
440.6618577,5880,5523,5314
441.778881,5969,5313,5331
442.8957007,5882,5424,5468
444.0123169,5959,5475,5383
445.1287295,5916,5527,5415
446.2449386,5870,5480,5369
447.3609443,5926,5470,5372
448.4767466,5947,5441,5399
449.5923455,5930,5567,5304
450.7077412,6057,5534,5385
451.8229337,5956,5452,5350
452.9379229,6020,5440,5318
454.0527091,5992,5437,5460
455.1672921,6008,5516,5377
456.2816721,5981,5493,5452
457.3958491,5954,5496,5399
458.5098232,5985,5548,5454
459.6235944,5931,5482,5339
460.7371628,5902,5466,5334
461.8505284,5969,5502,5434
462.9636912,6042,5542,5413
464.0766514,5992,5576,5449
465.1894089,5942,5586,5398
466.3019639,6001,5478,5353
467.4143163,5896,5437,5436
468.5264662,6027,5470,5417
469.6384136,5989,5479,5314
470.7501587,5974,5448,5362
471.8617014,5816,5495,5386
472.9730419,6009,5499,5375
474.0841801,6068,5520,5395
475.1951161,6111,5547,5410
476.30585,5941,5537,5479
477.4163818,6002,5442,5417
478.5267115,5999,5427,5340
479.6368392,6046,5482,5478
480.746765,5980,5509,5401
481.8564889,5953,5533,5449
482.966011,6058,5523,5387
484.0753312,5959,5555,5391
485.1844497,6040,5686,5505
486.2933665,6100,5553,5529
487.4020817,6116,5565,5525
488.5105953,6073,5514,5484
489.6189073,6043,5531,5405
490.7270178,6071,5599,5384
491.8349268,6077,5551,5387
492.9426345,6033,5535,5446
494.0501408,6076,5549,5476
495.1574458,6034,5563,5416
496.2645495,6055,5522,5451
497.3714521,6086,5520,5511
498.4781534,5993,5649,5526
499.5846537,6084,5553,5465
500.6909529,6072,5636,5478
501.7970511,6103,5622,5511
502.9029483,6218,5656,5466
504.0086446,6145,5635,5430
505.1141401,6089,5646,5472
506.2194347,6105,5581,5485
507.3245286,6068,5604,5499
508.4294218,5990,5666,5601
509.5341143,6213,5610,5527
510.6386062,6066,5637,5609
511.7428975,6120,5578,5567
512.8469882,6105,5652,5553
513.9508786,6139,5648,5558
515.0545684,6076,5562,5528
516.158058,6041,5681,5552
517.2613472,6107,5649,5566
518.3644361,6150,5596,5513
519.4673248,6141,5696,5581
520.5700133,6139,5601,5588
521.6725016,6138,5621,5585
522.7747899,6136,5585,5485
523.8768782,6038,5694,5512
524.9787665,6117,5678,5523
526.0804548,6114,5643,5529
527.1819433,6119,5627,5620
528.2832319,6089,5579,5515
529.3843207,6097,5596,5530
530.4852098,6101,5673,5534
531.5858992,6138,5657,5560
532.6863889,6109,5603,5562
533.7866791,6201,5691,5607
534.8867697,6166,5615,5493
535.9866608,6135,5677,5519
537.0863525,6120,5629,5519
538.1858447,6160,5622,5552
539.2851376,6174,5738,5547
540.3842312,6172,5647,5568
541.4831256,6146,5655,5584
542.5818207,6225,5659,5502
543.6803167,6163,5709,5539
544.7786136,6176,5705,5604
545.8767114,6100,5624,5549
546.9746102,6146,5619,5511
548.07231,6090,5689,5535
549.1698109,6137,5586,5591
550.2671129,6075,5733,5487
551.3642162,6152,5602,5584
552.4611206,6184,5674,5529
553.5578263,6111,5589,5521
554.6543334,6068,5731,5538
555.7506418,6117,5748,5511
556.8467516,6183,5735,5659
557.942663,6140,5662,5612
559.0383758,6201,5746,5621
560.1338902,6244,5643,5582
561.2292062,6154,5638,5552
562.3243239,6280,5693,5593
563.4192432,6253,5704,5575
564.5139644,6101,5692,5617
565.6084873,6269,5720,5773
566.7028121,6310,5744,5613
567.7969388,6163,5727,5681
568.8908675,6300,5799,5706
569.9845981,6158,5774,5673
571.0781308,6248,5708,5778
572.1714656,6251,5751,5625
573.2646026,6342,5766,5657
574.3575417,6311,5786,5646
575.4502831,6256,5788,5639
576.5428267,6272,5829,5638
577.6351727,6293,5824,5694
578.7273211,6269,5855,5752
579.8192719,6258,5762,5694
580.9110251,6293,5791,5714
582.0025809,6225,5828,5621
583.0939393,6255,5740,5705
584.1851003,6277,5803,5720
585.276064,6285,5878,5759
586.3668304,6358,5797,5823
587.4573995,6322,5863,5753
588.5477715,6335,5840,5715
589.6379463,6271,5833,5777
590.727924,6281,5840,5727
591.8177047,6351,5836,5738
592.9072884,6307,5851,5803
593.9966751,6299,5841,5727
595.085865,6319,5799,5737
596.1748579,6335,5820,5792
597.2636541,6471,5895,5743
598.3522535,6305,5863,5737
599.4406563,6468,5870,5754
600.5288623,6349,5827,5676
601.6168717,6445,5865,5744
602.7046846,6306,5901,5726
603.7923009,6340,5888,5768
604.8797208,6357,5792,5743
605.9669443,6241,5840,5724
607.0539713,6340,5844,5718
608.1408021,6283,5869,5741
609.2274365,6365,5864,5742
610.3138748,6244,5857,5775
611.4001168,6274,5865,5692
612.4861627,6393,5908,5760
613.5720125,6356,5828,5771
614.6576662,6276,5778,5776
615.743124,6259,5840,5824
616.8283858,6356,5846,5838
617.9134517,6348,5921,5743
618.9983217,6281,5884,5747
620.082996,6334,5926,5773
621.1674744,6364,5860,5833
622.2517572,6363,5922,5737
623.3358443,6282,5890,5796
624.4197358,6419,5892,5841
625.5034317,6418,5962,5868
626.586932,6463,5828,5801
627.6702369,6502,5890,5775
628.7533464,6532,5801,5858
629.8362605,6279,5903,5774
630.9189792,6420,5966,5862
632.0015027,6468,5902,5822
633.0838309,6437,5967,5806
634.1659639,6465,5931,5804
635.2479018,6380,6004,5874
636.3296446,6392,5977,5851
637.4111923,6422,6004,5831
638.492545,6497,5976,5822
639.5737027,6480,5846,5853
640.6546656,6487,5908,5868
641.7354335,6455,5970,5871
642.8160067,6464,6032,5753
643.8963851,6484,5982,5876
644.9765687,6561,5972,5937
646.0565577,6349,5981,5915
647.136352,6508,5991,5951
648.2159518,6474,6004,5795
649.295357,6551,5926,5855
650.3745677,6476,6014,5832
651.453584,6472,6078,5923
652.5324059,6487,5902,5869
653.6110335,6439,6057,5917
654.6894667,6435,5989,5933
655.7677057,6474,5963,5945
656.8457504,6540,6033,5938
657.923601,6530,6003,5931
659.0012575,6369,5948,5900
660.07872,6554,5986,5941
661.1559884,6548,6011,5945
662.2330628,6650,5987,5956
663.3099433,6409,5974,5921
664.3866299,6513,6021,5910
665.4631227,6557,6016,5851
666.5394216,6499,6102,5840
667.6155269,6546,5993,5867
668.6914384,6593,5974,6015
669.7671563,6503,6003,5928
670.8426806,6425,5968,5932
671.9180114,6530,5999,5921
672.9931486,6430,5992,5851
674.0680924,6480,5998,5882
675.1428427,6483,5996,5884
676.2173997,6409,5978,5895
677.2917633,6410,5948,5845
678.3659337,6524,5942,5911
679.4399109,6393,6033,5885
680.5136948,6358,5975,5890
681.5872856,6399,5999,5916
682.6606834,6428,5940,5887
683.7338881,6460,6062,5887
684.8068997,6465,6041,6010
685.8797185,6439,6125,5905
686.9523443,6495,6037,5883
688.0247773,6530,5994,5952
689.0970174,6480,5977,5876
690.1690648,6487,6049,5973
691.2409195,6497,5849,5930
692.3125815,6491,6021,5941
693.3840508,6416,5978,5889
694.4553276,6425,5999,5948
695.5264119,6535,5966,5837
696.5973036,6513,6016,5940
697.6680029,6493,6023,5907
698.7385099,6536,5982,5897
699.8088244,6551,6058,6048
700.8789467,6518,6025,6043
701.9488767,6540,6031,5939
703.0186145,6548,6034,5959
704.0881601,6441,6010,5849
705.1575136,6527,5981,5959
706.226675,6554,6061,5826
707.2956444,6580,6094,5986
708.3644218,6632,6128,6058
709.4330073,6540,5982,5991
710.5014009,6673,6088,5909
711.5696026,6512,6045,5964
712.6376126,6630,6050,5943
713.7054308,6641,6059,6091
714.7730573,6617,6092,6050
715.8404921,6635,6060,5912
716.9077353,6697,6112,6022
717.974787,6608,6093,6078
719.0416471,6696,6166,5991
720.1083157,6664,6054,5974
721.1747929,6726,6054,5989
722.2410788,6605,6125,5974
723.3071733,6591,6132,5987
724.3730765,6676,6115,6096
725.4387884,6603,6094,5947
726.5043092,6700,6261,6021
727.5696387,6698,6145,6045
728.6347772,6593,6117,5921
729.6997246,6590,6143,6016
730.764481,6631,6115,6006
731.8290465,6598,6292,6084
732.893421,6657,6177,6081
733.9576046,6590,6220,6073
735.0215973,6631,6105,6058
736.0853993,6695,6229,6064
737.1490106,6734,6126,6073
738.2124311,6627,6208,6018
739.275661,6648,6174,6127
740.3387003,6697,6249,6090
741.401549,6635,6180,6035
742.4642072,6670,6219,6015
743.5266749,6788,6192,6090
744.5889522,6614,6198,6099
745.6510392,6601,6287,6110
746.7129358,6692,6146,6020
747.7746421,6726,6162,6071
748.8361581,6652,6207,6073
749.897484,6700,6196,6053
750.9586197,6672,6224,6103
752.0195653,6641,6097,6101
753.0803208,6658,6125,6089
754.1408863,6673,6167,6070
755.2012619,6629,6149,6031
756.2614475,6607,6243,6059
757.3214432,6565,6151,6052
758.3812492,6716,6126,6043
759.4408653,6627,6205,6094
760.5002916,6660,6210,6102
761.5595283,6608,6236,5988
762.6185753,6688,6125,6045
763.6774327,6727,6112,6036
764.7361006,6622,6159,6082
765.7945789,6777,6194,6160
766.8528678,6535,6210,6117
767.9109672,6665,6172,6013
768.9688772,6601,6146,6147
770.0265979,6572,6148,6115
771.0841294,6646,6183,6111
772.1414715,6589,6228,6001
773.1986245,6748,6246,6045
774.2555883,6733,6117,6120
775.312363,6692,6179,6106
776.3689486,6630,6070,6056
777.4253452,6600,6140,6099
778.4815529,6670,6247,6117
779.5375716,6763,6241,6179
780.5934014,6583,6203,5973
781.6490423,6751,6093,6103
782.7044945,6678,6106,6097
783.7597579,6691,6207,6071
784.8148327,6676,6162,6092
785.8697187,6623,6261,6143
786.9244161,6710,6217,6119
787.978925,6761,6166,6031
789.0332454,6661,6277,6134
790.0873772,6754,6248,6190
791.1413206,6635,6267,6149
792.1950757,6763,6337,6137
793.2486423,6776,6221,6102
794.3020207,6753,6261,6167
795.3552108,6770,6277,6210
796.4082127,6678,6252,6225
797.4610265,6824,6266,6222
798.5136521,6667,6261,6126
799.5660896,6792,6213,6174
800.6183391,6729,6320,6124
801.6704006,6789,6312,6138
802.7222742,6780,6286,6273
803.7739599,6723,6197,6186
804.8254577,6625,6157,6164
805.8767677,6757,6215,6111
806.9278899,6790,6291,6247
807.9788245,6764,6305,6235
809.0295713,6930,6233,6257
810.0801305,6783,6252,6218
811.1305021,6803,6217,6118
812.1806862,6817,6320,6124
813.2306828,6861,6443,6238
814.2804919,6833,6305,6264
815.3301136,6735,6427,6153
816.379548,6840,6353,6137
817.428795,6855,6350,6166
818.4778548,6854,6345,6308
819.5267273,6845,6365,6271
820.5754126,6944,6333,6211
821.6239108,6747,6296,6182
822.6722219,6781,6325,6223
823.720346,6772,6270,6213
824.768283,6850,6281,6298
825.8160331,6888,6389,6131
826.8635963,6944,6326,6265
827.9109725,6770,6377,6294
828.958162,6770.666964,6204,6168
830.0051647,6771.333809,6278,6214
831.0519806,6772.000535,6315,6209
832.0986098,6772.667142,6372,6234
833.1450524,6773.333631,6391,6301
834.1913083,6774,6321,6193
835.2373777,6779,6401,6332
836.2832606,6887,6424,6284
837.328957,6874,6344,6146
838.3744669,6866,6300,6251
839.4197905,6820,6343,6208
840.4649277,6811,6286,6205
841.5098787,6709,6318,6238
842.5546433,6812,6293,6196
843.5992218,6837,6376,6209
844.6436141,6825,6288,6243
845.6878203,6750,6332,6202
846.7318404,6754,6235,6278
847.7756744,6817,6359,6268
848.8193225,6766,6362,6292
849.8627846,6791,6261,6244
850.9060608,6685,6193,6260
851.9491512,6906,6356,6275
852.9920557,6894,6368,6210
854.0347745,6702,6326,6297
855.0773075,6788,6306,6296
856.1196549,6786,6278,6283
857.1618166,6849,6235,6210
858.2037927,6855,6331,6211
859.2455833,6855,6351,6259
860.2871883,6861,6333,6310
861.3286079,6837,6306,6265
862.3698421,6880,6317,6211
863.4108909,6772,6342,6283
864.4517544,6767,6334,6281
865.4924326,6861,6275,6252
866.5329255,6844,6303,6246
867.5732333,6805,6316,6377
868.6133559,6896,6318,6209
869.6532933,6936,6384,6261
870.6930457,6858,6365,6239
871.7326131,6821,6347,6260
872.7719955,6825,6366,6321
873.811193,6773,6450,6311
874.8502055,6905,6396,6236
875.8890333,6970,6388,6358
876.9276762,6915,6352,6301
877.9661343,6904,6487,6284
879.0044077,6914,6461,6394
880.0424965,6925,6492,6294
881.0804006,6900,6454,6386
882.1181201,6963,6346,6284
883.1556551,6985,6424,6361
884.1930056,6978,6473,6364
885.2301717,7011,6535,6404
886.2671533,6934,6466,6287
887.3039505,6999,6392,6420
888.3405634,6972,6424,6369
889.3769921,6976,6396,6368
890.4132365,7089,6544,6375
891.4492967,6957,6468,6421
892.4851727,6951,6491,6292
893.5208646,6982,6491,6291
894.5563725,6958,6502,6324
895.5916964,6938,6355,6449
896.6268362,7036,6485,6394
897.6617922,7019,6426,6406
898.6965642,7075,6451,6370
899.7311524,6926,6497,6373
900.7655568,6998,6366,6477
901.7997774,7080,6539,6420
902.8338143,7033,6553,6433
903.8676675,6943,6502,6505
904.9013371,7025,6472,6345
905.9348231,7042,6435,6425
906.9681256,6940,6413,6463
908.0012446,6955,6562,6406
909.0341801,6984,6536,6289
910.0669322,6986,6490,6408
911.0995009,7010,6458,6438
912.1318863,6932,6538,6486
913.1640883,7032,6571,6514
914.1961072,7131,6543,6478
915.2279429,7044,6570,6482
916.2595954,6972,6503,6374
917.2910647,7059,6471,6473
918.3223511,7040,6550,6397
919.3534543,7054,6522,6445
920.3843747,7056,6463,6552
921.415112,6901,6514,6426
922.4456665,7070,6472,6418
923.4760381,6966,6498,6430
924.5062269,7123,6532,6416
925.5362329,7084,6486,6519
926.5660562,7019,6476,6446
927.5956968,6969,6471,6329
928.6251548,7031,6461,6365
929.6544302,7046,6587,6433
930.683523,7094,6461,6347
931.7124333,7010,6477,6515
932.7411612,7031,6567,6475
933.7697066,6891,6428,6434
934.7980697,6953,6431,6362
935.8262504,7001,6431,6437
936.8542488,6984,6539,6477
937.8820649,6886,6555,6385
938.9096989,6993,6491,6385
939.9371506,7026,6528,6497
940.9644203,6958,6433,6429
941.9915079,6998,6559,6435
943.0184134,7101,6589,6476
944.0451369,7066,6501,6415
945.0716785,7029,6431,6457
946.0980382,7086,6470,6430
947.124216,6954,6492,6359
948.1502119,7070,6513,6395
949.1760261,7060,6600,6401
950.2016586,7053,6417,6469
951.2271093,7080,6559,6355
952.2523784,7040,6452,6395
953.2774659,6984,6491,6525
954.3023718,6981,6603,6495
955.3270962,7093,6553,6422
956.3516391,7149,6473,6539
957.3760006,7034,6523,6477
958.4001806,7028,6565,6470
959.4241793,7152,6565,6559
960.4479967,7059,6569,6481
961.4716329,7065,6483,6460
962.4950878,7131,6585,6592
963.5183615,7129,6571,6535
964.541454,7015,6465,6441
965.5643655,7185,6592,6548
966.5870959,7135,6539,6492
967.6096453,7131,6463,6508
968.6320137,7188,6630,6465
969.6542011,7088,6654,6515
970.6762077,7134,6720,6513
971.6980335,7262,6700,6530
972.7196784,7167,6591,6556
973.7411426,7161,6568,6572
974.762426,7162.400495,6694,6595
975.7835288,7163.800743,6572,6574
976.804451,7165.200743,6659,6610
977.8251925,7166.600495,6566,6595
978.8457535,7168,6647,6605
979.866134,7140,6784,6571
980.886334,7224,6664,6558
981.9063536,7239,6736,6604
982.9261929,7234,6573,6617
983.9458517,7255,6763,6705
984.9653303,7251,6713,6567
985.9846287,7172,6658,6584
987.0037468,7146,6566,6578
988.0226847,7257,6793,6620
989.0414426,7261,6666,6726
990.0600203,7322,6727,6761
991.078418,7204,6616,6573
992.0966357,7188,6744,6644
993.1146734,7319,6632,6637
994.1325312,7207,6763,6564
995.1502092,7208,6726,6664
996.1677073,7308,6682,6649
997.1850256,7248,6628,6649
998.2021641,7255,6778,6649
999.219123,7258,6705,6628
1000.235902,7494,6714,6636
1001.252502,7393,6699,6685
1002.268922,7450,6728,6634
1003.285162,7301,6715,6615
1004.301223,7345,6717,6634
1005.317105,7419,6778,6650
1006.332807,7335,6795,6661
1007.348329,7238,6733,6770
1008.363673,7296,6720,6718
1009.378837,7214,6685,6685
1010.393822,7235,6667,6576
1011.408627,7320,6730,6707
1012.423254,7306,6681,6629
1013.437701,7207,6755,6636
1014.45197,7335,6731,6611
1015.466059,7233,6782,6559
1016.479969,7179,6662,6535
1017.4937,7203,6719,6645
1018.507253,7318,6642,6673
1019.520626,7222,6745,6616
1020.533821,7256,6816,6616
1021.546837,7233,6614,6764
1022.559674,7230,6725,6633
1023.572333,7346,6720,6637
1024.584812,7238,6748,6728
1025.597114,7328,6741,6796
1026.609236,7159,6655,6609
1027.62118,7259,6684,6663
1028.632946,7405,6708,6685
1029.644533,7331,6711,6648
1030.655942,7394,6847,6652
1031.667172,7325,6695,6664
1032.678224,7257,6671,6741
1033.689098,7325,6669,6736
1034.699793,7305,6693,6700
1035.710311,7352,6791,6659
1036.72065,7276,6745,6736
1037.730811,7371,6773,6671
1038.740794,7294,6770,6677
1039.750599,7371,6754,6687
1040.760225,7291,6654,6752
1041.769674,7424,6815,6708
1042.778945,7405,6772,6753
1043.788039,7407,6805,6712
1044.796954,7390,6815,6676
1045.805692,7443,6749,6805
1046.814251,7419,6857,6754
1047.822633,7446,6891,6839
1048.830838,7429,6792,6746
1049.838865,7488,6859,6755
1050.846714,7477,6808,6811
1051.854386,7569,6779,6791
1052.86188,7564,6860,6802
1053.869197,7530,6870,6805
1054.876336,7601,6888,6899
1055.883298,7508,7012,6845
1056.890082,7645,6917,6830
1057.89669,7791,6992,6822
1058.90312,7778,7016,6867
1059.909373,7887,7094,6861
1060.915448,7915,7053,7015
1061.921347,7869,7067,6989
1062.927068,7994,7008,7049
1063.932613,8183,7119,7044
1064.93798,8260,7183,7007
1065.943171,8297,7253,7136
1066.948184,8377,7322,7124
1067.953021,8385,7343,7067
1068.957681,8672,7300,7093
1069.962164,8580,7435,7178
1070.96647,8663,7408,7133
1071.9706,8710,7316,7194
1072.974553,8670,7377,7238
1073.978329,8603,7313,7273
1074.981929,8483,7357,7132
1075.985352,8596,7364,7136
1076.988598,8557,7300,7119
1077.991668,8430,7319,7234
1078.994562,8252,7231,7098
1079.99728,8179,7199,7137
1080.99982,8100,7105,6986
1082.002185,7989,7045,7102
1083.004374,7998,7160,7143
1084.006386,7960,7029,7091
1085.008222,7761,7029,7095
1086.009882,7752,7059,6982
1087.011365,7745,7069,7006
1088.012673,7787,7092,7084
1089.013805,7648,7049,7046
1090.01476,7751,7205,7037
1091.01554,7770,7001,7032
1092.016144,7672,7125,7026
1093.016572,7662,7018,7012
1094.016824,7751,7087,6969
1095.016901,7604,7145,7027
1096.016801,7619,7034,7041
1097.016526,7730,7107,6972
1098.016076,7683,6988,6981
1099.015449,7626,7022,6944
1100.014648,7709,6998,7055
1101.01367,7644,7027,6974
1102.012517,7587,7031,7054
1103.011189,7630,7009,6898
1104.009685,7627,7078,6897
1105.008006,7692,7020,7055
1106.006152,7603,7077,6866
1107.004122,7702,7060,6924
1108.001917,7646,7094,6903
1108.999537,7734,6933,6934
1109.996982,7805,7032,6951
1110.994251,7728,7053,7000
1111.991346,7786,7104,7109
1112.988265,7712,7063,7024
1113.98501,7821,7101,6984
1114.981579,7700,7026,6980
1115.977974,7764,7082,7023
1116.974193,7791,7062,7017
1117.970238,7888,7099,7092
1118.966108,7942,7187,7065
1119.961804,7833,7177,7010
1120.957324,7879,7103,6982
1121.95267,8008,7174,7018
1122.947841,7962,7224,7020
1123.942838,8054,7154,7116
1124.93766,8106,7139,7106
1125.932308,8105,7267,7044
1126.926781,8185,7280,7172
1127.921079,8262,7264,7077
1128.915204,8511,7324,7188
1129.909154,8710,7293,7344
1130.902929,8720,7502,7183
1131.896531,8897,7477,7219
1132.889958,8950,7478,7423
1133.883211,9119,7674,7388
1134.876289,9053,7670,7352
1135.869194,9270,7776,7452
1136.861924,9329,7728,7489
1137.854481,9500,7721,7478
1138.846864,9369,7684,7571
1139.839072,9259,7717,7446
1140.831107,9528,7798,7538
1141.822968,9329,7674,7615
1142.814655,9252,7769,7589
1143.806168,9103,7587,7594
1144.797507,9040,7599,7434
1145.788673,8837,7525,7403
1146.779665,8906,7473,7369
1147.770483,8839,7402,7260
1148.761128,8725,7420,7252
1149.751599,8471,7344,7298
1150.741897,8528,7266,7264
1151.732021,8561,7258,7212
1152.721972,8450,7323,7352
1153.71175,8210,7233,7138
1154.701354,8297,7239,7169
1155.690785,8198,7166,7143
1156.680042,8150,7290,7214
1157.669126,8033,7158,7191
1158.658037,8138,7190,7144
1159.646775,8144,7207,7273
1160.63534,8012,7222,7193
1161.623732,7972,7211,7103
1162.611951,7971,7298,7217
1163.599996,7883,7228,7201
1164.587869,7849,7261,7136
1165.575569,8036,7227,7189
1166.563096,7925,7285,7261
1167.55045,7939,7234,7291
1168.537632,7816,7183,7264
1169.52464,7881,7264,7247
1170.511476,7955,7238,7308
1171.498139,7912,7321,7178
1172.48463,8026,7263,7184
1173.470948,7858,7202,7197
1174.457093,7854,7338,7195
1175.443066,7987,7385,7169
1176.428867,7986,7305,7314
1177.414495,7955,7334,7190
1178.399951,8045,7353,7364
1179.385234,8116,7366,7229
1180.370345,8027,7371,7354
1181.355283,8212,7394,7292
1182.34005,8246,7351,7387
1183.324644,8392,7440,7326
1184.309066,8232,7468,7401
1185.293316,8210,7472,7293
1186.277394,8283,7404,7322
1187.2613,8267.563336,7390.135589,7294
1188.245034,8252.129371,7376.273602,7412
1189.228596,8236.698103,7362.414037,7391
1190.211986,8221.269533,7348.556895,7415
1191.195204,8205.84366,7334.702176,7350
1192.17825,8190.420482,7320.849877,7203
1193.161125,8175,7307,7411
1194.143827,8207,7288,7337
1195.126358,8188,7387,7254
1196.108718,8115,7258,7277
1197.090905,8082,7251,7161
1198.072921,8038,7310,7361
1199.054766,8092,7345,7250
1200.036439,8034,7334,7354
1201.01794,8121,7411,7335
1201.99927,8052,7256,7303
1202.980429,8180,7379,7322
1203.961416,8056,7359,7294
1204.942232,8018,7324,7304
1205.922877,8065,7307,7434
1206.90335,7993,7312,7268
1207.883652,7975,7327,7313
1208.863783,7926,7225,7238
1209.843743,7955,7341,7302
1210.823532,8024,7395,7350
1211.80315,8044,7349,7375
1212.782596,8059,7388,7465
1213.761872,8090,7305,7378
1214.740977,8091,7427,7486
1215.719911,7922,7439,7444
1216.698674,8032,7449,7466
1217.677266,8135,7455,7361
1218.655688,8033,7435,7484
1219.633938,8059,7418,7441
1220.612018,8026,7336,7401
1221.589928,8105,7341,7475
1222.567667,8101,7374,7506
1223.545235,8205,7392,7423
1224.522632,8218,7436,7600
1225.499859,8020,7416,7496
1226.476916,8135,7465,7515
1227.453802,8234,7506,7524
1228.430518,8142,7548,7712
1229.407064,8166,7591,7631
1230.383439,8227,7419,7534
1231.359644,8064,7617,7615
1232.335678,8184,7433,7601
1233.311543,8181,7603,7576
1234.287237,8266,7674,7624
1235.262761,8259,7548,7515
1236.238115,8125,7557,7703
1237.2133,8248,7665,7799
1238.188314,8242,7554,7649
1239.163158,8195,7583,7652
1240.137832,8271,7770,7637
1241.112336,8212,7697,7710
1242.086671,8376,7764,7810
1243.060836,8254,7653,7766
1244.034831,8235,7608,7734
1245.008656,8328,7612,7758
1245.982311,8401,7697,7837
1246.955797,8367,7665,7785
1247.929113,8486,7775,7758
1248.90226,8442,7726,7801
1249.875237,8378,7604,7883
1250.848045,8437,7768,7905
1251.820683,8384,7860,7826
1252.793152,8418,7771,7907
1253.765451,8476,7832,7935
1254.737582,8545,7680,8017
1255.709542,8459,7835,7983
1256.681334,8462,7898,7952
1257.652956,8636,7933,8007
1258.624409,8638,7882,7972
1259.595693,8596,8010,8144
1260.566808,8525,7862,8045
1261.537754,8470,7727,8002
1262.508531,8460,7889,8106
1263.479139,8609,7994,7998
1264.449577,8685,7995,8201
1265.419847,8661,7984,8130
1266.389948,8607,8025,8042
1267.359881,8622,7990,8136
1268.329644,8528,7900,8119
1269.299239,8672,7881,8212
1270.268665,8704,8162,8192
1271.237922,8823,8107,8209
1272.207011,8759,8079,8179
1273.175931,8772,8121,8272
1274.144682,8916,8127,8215
1275.113265,8807,8105,8230
1276.08168,8850,8157,8435
1277.049926,8936,8361,8500
1278.018003,8908,8216,8426
1278.985912,8905,8098,8437
1279.953653,8778,8174,8399
1280.921226,8954,8182,8381
1281.88863,9009,8268,8537
1282.855866,9059,8287,8426
1283.822934,9050,8307,8546
1284.789834,9043,8122,8480
1285.756566,9006,8243,8648
1286.723129,8995,8338,8579
1287.689525,9087,8410,8624
1288.655752,9081,8364,8646
1289.621812,9133,8337,8665
1290.587704,9008,8359,8642
1291.553428,9186,8410,8666
1292.518984,9114,8435,8735
1293.484372,9151,8448,8650
1294.449592,9155,8447,8797
1295.414645,9264,8508,8790
1296.37953,9283,8447,8902
1297.344247,9292,8577,8781
1298.308797,9342,8541,8792
1299.27318,9524,8578,8853
1300.237394,9509,8686,8870
1301.201441,9469,8603,8953
1302.165321,9509,8667,8883
1303.129034,9515,8558,8955
1304.092578,9437,8706,9022
1305.055956,9510,8784,8987
1306.019166,9645,8737,9079
1306.982209,9522,8780,9022
1307.945085,9448,8666,8959
1308.907794,9585,8538,9018
1309.870335,9532,8727,9057
1310.83271,9588,8775,9041
1311.794917,9656,8811,9160
1312.756957,9535,8635,9166
1313.718831,9533,8729,9114
1314.680537,9584,8634,9058
1315.642076,9552,8760,9170
1316.603449,9549,8829,9189
1317.564654,9506,8762,9305
1318.525693,9629,8695,9072
1319.486565,9557,8738,9296
1320.447271,9500,8750,9190
1321.407809,9620,8813,9210
1322.368181,9526,8711,9112
1323.328387,9601,8731,9139
1324.288426,9565,8779,9182
1325.248298,9657,8874,9209
1326.208004,9514,8715,9141
1327.167543,9578,8727,9302
1328.126916,9577,8914,9335
1329.086122,9597,8933,9332
1330.045162,9628,8832,9183
1331.004036,9584,8852,9144
1331.962744,9607,8741,9097
1332.921285,9530,8629,9236
1333.87966,9611,8920,9034
1334.837869,9652,8814,9134
1335.795912,9635,8801,9189
1336.753788,9613,8685,9130
1337.711499,9526,8776,8991
1338.669043,9551,8900,9009
1339.626422,9643,8826,9040
1340.583635,9604,8750,9004
1341.540682,9567,8851,9022
1342.497562,9688,8725,8962
1343.454278,9705,8595,8854
1344.410827,9534,8540,8899
1345.36721,9491,8636,9053
1346.323428,9594,8715,8893
1347.279481,9602,8750,8863
1348.235367,9688,8766,8884
1349.191088,9531,8690,8755
1350.146643,9662,8573,9000
1351.102033,9570,8617,8756
1352.057258,9674,8684,8894
1353.012316,9665,8673,8857
1353.96721,9782,8610,8963
1354.921938,9508,8781,8914
1355.876501,9732,8524,8728
1356.830898,9672,8687,8861
1357.785131,9726,8610,8804
1358.739198,9829,8570,8824
1359.693099,9927,8720,8695
1360.646836,9737,8540,8680
1361.600408,9671,8510,8778
1362.553814,9871,8535,8828
1363.507055,9832,8625,8770
1364.460132,9898,8588,8762
1365.413043,9725,8528,8750
1366.36579,9659,8436,8600
1367.318371,9766,8517,8627
1368.270788,9676,8537,8600
1369.22304,9856,8525,8546
1370.175127,9856,8560,8566
1371.12705,9804,8511,8567
1372.078808,9827,8500,8651
1373.030401,9802,8383,8648
1373.981829,9847,8446,8507
1374.933093,9853,8472,8484
1375.884192,9973,8296,8550
1376.835127,9898,8521,8568
1377.785897,9868,8394,8566
1378.736503,9957,8471,8547
1379.686945,9884,8432,8400
1380.637222,10060,8491,8535
1381.587335,9974,8580,8544
1382.537283,10046,8498,8568
1383.487067,10086,8543,8568
1384.436687,10124,8524,8571
1385.386143,10164,8547,8545
1386.335435,10061,8534,8625
1387.284562,10182,8528,8529
1388.233526,10194,8495,8572
1389.182325,10021,8462,8645
1390.130961,9899,8467,8516
1391.079432,9772,8349,8410
1392.02774,9786,8478,8374
1392.975883,9615,8256,8466
1393.923863,9606,8285,8440
1394.871679,9366,8138,8204
1395.819332,9351,8018,8189
1396.76682,8999,8059,8073
1397.714145,9187,8007,8140
1398.661306,9060,7995,8175
1399.608304,8952,8023,8191
1400.555137,8794,8007,8045
1401.501808,8741,7998,8007
1402.448315,8764,7981,8070
1403.394658,8768,7952,7976
1404.340838,8818,7925,7996
1405.286855,8658,7955,7982
1406.232708,8743,7869,7960
1407.178397,8768,7946,7886
1408.123924,8605,7897,7975
1409.069287,8759,7817,7940
1410.014487,8669,7909,7854
1410.959524,8756,7958,7960
1411.904398,8779,7881,7928
1412.849108,8827,7876,7964
1413.793656,8885,7882,7878
1414.73804,8927,7802,7973
1415.682262,8993,7857,7997
1416.62632,9162,7993,8051
1417.570216,9152,7843,7988
1418.513949,9344,7960,7905
1419.457519,9343,8025,7991
1420.400926,9529,8014,7919
1421.34417,9507,8109,8101
1422.287251,9673,8181,7945
1423.23017,9779,8276,8046
1424.172926,9672,8256,8134
1425.11552,9873,8217,8101
1426.057951,9741,8188,8146
1427.000219,9860,8081,8047
1427.942325,10103,8423,8326
1428.884268,10122,8382,8169
1429.826049,10325,8455,8338
1430.767667,10114,8374,8199
1431.709123,10233,8358,8340
1432.650417,10324,8291,8242
1433.591549,10143,8364,8356
1434.532518,10096,8410,8345
1435.473325,10037,8430,8271
1436.413969,10071,8394,8403
1437.354452,9891,8333,8354
1438.294772,9833,8277,8350
1439.234931,9808,8294,8350
1440.174927,9804,8329,8266
1441.114761,9512,8357,8322
1442.054434,9551,8250,8329
1442.993944,9387,8231,8251
1443.933292,9425,8147,8152
1444.872479,9300,8241,8141
1445.811504,9276,8223,8132
1446.750367,9183,8111,8163
1447.689068,8991,8056,7960
1448.627607,9076,8070,8079
1449.565985,8814,7950,7923
1450.504201,8857,7934,8003
1451.442256,8720,8026,8050
1452.380149,8848,7978,7944
1453.31788,8632,7831,7801
1454.25545,8695,7884,7945
1455.192859,8681,7826,7842
1456.130106,8552,7768,7905
1457.067191,8575,7855,7865
1458.004115,8604,7854,7842
1458.940878,8518,7862,7959
1459.87748,8612,7889,7755
1460.81392,8449,7871,7899
1461.7502,8460,7915,7692
1462.686317,8386,7874,7901
1463.622274,8655,7791,7873
1464.55807,8488,7879,7787
1465.493705,8498,7775,7875
1466.429178,8424,7766,7866
1467.364491,8473,7792,7912
1468.299643,8598,7805,7864
1469.234633,8624,7702,7848
1470.169463,8748,7806,7868
1471.104132,8539,7851,7811
1472.03864,8484,7851,7789
1472.972988,8473,7817,7824
1473.907174,8459,7775,7866
1474.8412,8340,7702,7857
1475.775066,8405,7906,7831
1476.70877,8395,7734,7796
1477.642314,8423,7792,7788
1478.575698,8328,7755,7678
1479.508921,8323,7647,7726
1480.441983,8218,7738,7900
1481.374885,8354,7734,7755
1482.307627,8399,7663,7807
1483.240208,8310,7691,7871
1484.172629,8321,7687,7767
1485.104889,8206,7700,7637
1486.036989,8324,7783,7774
1486.968929,8125,7710,7773
1487.900709,8208,7771,7779
1488.832329,8324,7629,7589
1489.763788,8191,7605,7642
1490.695087,8199,7649,7698
1491.626227,8190,7676,7689
1492.557206,8247,7763,7734
1493.488025,8233,7719,7762
1494.418685,8249,7679,7651
1495.349184,8262,7652,7751
1496.279523,8057,7709,7708
1497.209703,8228,7607,7729
1498.139723,8204,7676,7679
1499.069583,8249,7710,7729
1499.999283,8352,7717,7695
1500.928824,8262,7685,7739
1501.858205,8224,7656,7704
1502.787426,8271,7741,7753
1503.716488,8267,7695,7677
1504.64539,8259,7722,7643
1505.574133,8200,7729,7759
1506.502716,8231,7615,7656
1507.43114,8210,7597,7715
1508.359404,8262,7556,7658
1509.287509,8231,7765,7654
1510.215454,8240,7681,7816
1511.14324,8150,7800,7856
1512.070867,8269,7700,7730
1512.998335,8226,7636,7808
1513.925643,8179,7622,7733
1514.852793,8234,7680,7680
1515.779783,8230,7800,7727
1516.706614,8306,7703,7695
1517.633286,8272,7741,7841
1518.559799,8317,7743,7699
1519.486153,8304,7700,7811
1520.412348,8288,7692,7738
1521.338384,8336,7746,7758
1522.264261,8363,7901,7835
1523.18998,8386,7760,7869
1524.115539,8292,7778,7834
1525.04094,8424,7801,7810
1525.966182,8427,7713,8009
1526.891265,8305,7883,7843
1527.81619,8301,7833,7902
1528.740956,8338,7930,7855
1529.665563,8380,7854,7850
1530.590012,8314,7689,7929
1531.514302,8396,7783,7858
1532.438434,8436,7702,7946
1533.362407,8330,7697,7868
1534.286222,8381,7815,7892
1535.209879,8446,7764,7970
1536.133377,8413,7867,7979
1537.056717,8390,7884,7941
1537.979898,8393,7932,7978
1538.902921,8487,7876,8000
1539.825786,8416,7923,7918
1540.748493,8544,7912,8078
1541.671042,8495,7929,8100
1542.593432,8558,7849,8052
1543.515665,8546,7917,8061
1544.43774,8508,7872,8025
1545.359656,8619,7899,8060
1546.281415,8537,7962,8071
1547.203015,8656,8042,8079
1548.124458,8644,8035,7993
1549.045743,8728,7939,8112
1549.96687,8703,7870,8119
1550.887839,8720,8089,8112
1551.80865,8878,8115,8155
1552.729304,8921,8240,8241
1553.6498,8777,8134,8148
1554.570138,8810,8108,8254
1555.490319,8814,8094,8115
1556.410342,8966,8141,8315
1557.330208,9000,8183,8344
1558.249916,9073,8246,8428
1559.169466,9042,8271,8415
1560.08886,9111,8181,8253
1561.008095,9135,8278,8364
1561.927174,9301,8298,8336
1562.846095,9345,8357,8466
1563.764859,9391,8533,8641
1564.683465,9408,8469,8499
1565.601914,9504,8475,8535
1566.520206,9498,8599,8623
1567.438341,9662,8500,8533
1568.356319,9628,8541,8674
1569.27414,9828,8527,8750
1570.191803,10034,8654,8738
1571.10931,9829,8567,8777
1572.026659,9907,8796,8746
1572.943852,9942,8690,8874
1573.860888,9938,8790,8843
1574.777766,9977,8810,8970
1575.694488,9934,8757,9038
1576.611053,10057,8817,8852
1577.527462,9805,8748,8850
1578.443713,9934,8784,8956
1579.359808,9862,8850,8955
1580.275747,9900,8864,8953
1581.191528,9816,8882,9026
1582.107153,9785,8842,9070
1583.022622,9765,8829,8991
1583.937933,9742,8712,9040
1584.853089,9666,8848,8936
1585.768088,9659,8805,9057
1586.68293,9845,8881,9069
1587.597616,9624,8879,8970
1588.512146,9702,8924,9150
1589.426519,9581,8813,8855
1590.340736,9570,8790,9016
1591.254797,9310,8853,9114
1592.168702,9548,8812,9106
1593.08245,9411,8721,9055
1593.996042,9463,8756,9150
1594.909478,9450,8654,9056
1595.822758,9457,8807,9099
1596.735882,9239,8651,8966
1597.64885,9422,8682,9103
1598.561662,9350,8693,8965
1599.474318,9306,8735,9139
1600.386819,9278,8815,9204
1601.299163,9246,8694,9012
1602.211351,9295,8648,8948
1603.123384,9245,8554,8943
1604.035261,9228,8721,8908
1604.946982,9258,8668,8889
1605.858547,9161,8622,8948
1606.769957,9197,8606,8974
1607.681211,8943,8718,8959
1608.592309,9126,8509,8748
1609.503252,9061,8498,8734
1610.414039,9187,8499,8680
1611.324671,9026,8598,8839
1612.235147,9082,8328,8698
1613.145468,8933,8381,8738
1614.055634,8951,8411,8675
1614.965644,8963,8455,8760
1615.875499,8962,8338,8716
1616.785198,8835,8307,8630
1617.694743,8922,8319,8659
1618.604132,8790,8353,8529
1619.513366,8793,8273,8414
1620.422444,8706,8122,8425
1621.331368,8687,8305,8480
1622.240136,8710,8133,8485
1623.14875,8711,8093,8384
1624.057208,8503,8068,8316
1624.965512,8448,8025,8205
1625.87366,8482,7883,8042
1626.781654,8457,7942,8130
1627.689492,8528,7833,8050
1628.597176,8391,7854,8094
1629.504705,8370,7810,8122
1630.412079,8269,7838,7890
1631.319299,8265,7725,7992
1632.226364,8202,7694,7954
1633.133274,8168,7791,7794
1634.040029,8150,7721,7825
1634.94663,8273,7721,7815
1635.853076,8127,7657,7694
1636.759368,8087,7534,7783
1637.665505,8106,7585,7708
1638.571488,8064,7631,7583
1639.477316,8143,7526,7590
1640.38299,8031,7609,7707
1641.28851,7996,7535,7611
1642.193875,7956,7482,7517
1643.099086,8024,7594,7542
1644.004142,7931,7468,7643
1644.909045,8026,7407,7491
1645.813793,7978,7547,7656
1646.718387,7980,7458,7544
1647.622827,7875,7499,7560
1648.527112,7871,7425,7433
1649.431244,7932,7496,7519
1650.335222,7930,7476,7527
1651.239045,7861,7428,7461
1652.142715,7960,7432,7508
1653.046231,7832,7286,7453
1653.949593,7899,7288,7398
1654.852801,7819,7304,7381
1655.755855,7851,7343,7354
1656.658755,7950,7358,7407
1657.561502,7886,7379,7572
1658.464095,7854,7384,7447
1659.366534,7893,7318,7480
1660.26882,7872,7328,7480
1661.170952,7812,7382,7447
1662.07293,7757,7233,7517
1662.974755,7833,7370,7429
1663.876426,7985,7338,7386
1664.777944,7886,7370,7438
1665.679308,7804,7295,7269
1666.580519,7694,7304,7414
1667.481576,7799,7308,7399
1668.382481,7919,7268,7408
1669.283231,7819,7318,7324
1670.183829,7841,7385,7307
1671.084273,7804,7260,7338
1671.984564,7773,7350,7369
1672.884702,7710,7216,7259
1673.784687,7875,7263,7332
1674.684518,7627,7272,7294
1675.584197,7762,7295,7366
1676.483722,7709,7216,7375
1677.383095,7824,7275,7265
1678.282314,7727,7208,7266
1679.181381,7796,7154,7277
1680.080294,7761,7154,7408
1680.979055,7742,7175,7238
1681.877663,7734,7187,7435
1682.776118,7696,7256,7288
1683.67442,7636,7213,7326
1684.57257,7640,7105,7142
1685.470567,7617,7263,7258
1686.368411,7609,7252,7362
1687.266102,7664,7315,7274
1688.163641,7720,7185,7244
1689.061027,7674,7171,7282
1689.958261,7646,7215,7202
1690.855342,7646,7056,7296
1691.752271,7692,7097,7241
1692.649047,7680,7151,7380
1693.545671,7649,7196,7133
1694.442143,7701,7087,7177
1695.338462,7684,7089,7170
1696.234629,7568,7132,7081
1697.130643,7611,7167,7207
1698.026505,7603,7193,7162
1698.922216,7597,7164,7184
1699.817773,7608,7293,7162
1700.713179,7446,7107,7236
1701.608433,7619,7078,7063
1702.503534,7681,7099,7124
1703.398484,7553,7129,7262
1704.293281,7678,7181,7233
1705.187927,7656,7083,7183
1706.08242,7494,7158,7249
1706.976762,7645,7135,7156
1707.870952,7634,7077,7219
1708.76499,7479,7113,7186
1709.658876,7518,7188,7085
1710.55261,7603,7080,7148
1711.446193,7448,7078,7207
1712.339624,7440,7085,7225
1713.232903,7543,7118,7193
1714.12603,7542,7143,7193
1715.019006,7550,7170,7183
1715.911831,7505,7147,7158
1716.804504,7572,7103,7161
1717.697025,7486,6997,7187
1718.589395,7485,6973,7057
1719.481613,7532,7034,7096
1720.37368,7550,6995,7153
1721.265595,7563,7044,7136
1722.15736,7475,7071,7158
1723.048973,7519,7005,7164
1723.940434,7483,6955,7176
1724.831745,7393,7073,7154
1725.722904,7493,7049,7067
1726.613912,7519,7066,7122
1727.504768,7521,7038,7206
1728.395474,7544,7021,7145
1729.286029,7532,6963,7029
1730.176432,7547,7116,7179
1731.066685,7522,7028,7056
1731.956786,7416,7121,7215
1732.846737,7454,7012,7201
1733.736537,7521,7033,7071
1734.626185,7536,7048,7172
1735.515683,7512,7020,7072
1736.405031,7483,6936,7039
1737.294227,7436,6885,7056
1738.183272,7491,7018,7028
1739.072167,7428,6982,7129
1739.960911,7518,7008,7111
1740.849505,7589,7007,7029
1741.737948,7573,7147,7111
1742.62624,7477,6925,7083
1743.514382,7429,6981,7156
1744.402373,7477,6979,7196
1745.290214,7528,7092,7105
1746.177904,7481,7090,7043
1747.065444,7493,6989,7065
1747.952833,7495,7137,7062
1748.840073,7464,6999,6984
1749.727161,7513,6952,7093
1750.6141,7426,6977,6937
1751.500888,7480,7038,7018
1752.387526,7412,7110,7059
1753.274014,7389,6982,6957
1754.160351,7458,7009,7131
1755.046539,7437,6951,7010
1755.932576,7436,7032,7068
1756.818464,7427,6985,7060
1757.704201,7437,6983,7051
1758.589788,7528,6961,7096
1759.475225,7541,7002,6994
1760.360513,7476,7013,6957
1761.24565,7472,6913,6999
1762.130638,7472,6988,7206
1763.015476,7505,6935,7165
1763.900164,7491,7019,7143
1764.784702,7426,6976,6994
1765.66909,7325,6976,7133
1766.553329,7378,7011,7059
1767.437418,7302,7014,7069
1768.321358,7418,6948,7095
1769.205148,7427,7027,7011
1770.088788,7402,7039,6982
1770.972279,7390,7042,7158
1771.85562,7474,6950,7018
1772.738812,7436,6842,7140
1773.621854,7448,7027,7026
1774.504747,7474,7069,7013.246764
1775.38749,7572,7022,7000.495685
1776.270084,7284,6868,6987.746764
1777.152529,7384,7054,6975
1778.034825,7363,6902,7028
1778.916971,7423,6957,7032
1779.798968,7414,6886,7033
1780.680816,7384,6937,6909
1781.562515,7445,7015,7005
1782.444065,7345,6920,7013
1783.325465,7392,6879,7036
1784.206717,7404,6886,6982
1785.087819,7301,6769,7002
1785.968773,7407,6910,6894
1786.849577,7405,7045,7086
1787.730233,7329,7007,6883
1788.610739,7372,6894,7002
1789.491097,7345,6802,6906
1790.371306,7351,6973,6997
1791.251367,7309,6879,6930
1792.131278,7471,6806,7060
1793.011041,7461,6999,6935
1793.890655,7366,6868,6935
1794.77012,7364,6782,6953
1795.649437,7268,6958,7008
1796.528605,7308,6954,7037
1797.407625,7262,6848,6955
1798.286496,7312,6897,6953
1799.165218,7353,6803,6979
1800.043792,7322,6854,7029
1800.922218,7221,6907,6895
1801.800495,7272,6791,6954
1802.678624,7307,6858,7044
1803.556604,7201,6955,6878
1804.434436,7383,6925,6967
1805.31212,7337,6858,7036
1806.189656,7266,6845,6921
1807.067043,7302,6921,6879
1807.944283,7350,6869,6926
1808.821374,7277,6769,6959
1809.698317,7288,6782.004391,6856
1810.575112,7343,6795.006586,7012
1811.451758,7315,6808.006586,6882
1812.328257,7248,6821.00439,6927
1813.204608,7311,6834,6933
1814.080811,7309,6880,6936
1814.956866,7317,6847,6919
1815.832773,7300,6896,7005
1816.708532,7248,6938,7077
1817.584143,7354,6849,6950
1818.459607,7203,6841,6920
1819.334923,7340,6813,6803
1820.210091,7208,6898,6916
1821.085111,7267,6833,6897
1821.959984,7261,6869,6928
1822.834709,7341,6823,6838
1823.709286,7364,6906,6845
1824.583716,7207,6827,6934
1825.457998,7141,6874,6905
1826.332133,7141,6826,6981
1827.20612,7237,6782,6873
1828.07996,7318,6845,6931
1828.953653,7214,6815,6858
1829.827198,7264,6785,6945
1830.700596,7245,6808,6925
1831.573846,7242,6765,6921
1832.446949,7232,6825,6883
1833.319905,7343,6874,6988
1834.192714,7278,6888,7058
1835.065375,7255,6749,6957
1835.93789,7372,6789,6884
1836.810257,7244,6871,6895
1837.682477,7243,6827,6888
1838.55455,7346,6838,6883
1839.426476,7261,6817,6910
1840.298255,7320,6896,6903
1841.169887,7258,6860,6901
1842.041372,7158,6792,6915
1842.91271,7278,6781,6912
1843.783901,7227,6884,6844
1844.654946,7358,6896,6901
1845.525844,7288,6923,6798
1846.396594,7327,6896,6891
1847.267199,7329,6771,6939
1848.137656,7291,6788,6894
1849.007967,7251,6715,6931
1849.878131,7161,6847,7033
1850.748148,7217,6800,6841
1851.618019,7430,6841,6954
1852.487743,7277,6892,6901
1853.357321,7199,6826,6979
1854.226753,7153,6774,6929
1855.096037,7302,6884,6819
1855.965176,7252,6786,6822
1856.834168,7305,6880,6911
1857.703014,7288,6831,6910
1858.571713,7362,6899,6938
1859.440266,7311,6828,6897
1860.308673,7280,6766,6896
1861.176933,7242,6786,7028
1862.045047,7301,6862,6836
1862.913016,7220,6902,6892
1863.780838,7350,6910,6889
1864.648513,7263,6801,6975
1865.516043,7329,6864,6798
1866.383427,7376,6814,6899
1867.250665,7248,6845,6984
1868.117756,7163,6780,7029
1868.984702,7282,6720,7027.706813
1869.851502,7315,6856,7026.413843
1870.718156,7281,6811,7025.121091
1871.584664,7254,6830,7023.828556
1872.451026,7250,6794,7022.53624
1873.317243,7146,6764,7021.24414
1874.183314,7225,6807,7019.952258
1875.049239,7319,6859,7018.660593
1875.915018,7228,6797,7017.369146
1876.780651,7243,6702,7016.077916
1877.646139,7249,6817,7014.786903
1878.511482,7275,6795,7013.496108
1879.376679,7329,6776,7012.205529
1880.24173,7081,6830,7010.915168
1881.106635,7184,6875,7009.625024
1881.971396,7230,6859,7008.335097
1882.83601,7175,6755,7007.045386
1883.70048,7251,6787,7005.755893
1884.564804,7218,6652,7004.466617
1885.428982,7246,6856,7003.177557
1886.293016,7298,6810,7001.888714
1887.156904,7203,6811,7000.600088
1888.020646,7206,6752,6999.311679
1888.884244,7172,6788,6998.023486
1889.747696,7283,6763,6996.73551
1890.611003,7164,6818,6995.44775
1891.474165,7223,6795,6994.160207
1892.337182,7263,6794,6992.87288
1893.200054,7107,6747,6991.58577
1894.06278,7237,6735,6990.298876
1894.925362,7065,6749,6989.012198
1895.787799,7189,6745,6987.725737
1896.650091,7211,6750,6986.439492
1897.512238,7241,6756,6985.153463
1898.374239,7185,6910,6983.86765
1899.236097,7169,6779,6982.582053
1900.097809,7106,6745,6981.296672
1900.959376,7209,6730,6980.011508
1901.820799,7143,6687,6978.726559
1902.682077,7120,6749,6977.441826
1903.54321,7144,6858,6976.157309
1904.404199,7112,6757,6974.873008
1905.265043,7239,6693,6973.588922
1906.125742,7172,6671,6972.305052
1906.986297,7197,6766,6971.021398
1907.846707,7169,6709,6969.73796
1908.706973,7141,6674,6968.454737
1909.567094,7185,6722,6967.171729
1910.427071,7108,6608,6965.888937
1911.286903,7271,6664,6964.606361
1912.146591,7149,6723,6963.324
1913.006135,7044,6628,6962.041854
1913.865534,6998,6801,6960.759923
1914.724789,7100,6677,6959.478208
1915.5839,7126,6685,6958.196708
1916.442866,7167,6708,6956.915423
1917.301688,7070,6643,6955.634353
1918.160366,7147,6726,6954.353499
1919.0189,7065,6630,6953.072859
1919.87729,7077,6737,6951.792434
1920.735536,7091,6642,6950.512224
1921.593638,7085,6725,6949.232229
1922.451595,7096,6803,6947.952449
1923.309409,7061,6672,6946.672884
1924.167079,7134,6672.924007,6945.393533
1925.024604,7147,6673.847858,6944.114398
1925.881986,7089,6674.771555,6942.835476
1926.739224,6975,6675.695096,6941.55677
1927.596318,7125,6676.618483,6940.278278
1928.453269,7118,6677.541714,6939
1929.310075,7231,6678.464791,6871
1930.166738,7175,6679.387713,6708
1931.023257,7013,6680.31048,6821
1931.879633,7051,6681.233092,6894
1932.735865,7155,6682.155549,6771
1933.591953,7199,6683.077852,6808
1934.447897,7201,6684,6896
1935.303698,7056,6756,6871
1936.159356,7117,6645,6838
1937.01487,7011,6715,6806
1937.87024,7120,6627,6725
1938.725468,7167,6668,6695
1939.580551,7076,6682,6835
1940.435492,7143,6734,6841
1941.290289,7015,6725,6821
1942.144942,7082,6742,6786
1942.999453,7096,6666,6903
1943.85382,7024,6755,6883
1944.708044,7120,6738,6913
1945.562124,7070,6794,6793
1946.416062,7082,6768,6814
1947.269856,7030,6758,6870
1948.123508,7080,6597,6839
1948.977016,7065,6724,6731
1949.830381,7102,6740,6753
1950.683603,7027,6654,6859
1951.536683,7078,6692,6784
1952.389619,7100,6761,6772
1953.242412,7077,6706,6706
1954.095063,7019,6856,6810
1954.947571,7160,6693,6900
1955.799935,7120,6660,6851
1956.652157,7092,6713,6915
1957.504237,7084,6784,6819
1958.356173,7095,6747,6839
1959.207967,7075,6760,6705
1960.059618,7123,6676,6841
1960.911127,7091,6718,6806
1961.762493,7144,6790,6758
1962.613716,7156,6735,6878
1963.464797,7244,6764,6883
1964.315735,7107,6693,6900
1965.166531,7137,6720,6912
1966.017184,7116,6777,6852
1966.867695,7003,6671,6907
1967.718064,7084,6784,6938
1968.56829,7117,6820,6843
1969.418374,7126,6697,6852
1970.268315,7100,6763,6922
1971.118114,7177,6703,6830
1971.967771,7042,6727,6797
1972.817286,7060,6762,6740
1973.666659,7216,6781,6909
1974.515889,7002,6713,6890
1975.364977,7132,6723,6824
1976.213924,7136,6642,6764
1977.062728,7109,6664,6816
1977.91139,7116,6735,6766
1978.75991,7084,6665,6866
1979.608288,7109,6605,6851
1980.456524,7162,6863,6779
1981.304619,7134,6785,6834
1982.152571,7043,6705,6900
1983.000382,7047,6726,6973
1983.84805,6965,6614,6764
1984.695577,7089,6626,6857
1985.542962,7044,6679,6787
1986.390206,7101,6706,6867
1987.237308,7151,6740,6778
1988.084268,7111,6791,6940
1988.931086,7047,6684,6856
1989.777763,7049,6693,6949
1990.624298,7010,6784,6918
1991.470692,7126,6755,6836
1992.316944,7078,6718,6828
1993.163055,7162,6781,6885
1994.009024,7020,6687,6873
1994.854852,7011,6687,6887
1995.700538,7079,6644,6805
1996.546083,7093,6801,6897
1997.391487,7101,6780,6858
1998.23675,7062,6852,6880
1999.081871,7047,6784,6889
1999.926851,7010,6686,6781
2000.771689,6974,6708,6656
2001.616387,6989,6735,6894
2002.460943,7068,6665,6839
2003.305358,7106,6728,6772
2004.149632,7127,6747,6846
2004.993765,7100,6624,6880
2005.837757,7072,6733,6795
2006.681608,6972,6706,6909
2007.525318,7015,6701,6799
2008.368888,7042,6554,6871
2009.212316,7116,6688,6863
2010.055603,7038,6802,6779
2010.898749,7103,6711,6848
2011.741755,7012,6701,6852
2012.58462,7187,6699,6782
2013.427344,6945,6709,6823
2014.269927,7082,6756,6703
2015.11237,7108,6725,6890
2015.954672,6982,6709,6806
2016.796833,7112,6713,6715
2017.638853,7078,6696,6780
2018.480733,7028,6681,6785
2019.322473,7128,6725,6879
2020.164072,6984,6648,6776
2021.00553,7115,6675,6786
2021.846848,7072,6671,6912
2022.688026,7152,6756,6800
2023.529063,7047,6709,6786
2024.36996,6960,6709,6903
2025.210716,7034,6754,6793
2026.051332,7074,6654,6964
2026.891808,7071,6711,6818
2027.732144,7065,6702,6794
2028.572339,7053,6728,6780
2029.412394,7036,6584,6923
2030.252309,7148,6636,6709
2031.092084,7029,6664,6703
2031.931719,6953,6666,6805
2032.771213,7116,6749,6894
2033.610568,6991,6727,6894
2034.449782,7024,6661,6778
2035.288857,6967,6711,6942
2036.127791,7004,6707,6906
2036.966586,6900,6699,6778
2037.805241,7074,6619,6826
2038.643756,7017,6639,6880
2039.482131,7045,6820,6843
2040.320366,7052,6709,6880
2041.158461,6970,6748,6811
2041.996417,6928,6738,6840
2042.834233,7141,6653,6890
2043.671909,7049,6758,6814
2044.509446,7048,6578,6819
2045.346843,7043,6687,6856
2046.1841,7085,6821,6912
2047.021218,7110,6689,6780
2047.858196,7066,6693,6805
2048.695035,6993,6559,6847
2049.531734,7008,6756,6851
2050.368294,7021,6705,6862
2051.204714,7014,6777,6856
2052.040995,7092,6734,6855
2052.877137,6954,6714,6824
2053.713139,6941,6656,6917
2054.549002,7098,6695,6804
2055.384725,6982,6731,6726
2056.22031,7011,6696,6840
2057.055755,7090,6684,6962
2057.891061,7050,6721,6973
2058.726228,7062,6748,6923
2059.561255,7024,6764,6939
2060.396144,7030,6750,6848
2061.230893,7101,6802,6804
2062.065504,7101,6707,6955
2062.899975,7080,6792,6843
2063.734308,7089,6693,6934
2064.568501,7155,6618,6925
2065.402556,7048,6697,6818
2066.236471,6941,6744,6901
2067.070248,7138,6745,6853
2067.903886,7043,6730,6949
2068.737385,7088,6793,6823
2069.570746,7097,6703,6905
2070.403967,7074,6737,6768
2071.23705,7046,6659,6885
2072.069994,7067,6709,6908
2072.9028,7014,6767,6925
2073.735467,7243,6805,6881
2074.567995,7101,6820,6915
2075.400384,7199,6827,6943
2076.232636,7052,6779,6828
2077.064748,7161,6751,6858
2077.896722,7150,6760,6798
2078.728558,7020,6827,6843
2079.560255,7067,6748,6896
2080.391814,7002,6705,6951
2081.223235,7123,6775,6988
2082.054517,7142,6805,6946
2082.885661,7030,6721,6903
2083.716666,7014,6811,6860
2084.547533,7081,6776,6950
2085.378262,7100,6763,6963
2086.208853,7081,6742,7009
2087.039306,7186,6679,6890
2087.86962,7039,6738,6927
2088.699797,7024,6657,6963
2089.529835,7110,6729,6831
2090.359736,7088,6754,6958
2091.189498,7016,6735,6850
2092.019122,7041,6757,6969
2092.848608,7127,6735,6886
2093.677957,7054,6818,7000
2094.507167,7145,6789,6907
2095.33624,6958,6712,6930
2096.165175,7164,6839,6896
2096.993972,7093,6824,6982
2097.822631,7080,6893,6878
2098.651152,7060,6819,6944
2099.479536,7071,6691,6895
2100.307782,6996,6765,6875
2101.13589,7113,6680,6942
2101.963861,7066,6815,6895
2102.791694,7106,6722,7065
2103.619389,7144,6668,6831
2104.446947,7180,6852,6842
2105.274367,7116,6754,7069
2106.10165,7149,6860,6821
2106.928796,7110,6752,6850
2107.755804,7003,6838,6831
2108.582674,7081,6730,6991
2109.409407,7087,6750,6933
2110.236003,7187,6754,7018
2111.062462,7067,6780,7000
2111.888783,7098,6724,6952
2112.714967,6969,6800,6857
2113.541013,7017,6701,6813
2114.366923,7138,6757,6927
2115.192695,7110,6723,6926
2116.01833,7100,6668,6937
2116.843828,7064,6750,6851
2117.669189,7014,6658,6863
2118.494413,7086,6662,6953
2119.3195,6952,6762,6991
2120.144449,7157,6721,6888
2120.969262,7076,6834,6981
2121.793938,7121,6776,6965
2122.618477,7070,6816,6895
2123.442879,7042,6748,6884
2124.267144,6988,6782,6915
2125.091273,7036,6683,6949
2125.915264,7011,6719,6907
2126.739119,7016,6763,6931
2127.562837,7052,6712,6965
2128.386418,7140,6806,6998
2129.209863,7031,6773,6857
2130.033171,6969,6722,6930
2130.856342,7009,6749,6812
2131.679377,7114,6766,6912
2132.502275,7107,6746,6893
2133.325036,7184,6818,6844
2134.147661,7066,6663,6927
2134.97015,7049,6739,6895
2135.792502,7172,6766,6839
2136.614718,7095,6725,6956
2137.436797,7031,6682,6974
2138.25874,7067,6725,6919
2139.080546,7065,6808,6883
2139.902217,7077,6865,6909
2140.723751,7130,6789,6922
2141.545148,7015,6716,6946
2142.36641,7033,6752,6851
2143.187535,7080,6764,6981
2144.008524,7027,6781,6940
2144.829377,7109,6757,6805
2145.650094,7120,6759,6916
2146.470674,7058,6692,6946
2147.291119,7151,6639,6997
2148.111427,6999,6718,6921
2148.9316,6991,6871,6850
2149.751637,7144,6644,6870
2150.571537,7040,6788,6972
2151.391302,7083,6846,7034
2152.210931,7179,6831,6908
2153.030424,7114,6803,7020
2153.849781,7075,6776,6915
2154.669002,7083.402785,6707,6913.199403
2155.488088,7091.804177,6765,6911.399105
2156.307038,7100.204177,6912,6909.599105
2157.125852,7108.602784,6819,6907.799403
2157.94453,7117,6774,6906
2158.763073,6994,6761,6808
2159.58148,7083,6776,6976
2160.399752,7161,6707,7002
2161.217888,7129,6782,6902
2162.035888,6980,6704,7058
2162.853753,7060,6687,6972
2163.671482,7060,6763,7083
2164.489076,7100,6734,6963
2165.306534,7045,6748,6862
2166.123858,7069,6691,6969
2166.941045,7099,6792,6781
2167.758098,6991,6931,6956
2168.575015,7115,6881,7061
2169.391796,7080,6731,6879
2170.208443,7032,6760,6847
2171.024954,7083,6795,6989
2171.84133,7078,6760,7009
2172.657571,7078,6765,6998
2173.473676,7052,6774,6977
2174.289647,7141,6810,6957
2175.105482,7114,6859,6996
2175.921183,6977,6925,6984
2176.736748,7065,6684,6935
2177.552178,6995,6750,6998
2178.367474,7047,6871,6959
2179.182634,7066,6713,6935
2179.997659,7047,6802,6854
2180.81255,7102,6705,7003
2181.627306,7123,6770,7026
2182.441926,7103,6840,6939
2183.256412,7112,6767,6992
2184.070764,7085,6839,6995
2184.88498,7106,6807,7038
2185.699062,7081,6921,6984
2186.513009,7197,6913,6998
2187.326821,7193,6840,6952
2188.140499,7133,6784,6982
2188.954042,7070,6767,6922
2189.76745,7055,6890,6987
2190.580724,7043,6777,6909
2191.393864,7126,6929,6957
2192.206869,7126,6759,7096
2193.019739,7074,6956,7033
2193.832475,7046,6758,6964
2194.645077,7169,6783,7021
2195.457544,7105,6873,7051
2196.269877,7060,6921,6934
2197.082075,7166,6898,6959
2197.894139,7164,6764,7052
2198.706069,7122,6831,7008
2199.517865,7115,6828,7054
2200.329526,7095,6790,7021
2201.141053,7185,6735,6952
2201.952446,7175,6866,6914
2202.763705,7116,6794,7151
2203.57483,7125,6936,6998
2204.385821,7061,6925,7080
2205.196677,7071,6814,6932
2206.0074,7122,6836,6924
2206.817988,7024,6792,6854
2207.628443,7177,6821,7054
2208.438764,7131,6870,7052
2209.24895,7052,6963,6991
2210.059003,7155,6845,7009
2210.868922,7168,6849,6957
2211.678707,7234,6841,7064
2212.488359,7235,6760,6984
2213.297876,7155,6843,7044
2214.10726,7052,6863,6949
2214.91651,7116,6807,7012
2215.725627,7095,6876,6993
2216.534609,7150,6802,7127
2217.343459,7128,6734,6966
2218.152174,7144,6868,7002
2218.960756,7099,6753,7012
2219.769204,7149,6883,7006
2220.577519,7046,6866,7124
2221.3857,7088,6864,6859
2222.193748,7066,6801,6965
2223.001663,6999,6758,7032
2223.809444,7140,6751,7039
2224.617091,7102,6761,6923
2225.424606,7092,6814,6985
2226.231986,7012,6947,6934
2227.039234,7080,6788,6968
2227.846348,7059,6746,7007
2228.653329,7083,6847,7022
2229.460177,7078,6783,6890
2230.266892,7133,6759,6877
2231.073473,7067,6757,7009
2231.879922,7018,6781,6926
2232.686237,7101,6715,6997
2233.492419,7147,6874,6943
2234.298468,7065,6674,7049
2235.104384,7074,6834,6832
2235.910167,7084,6699,6921
2236.715818,7103,6798,6836
2237.521335,7031,6891,7080
2238.326719,7051,6801,6937
2239.13197,7032,6874,6911
2239.937089,7224,6855,7096
2240.742074,7021,6779,6850
2241.546927,7028,6861,6882
2242.351647,7060,6683,7002
2243.156234,6997,6799,6945
2243.960689,7094,6837,7005
2244.765011,6996,6799,6977
2245.5692,6997,6860,7002
2246.373257,7036,6822,6946
2247.177181,6894,6705,6905
2247.980972,7012,6750,6861
2248.784631,7019,6774,6933
2249.588157,7026,6768,6937
2250.391551,7088,6843,6972
2251.194812,7006,6762,6964
2251.997941,7041,6758,6917
2252.800937,6936,6705,6957
2253.603801,6971,6840,6900
2254.406533,6950,6751,6958
2255.209132,7112,6803,6960
2256.011599,7060,6870,7039
2256.813934,7140,6852,7016
2257.616136,7032,6830,6909
2258.418206,7054,6716,6913
2259.220144,7081,6691,6968
2260.02195,7055,6809,6941
2260.823624,7071,6752,6920
