#Wave,#Intensity2,#Intensity3
2261.862186,6780,5810
2261.060512,6705,5716
2260.258706,6786,5847
2259.456768,6827,5799
2258.654698,6745,5788
2257.852495,6772,5718
2257.050161,6726,5862
2256.247694,6803,5807
2255.445094,6719,5722
2254.642363,6730,5823
2253.839499,6730,5807
2253.036502,6643,5723
2252.233374,6735,5778
2251.430112,6691,5853
2250.626719,6715,5766
2249.823192,6817,5730
2249.019534,6639,5819
2248.215742,6823,5712
2247.411818,6728,5796
2246.607762,6746,5774
2245.803573,6729,5844
2244.999251,6743,5844
2244.194796,6782,5825
2243.390209,6695,5819
2242.585489,6765,5779
2241.780636,6834,5853
2240.97565,6810,5840
2240.170532,6864,5867
2239.365281,6854,5854
2238.559896,6829,5796
2237.754379,6739,5749
2236.948729,6793,5814
2236.142946,6857,5823
2235.33703,6928,5875
2234.530981,6799,5791
2233.724799,6851,5798
2232.918484,6739,5769
2232.112035,6770,5805
2231.305454,6818,5852
2230.498739,6893,5922
2229.691891,6783,5818
2228.88491,6863,5859
2228.077796,6787,5787
2227.270548,6851,5905
2226.463167,6745,5834
2225.655653,6782,5811
2224.848005,6888,5883
2224.040224,6869,5850
2223.23231,6835,5863
2222.424262,6963,5936
2221.616081,6940,5839
2220.807766,6842,5893
2219.999318,6837,5826
2219.190736,6912,5917
2218.38202,6962,5878
2217.573171,6904,5849
2216.764188,6988,5927
2215.955072,7025,5910
2215.145822,6850,5958
2214.336438,6864,5863
2213.52692,6883,5886
2212.717269,6955,5872
2211.907484,7005,5958
2211.097565,6936,5914
2210.287512,7140,5927
2209.477325,7009,5884
2208.667005,6999,5873
2207.85655,6980,5851
2207.045961,6949,5937
2206.235239,6934,5869
2205.424382,6977,5912
2204.613392,6919,5898
2203.802267,6927,5945
2202.991008,6869,5884
2202.179615,7023,5909
2201.368088,6974,5909
2200.556426,6886,5856
2199.744631,6971,5934
2198.932701,6932,5891
2198.120637,6885,5885
2197.308438,6987,5958
2196.496105,7033,5914
2195.683638,6867,5905
2194.871037,6944,5932
2194.058301,6978,5995
2193.24543,6972,5977
2192.432425,6983,5930
2191.619286,6877,6049
2190.806012,6961,5979
2189.992604,7007,5936
2189.179061,6988,5962
2188.365383,7042,5963
2187.55157,6943,6003
2186.737623,6996,5925
2185.923542,6925,5943
2185.109325,6856,5913
2184.294974,6969,5965
2183.480488,6934,5880
2182.665867,7070,6004
2181.851112,7025,5955
2181.036221,6876,5982
2180.221196,7045,5944
2179.406035,6965,5885
2178.59074,6909,5879
2177.77531,6975,5935
2176.959744,6989,5866
2176.144044,6932,5983
2175.328208,6984,5973
2174.512238,6835,5900
2173.696132,6943,5916
2172.879892,7057,5941
2172.063516,7002,5898
2171.247004,6977,5835
2170.430358,6934,5893
2169.613576,7040,5950
2168.796659,6923,5897
2167.979607,6972,5933
2167.162419,6958,5903
2166.345096,7009,6020
2165.527638,6928,5912
2164.710044,6930,5911
2163.892314,6954,6024
2163.07445,6853,5957
2162.256449,6995,5925
2161.438313,6964,5934
2160.620042,6980,5932
2159.801635,7012,6027
2158.983092,6986,5981
2158.164414,7059,5978
2157.345599,6983,5898
2156.52665,6991,5963
2155.707564,7148,5926
2154.888343,7029,5902
2154.068986,6981,5951
2153.249493,7014,6023
2152.429864,7054,5986
2151.610099,6972,6002
2150.790198,6970,5987
2149.970162,7074,5925
2149.149989,7006,5915
2148.329681,6997,6070
2147.509236,7033,5941
2146.688655,7014,5962
2145.867938,7003,6009
2145.047086,7006,6028
2144.226097,6967,5934
2143.404971,6957,5931
2142.58371,7048,6043
2141.762312,7105,6092
2140.940778,7033,6040
2140.119108,7060,5979
2139.297302,6991,6019
2138.475359,7001,5992
2137.653279,7034,6006
2136.831064,6958,6012
2136.008712,7070,5985
2135.186223,6979,5992
2134.363598,6995,6114
2133.540837,7018,6028
2132.717938,7056,6011
2131.894904,6981,6058
2131.071732,7028,6084
2130.248425,7055,5936
2129.42498,7113,6041
2128.601399,7070,6051
2127.777681,7062,5965
2126.953826,7079,6007
2126.129834,7093,6013
2125.305706,7061,6032
2124.481441,6962,6114
2123.657039,7065,5995
2122.8325,7038,5991
2122.007824,7115,5949
2121.183011,7041,5996
2120.358061,7045,6015
2119.532975,7044,6039
2118.707751,7126,5990
2117.88239,7170,6004
2117.056892,7146,6181
2116.231257,7071,6087
2115.405484,7168,6067
2114.579575,7097,5989
2113.753528,7154,6016
2112.927344,7092,6050
2112.101023,7058,6050
2111.274565,7102,6082
2110.447969,7031,6075
2109.621236,7101,6095
2108.794365,7129,6034
2107.967357,7179,5964
2107.140212,7202,6182
2106.312929,7188,6040
2105.485509,7229,6045
2104.657951,7187,6035
2103.830255,7088,6002
2103.002422,7238,6063
2102.174452,7227,6095
2101.346344,7110,6054
2100.518098,7166,6103
2099.689714,7227,5999
2098.861193,7144,6121
2098.032533,7265,6178
2097.203736,7146,6080
2096.374802,7264,6057
2095.545729,7185,6048
2094.716519,7232,6205
2093.88717,7273,6206
2093.057684,7170,6146
2092.22806,7162,6075
2091.398297,7173,6110
2090.568397,7225,6083
2089.738359,7189,6127
2088.908182,7281,6047
2088.077868,7229,6157
2087.247415,7282,6086
2086.416824,7291,6231
2085.586095,7319,6120
2084.755228,7196,6186
2083.924222,7280,6177
2083.093078,7192,6126
2082.261796,7289,6209
2081.430376,7234,6178
2080.598817,7187,6089
2079.76712,7153,6151
2078.935284,7126,6207
2078.10331,7250,6216
2077.271197,7254,6173
2076.438946,7260,6178
2075.606556,7159,6205
2074.774028,7339,6097
2073.941361,7139,6064
2073.108556,7244,6167
2072.275612,7219,6087
2071.442529,7163,6204
2070.609307,7204,6184
2069.775947,7294,6192
2068.942448,7133,6149
2068.10881,7237,6151
2067.275033,7272,6117
2066.441117,7184,6201
2065.607063,7256,6158
2064.772869,7238,6151
2063.938537,7327,6219
2063.104066,7246,6074
2062.269455,7183,6180
2061.434706,7234,6210
2060.599817,7160,6082
2059.764789,7298,6160
2058.929623,7303,6167
2058.094317,7303,6205
2057.258872,7349,6140
2056.423287,7254,6170
2055.587564,7220,6191
2054.751701,7312,6162
2053.915698,7351,6235
2053.079557,7250,6166
2052.243276,7149,6154
2051.406856,7251,6160
2050.570296,7213,6073
2049.733597,7260,6180
2048.896758,7297,6214
2048.05978,7325,6147
2047.222662,7230,6252
2046.385405,7293,6191
2045.548008,7249,6138
2044.710471,7278,6226
2043.872795,7261,6208
2043.034979,7329,6143
2042.197023,7360,6276
2041.358928,7339,6261
2040.520692,7338,6180
2039.682317,7248,6233
2038.843802,7374,6211
2038.005148,7248,6149
2037.166353,7301,6121
2036.327418,7400,6234
2035.488344,7257,6181
2034.649129,7349,6145
2033.809775,7298,6186
2032.97028,7251,6180
2032.130646,7261,6165
2031.290871,7258,6272
2030.450956,7444,6197
2029.610901,7318,6254
2028.770705,7454,6187
2027.93037,7335,6087
2027.089894,7386,6211
2026.249278,7323,6208
2025.408521,7336,6231
2024.567625,7486,6177
2023.726588,7303,6232
2022.88541,7333,6379
2022.044092,7394,6279
2021.202634,7426,6214
2020.361035,7343,6273
2019.519295,7347,6176
2018.677415,7435,6205
2017.835394,7486,6275
2016.993233,7297,6347
2016.150931,7446,6223
2015.308489,7466,6234
2014.465905,7363,6288
2013.623181,7394,6199
2012.780317,7357,6268
2011.937311,7477,6213
2011.094165,7461,6328
2010.250877,7351,6371
2009.407449,7425,6298
2008.56388,7364,6311
2007.72017,7498,6336
2006.876319,7353,6240
2006.032327,7377,6283
2005.188194,7537,6253
2004.34392,7406,6278
2003.499505,7414,6287
2002.654948,7424,6229
2001.810251,7483,6287
2000.965412,7420,6334
2000.120432,7435,6344
1999.275311,7521,6397
1998.430049,7517,6357
1997.584645,7508,6324
1996.7391,7557,6344
1995.893414,7466,6310
1995.047586,7422,6346
1994.201617,7508,6400
1993.355506,7544,6387
1992.509254,7621,6321
1991.66286,7553,6345
1990.816325,7445,6362
1989.969648,7612,6317
1989.122829,7491,6365
1988.275869,7535,6419
1987.428768,7515,6439
1986.581524,7478,6364
1985.734139,7653,6455
1984.886612,7591,6377
1984.038943,7487,6435
1983.191133,7608,6348
1982.34318,7486,6363
1981.495086,7698,6425
1980.64685,7518,6318
1979.798472,7531,6353
1978.949951,7575,6445
1978.101289,7554,6463
1977.252485,7600,6280
1976.403539,7678,6410
1975.554451,7580,6500
1974.70522,7459,6415
1973.855848,7610,6391
1973.006333,7435,6472
1972.156676,7529,6501
1971.306877,7647,6361
1970.456935,7627,6375
1969.606851,7563,6467
1968.756625,7669,6499
1967.906257,7542,6442
1967.055746,7536,6384
1966.205093,7512,6504
1965.354297,7634,6408
1964.503359,7621,6447
1963.652278,7568,6397
1962.801054,7705,6448
1961.949688,7649,6471
1961.09818,7464,6347
1960.246529,7460,6439
1959.394735,7577,6506
1958.542798,7649,6442
1957.690719,7599,6533
1956.838497,7622,6346
1955.986132,7619,6444
1955.133625,7566,6382
1954.280974,7661,6412
1953.428181,7539,6494
1952.575244,7553,6400
1951.722165,7595,6389
1950.868943,7614,6457
1950.015578,7727,6431
1949.162069,7649,6372
1948.308418,7631,6473
1947.454624,7632,6478
1946.600686,7673,6465
1945.746605,7678,6440
1944.892381,7621,6386
1944.038014,7623,6491
1943.183504,7682,6473
1942.32885,7752,6418
1941.474053,7678,6402
1940.619113,7709,6572
1939.764029,7680,6471
1938.908802,7678,6390
1938.053432,7597,6427
1937.197918,7598,6506
1936.34226,7646,6472
1935.486459,7756,6385
1934.630514,7706,6435
1933.774426,7682,6377
1932.918195,7645,6429
1932.061819,7681,6525
1931.2053,7620,6504
1930.348637,7680,6460
1929.49183,7645,6440
1928.63488,7672,6497
1927.777786,7675,6519
1926.920548,7648,6515
1926.063166,7652,6419
1925.20564,7531,6379
1924.347971,7701,6420
1923.490157,7699,6491
1922.632199,7745,6469
1921.774098,7639,6483
1920.915852,7571,6441
1920.057462,7754,6437
1919.198928,7743,6462
1918.34025,7665,6603
1917.481428,7708,6518
1916.622461,7815,6548
1915.763351,7751,6443
1914.904096,7607,6476
1914.044696,7690,6533
1913.185153,7665,6491
1912.325465,7800,6533
1911.465633,7746,6596
1910.605656,7659,6527
1909.745535,7864,6433
1908.885269,7592,6532
1908.024859,7828,6445
1907.164304,7783,6503
1906.303605,7691,6479
1905.442761,7799,6535
1904.581772,7889,6453
1903.720639,7773,6581
1902.859361,7753,6485
1901.997938,7731,6581
1901.136371,7787,6498
1900.274658,7758,6611
1899.412801,7856,6568
1898.550799,7784,6530
1897.688652,7835,6527
1896.826361,7815,6586
1895.963924,7812,6612
1895.101342,7816,6618
1894.238615,7827,6589
1893.375744,7872,6631
1892.512727,7937,6563
1891.649565,7694,6591
1890.786258,7811,6548
1889.922805,7906,6637
1889.059208,7798,6601
1888.195465,7865,6549
1887.331577,7828,6699
1886.467544,7954,6670
1885.603365,7864,6650
1884.739041,7814,6473
1883.874572,7942,6656
1883.009957,7849,6582
1882.145197,7839,6659
1881.280291,7983,6614
1880.41524,7865,6598
1879.550043,7967,6598
1878.684701,7852,6660
1877.819213,7888,6657
1876.95358,7954,6713
1876.0878,8118,6664
1875.221875,7961,6733
1874.355805,7863,6625
1873.489588,7899,6727
1872.623226,7941,6595
1871.756718,7880,6654
1870.890064,7905,6721
1870.023264,7930,6726
1869.156318,7828,6558
1868.289226,7928,6693
1867.421989,7758,6585
1866.554605,7951,6750
1865.687075,8045,6672
1864.819399,8021,6672
1863.951577,7907,6624
1863.083609,8074,6655
1862.215495,7914,6761
1861.347234,7938,6708
1860.478828,7988,6748
1859.610275,7999,6737
1858.741575,8026,6632
1857.87273,7928,6646
1857.003738,7898,6667
1856.134599,7841,6603
1855.265314,7941,6718
1854.395883,7968,6687
1853.526305,8006,6680
1852.656581,8101,6806
1851.78671,7973,6717
1850.916692,7975,6649
1850.046528,7928,6636
1849.176218,8038,6716
1848.30576,7951,6668
1847.435156,8038,6747
1846.564405,8046,6763
1845.693508,7961,6685
1844.822463,7962,6704
1843.951272,7987,6767
1843.079934,7946,6685
1842.208448,8081,6701
1841.336816,7992,6707
1840.465037,7990,6752
1839.593111,8050,6803
1838.721038,8018,6773
1837.848818,8047,6668
1836.976451,8005,6671
1836.103937,7945,6726
1835.231275,8050,6772
1834.358467,8080,6785
1833.485511,8129,6733
1832.612408,7973,6736
1831.739157,7995,6700
1830.86576,8086,6765
1829.992215,8090,6734
1829.118522,8122,6664
1828.244682,8059,6719
1827.370695,8000,6800
1826.49656,8100,6722
1825.622278,7993,6705
1824.747848,8130,6784
1823.87327,7994,6691
1822.998545,7969,6694
1822.123673,8113,6828
1821.248652,8099,6711
1820.373484,7947,6769
1819.498169,8049,6744
1818.622705,8031,6671
1817.747094,8073,6789
1816.871334,8112,6742
1815.995427,7962,6724
1815.119372,8064,6734.437391
1814.24317,8116,6744.876545
1813.366819,8018,6755.317461
1812.49032,8073,6765.760141
1811.613673,8177,6776.204584
1810.736878,8101,6786.650791
1809.859935,8091,6797.098763
1808.982844,8045,6807.548499
1808.105605,8013,6818
1807.228218,8164,6842
1806.350682,8135,6799
1805.472998,8228,6780
1804.595166,8061,6820
1803.717185,8080,6800
1802.839057,8229,6765
1801.960779,8205,6818
1801.082354,8153,6752
1800.20378,8225,6924
1799.325057,8216,6682
1798.446186,8110,6842
1797.567167,8099,6753
1796.687999,8114,6726
1795.808682,8273,6864
1794.929216,8155,6831
1794.049602,8231,6840
1793.16984,8283,6910
1792.289928,8073,6867
1791.409868,8130,6824
1790.529659,8194,6949
1789.649301,8206,7013
1788.768794,8321,6942
1787.888139,8359,6821
1787.007334,8274,6943
1786.126381,8367,6772
1785.245278,8267,6873
1784.364027,8257,6909
1783.482626,8179,6903
1782.601077,8230,6890
1781.719378,8143,6827
1780.83753,8169,6879
1779.955533,8325,6965
1779.073387,8186,6967
1778.191091,8276,6999
1777.308646,8341,6938
1776.426052,8293,6971
1775.543308,8339,6936
1774.660416,8430,6911
1773.777373,8386,6974
1772.894182,8227,6913
1772.01084,8283,6970
1771.12735,8289,6885
1770.243709,8324,6935
1769.359919,8333,6939
1768.47598,8233,6857
1767.591891,8326,6882
1766.707652,8318,6854
1765.823264,8265,6925
1764.938725,8426,6939
1764.054037,8252,6970
1763.1692,8285,6979
1762.284212,8351,6931
1761.399075,8396,7074
1760.513787,8284,7082
1759.62835,8394,7033
1758.742763,8312,7058
1757.857025,8462,6954
1756.971138,8312,7024
1756.085101,8364,6861
1755.198913,8321,6892
1754.312575,8161,7017
1753.426088,8328,6965
1752.53945,8435,7001
1751.652661,8462,6966
1750.765723,8358,7005
1749.878634,8192,7015
1748.991395,8305,6947
1748.104006,8257,7049
1747.216466,8324,6966
1746.328776,8407,6940
1745.440935,8352,7012
1744.552944,8330,6941
1743.664802,8320,6911
1742.77651,8256,6929
1741.888067,8382,7078
1740.999473,8346,6952
1740.110729,8315,6844
1739.221834,8345,6943
1738.332789,8187,6951
1737.443592,8277,6957
1736.554245,8261,6974
1735.664747,8384,6918
1734.775098,8323,7056
1733.885299,8367,7020
1732.995348,8416,6950
1732.105247,8274,6969
1731.214994,8217,7031
1730.32459,8357,6951
1729.434036,8358,6979
1728.54333,8444,6998
1727.652473,8359,7023
1726.761465,8462,6950
1725.870306,8310,6942
1724.978996,8449,6984
1724.087534,8317,7038
1723.195921,8321,6941
1722.304157,8374,6936
1721.412242,8316,6866
1720.520175,8308,6943
1719.627956,8353,6995
1718.735586,8255,7002
1717.843065,8312,7047
1716.950392,8332,6999
1716.057568,8320,6980
1715.164592,8311,6888
1714.271465,8371,7018
1713.378185,8424,6963
1712.484755,8445,7109
1711.591172,8394,7057
1710.697438,8286,7063
1709.803551,8385,6977
1708.909514,8458,7111
1708.015324,8380,7047
1707.120982,8297,7030
1706.226489,8496,7066
1705.331843,8324,7134
1704.437046,8446,7000
1703.542096,8428,6960
1702.646994,8465,7131
1701.751741,8473,7067
1700.856335,8443,7108
1699.960777,8497,7077
1699.065067,8475,7002
1698.169205,8471,7124
1697.27319,8409,7038
1696.377023,8496,7083
1695.480704,8410,7089
1694.584233,8567,7125
1693.687609,8512,7167
1692.790833,8490,7162
1691.893904,8471,7073
1690.996823,8615,7088
1690.099589,8587,7161
1689.202203,8423,7148
1688.304664,8558,7082
1687.406972,8523,7099
1686.509128,8573,7216
1685.611132,8398,7073
1684.712982,8510,7086
1683.81468,8514,7178
1682.916225,8603,7210
1682.017617,8614,7177
1681.118856,8734,7076
1680.219943,8601,7206
1679.320876,8526,7179
1678.421657,8626,7213
1677.522284,8546,7219
1676.622759,8589,7147
1675.72308,8654,7278
1674.823249,8629,7074
1673.923264,8522,7196
1673.023126,8662,7212
1672.122835,8728,7220
1671.222391,8726,7277
1670.321793,8768,7185
1669.421042,8664,7306
1668.520138,8765,7182
1667.619081,8650,7293
1666.71787,8717,7288
1665.816505,8744,7257
1664.914988,8773,7308
1664.013316,8660,7190
1663.111492,8678,7309
1662.209513,8648,7255
1661.307381,8734,7178
1660.405096,8673,7217
1659.502657,8769,7263
1658.600064,8656,7340
1657.697317,8623,7189
1656.794417,8751,7095
1655.891362,8761,7271
1654.988154,8668,7329
1654.084793,8797,7325
1653.181277,8702,7395
1652.277607,8744,7274
1651.373783,8671,7345
1650.469806,8657,7267
1649.565674,8913,7285
1648.661388,8654,7330
1647.756948,8777,7294
1646.852354,8672,7239
1645.947606,8651,7331
1645.042704,8746,7227
1644.137647,8746,7325
1643.232436,8622,7323
1642.327071,8768,7178
1641.421552,8758,7304
1640.515878,8721,7370
1639.61005,8649,7320
1638.704067,8581,7337
1637.79793,8736,7350
1636.891638,8788,7237
1635.985192,8782,7340
1635.078591,8746,7268
1634.171835,8712,7387
1633.264925,8765,7257
1632.357861,8578,7331
1631.450641,8795,7325
1630.543267,8702,7336
1629.635738,8868,7262
1628.728054,8823,7193
1627.820215,8823,7263
1626.912222,8839,7239
1626.004073,8738,7284
1625.09577,8680,7397
1624.187311,8863,7321
1623.278698,8908,7376
1622.36993,8676,7260
1621.461006,8759,7349
1620.551927,8728,7250
1619.642693,8612,7246
1618.733304,8766,7360
1617.82376,8843,7349
1616.914061,8751,7370
1616.004206,8755,7275
1615.094196,8781,7320
1614.18403,8707,7358
1613.273709,8792,7298
1612.363233,8814,7314
1611.452601,8733,7343
1610.541814,8659,7346
1609.630871,8764,7306
1608.719772,8687,7301
1607.808518,8862,7246
1606.897109,8821,7387
1605.985543,8788,7343
1605.073822,8873,7428
1604.161945,8632,7349
1603.249913,8725,7345
1602.337724,8833,7329
1601.42538,8774,7410
1600.51288,8859,7389
1599.600224,8897,7361
1598.687412,8867,7403
1597.774444,8930,7375
1596.86132,8920,7394
1595.94804,8656,7434
1595.034604,8932,7433
1594.121012,8795,7482
1593.207263,9035,7431
1592.293359,8953,7415
1591.379298,8906,7415
1590.465081,8894,7459
1589.550708,9074,7509
1588.636178,8943,7548
1587.721492,9012,7396
1586.806649,9089,7384
1585.89165,8984,7600
1584.976495,9061,7540
1584.061183,9144,7499
1583.145715,9113,7473
1582.23009,8958,7651
1581.314308,9072,7610
1580.39837,9134,7609
1579.482275,8987,7619
1578.566024,9268,7688
1577.649615,9156,7683
1576.73305,9324,7657
1575.816328,9179,7673
1574.899449,9200,7773
1573.982414,9208,7758
1573.065221,9172,7720
1572.147871,9300,7792
1571.230365,9272,7728
1570.312701,9253,7756
1569.394881,9311,7783
1568.476903,9100,7639
1567.558768,9030,7681
1566.640476,9189,7762
1565.722027,9201,7657
1564.80342,9216,7597
1563.884656,9200,7568
1562.965735,9093,7575
1562.046657,9073,7546
1561.127421,8997,7591
1560.208028,9130,7589
1559.288477,8997,7525
1558.368769,9078,7511
1557.448904,9063,7525
1556.528881,9037,7491
1555.6087,9178,7482
1554.688362,9075,7558
1553.767866,9069,7494
1552.847212,9144,7450
1551.9264,9042,7454
1551.005431,8905,7496
1550.084304,8915,7458
1549.163019,9059,7551
1548.241577,9094,7474
1547.319976,9041,7592
1546.398218,9111,7571
1545.476301,8939,7473
1544.554227,9085,7411
1543.631994,9091,7492
1542.709604,9135,7522
1541.787055,8976,7517
1540.864348,9023,7444
1539.941483,8996,7518
1539.01846,8984,7437
1538.095278,8987,7502
1537.171938,9021,7565
1536.24844,8999,7506
1535.324784,8990,7542
1534.400969,8974,7493
1533.476996,9019,7449
1532.552864,9053,7478
1531.628574,8977,7465
1530.704125,9137,7459
1529.779517,9054,7470
1528.854751,8979,7446
1527.929827,9015,7537
1527.004744,8982,7452
1526.079502,9138,7544
1525.154101,8944,7496
1524.228541,9150,7529
1523.302823,9130,7600
1522.376946,9051,7508
1521.45091,9011,7473
1520.524715,9007,7601
1519.598361,8948,7516
1518.671848,9084,7498
1517.745176,9102.593615,7586
1516.818345,9121.190422,7567
1515.891354,9139.790422,7598
1514.964205,9158.393614,7606
1514.036897,9177,7628
1513.109429,9090,7649
1512.181802,9005,7550
1511.254016,9006,7545
1510.32607,8965,7481
1509.397965,8958,7538
1508.469701,8851,7557
1507.541278,9065,7582
1506.612694,9150,7461
1505.683952,8966,7508
1504.75505,9052,7476
1503.825988,9105,7440
1502.896767,9019,7507
1501.967386,8956,7582
1501.037845,9018,7381
1500.108145,9124,7646
1499.178285,8981,7614
1498.248265,9039,7565
1497.318085,8908,7436
1496.387746,9019,7494
1495.457246,8980,7494
1494.526587,8975,7499
1493.595768,9116,7496
1492.664788,9102,7602
1491.733649,9041,7583
1490.80235,9096,7552
1489.87089,9029,7541
1488.939271,9062,7564
1488.007491,9169,7584
1487.075551,9165,7617
1486.143451,9168,7654
1485.21119,9181,7510
1484.278769,9169,7599
1483.346188,9090,7599
1482.413447,9108,7557
1481.480545,9132,7753
1480.547482,9087,7645
1479.614259,9155,7502
1478.680876,9175,7601
1477.747332,9212,7730
1476.813627,9212,7759
1475.879762,9245,7608
1474.945736,9288,7679
1474.011549,9272,7744
1473.077202,9372,7854
1472.142694,9462,7852
1471.208025,9308,7794
1470.273195,9215,7884
1469.338204,9401,7822
1468.403053,9275,7796
1467.46774,9271,7664
1466.532266,9360,7913
1465.596632,9336,7690
1464.660836,9256,7765
1463.724879,9447,7797
1462.788761,9220,7694
1461.852482,9357,7792
1460.916042,9316,7824
1459.97944,9471,7751
1459.042677,9339,7822
1458.105753,9355,7806
1457.168667,9405,7768
1456.23142,9361,7691
1455.294012,9334,7749
1454.356442,9272,7854
1453.418711,9401,7903
1452.480818,9480,7812
1451.542763,9411,7855
1450.604547,9344,7814
1449.666169,9392,7901
1448.72763,9398,7822
1447.788928,9442,7937
1446.850065,9488,7837
1445.911041,9480,7828
1444.971854,9457,7936
1444.032506,9485,8033
1443.092995,9507,7998
1442.153323,9470,8120
1441.213489,9687,8114
1440.273492,9492,7947
1439.333334,9587,8119
1438.393014,9779,8165
1437.452531,9651,8258
1436.511886,9870,8295
1435.571079,9828,8351
1434.63011,9908,8403
1433.688979,9940,8501
1432.747685,10051,8688
1431.806229,10033,8713
1430.864611,10207,8794
1429.92283,10364,8834
1428.980886,10183,8787
1428.038781,10283,8639
1427.096512,10149,8657
1426.154081,10216,8635
1425.211488,10188,8596
1424.268732,10147,8645
1423.325813,10004,8532
1422.382732,10060,8349
1421.439487,10003,8389
1420.49608,9931,8288
1419.55251,9845,8127
1418.608778,9767,8096
1417.664882,9737,7976
1416.720824,9533,7892
1415.776602,9406,7830
1414.832218,9483,7809
1413.88767,9432,7848
1412.94296,9401,7807
1411.998086,9410,7767
1411.053049,9426,7799
1410.107849,9302,7833
1409.162486,9267,7719
1408.216959,9326,7765
1407.271269,9452,7776
1406.325416,9387,7898
1405.3794,9251,7730
1404.43322,9328,7725
1403.486876,9271,7774
1402.54037,9432,7822
1401.593699,9444,7869
1400.646865,9456,7899
1399.699868,9374,7770
1398.752707,9358,7895
1397.805382,9524,7938
1396.857893,9577,8054
1395.910241,9590,8003
1394.962425,9589,8076
1394.014445,9691.648923,8242
1393.066301,9794.315589,8203
1392.117994,9897,8242
1391.169522,9939,8495
1390.220887,9980,8485
1389.272088,10113,8544
1388.323124,9995,8669
1387.373996,10169,8670
1386.424705,10085,8564
1385.475249,10058,8319
1384.525629,9995,8481
1383.575845,10082,8351
1382.625896,9881,8336
1381.675784,9865,8359
1380.725506,9718,8218
1379.775065,9888,8162
1378.824459,9742,8217
1377.873689,9815,8085
1376.922754,9848,8030
1375.971655,9788,7979
1375.020391,9695,7944
1374.068962,9622,8096
1373.117369,9618,7973
1372.165612,9789,8012
1371.213689,9650,8040
1370.261602,9706,7962
1369.30935,9674,8054
1368.356933,9712,8110
1367.404352,9549,7932
1366.451605,9844,7996
1365.498694,9706,8075
1364.545617,9617,8049
1363.592376,9679,7923
1362.638969,9504,7927
1361.685398,9581,8033
1360.731661,9538,7892
1359.777759,9598,8010
1358.823692,9492,8009
1357.86946,9698,8024
1356.915063,9457,7978
1355.9605,9614,8039
1355.005772,9561,8095
1354.050878,9402,7926
1353.095819,9542,7978
1352.140595,9619,7855
1351.185205,9552,8003
1350.22965,9501,7941
1349.273929,9636,7932
1348.318042,9541,7924
1347.36199,9538,7941
1346.405772,9564,7969
1345.449389,9551,7877
1344.492839,9499,7871
1343.536124,9625,7956
1342.579243,9543,7867
1341.622196,9551,7959
1340.664984,9509,7932
1339.707605,9493,7802
1338.75006,9497,7860
1337.79235,9422,7886
1336.834473,9685,7864
1335.87643,9506,7949
1334.918222,9537,7656
1333.959846,9633,7837
1333.001305,9690,7852
1332.042598,9456,7842
1331.083724,9743,7787
1330.124684,9438,7848
1329.165477,9453,7761
1328.206104,9501,7822
1327.246565,9374,7805
1326.286859,9455,7804
1325.326987,9489,7800
1324.366948,9601,7916
1323.406743,9474,7832
1322.446371,9424,7779
1321.485832,9442,7973
1320.525127,9462,7818
1319.564255,9648,7736
1318.603216,9427,7841
1317.64201,9458,7923
1316.680638,9482,7802
1315.719099,9295,7684
1314.757392,9475,7856
1313.795519,9430,7868
1312.833479,9361,7904
1311.871271,9345,7808
1310.908897,9510,7860
1309.946356,9504,7888
1308.983647,9381,7839
1308.020771,9395,7858
1307.057728,9374,7906
1306.094518,9401,7886
1305.13114,9525,7870
1304.167595,9375,7934
1303.203883,9572,7918
1302.240003,9491,7881
1301.275956,9521,7963
1300.311741,9450,7771
1299.347359,9669,7891
1298.382809,9425,7775
1297.418092,9471,7916
1296.453207,9608,7856
1295.488154,9491,7906
1294.522934,9433,7921
1293.557545,9514,7839
1292.591989,9431,7876
1291.626265,9481,7930
1290.660374,9595,7900
1289.694314,9493,7873
1288.728086,9492,8049
1287.761691,9485,7875
1286.795127,9469,7795
1285.828396,9616,7857
1284.861496,9536,7865
1283.894428,9526,8030
1282.927192,9477,7919
1281.959787,9573,7834
1280.992215,9379,7962
1280.024474,9384,7818
1279.056565,9485,7931
1278.088487,9420,7967
1277.120241,9531,7966
1276.151827,9458,7925
1275.183244,9470,7785
1274.214492,9402,7913
1273.245572,9453,7857
1272.276484,9465,7821
1271.307226,9569,8069
1270.3378,9547,7818
1269.368206,9431,7849
1268.398442,9446,7818
1267.42851,9521,7883
1266.458409,9491,7844
1265.488139,9458,7996
1264.5177,9371,7922
1263.547092,9555,7844
1262.576316,9540,7952
1261.60537,9569,7881
1260.634255,9506,7898
1259.662971,9431,7868
1258.691518,9634,7898
1257.719896,9496,7924
1256.748104,9316,7812
1255.776143,9506,7835
1254.804013,9467,7937
1253.831714,9500,7874
1252.859245,9498,7861
1251.886607,9330,7801
1250.913799,9432,7860
1249.940822,9437,7922
1248.967675,9540,7828
1247.994359,9398,7868
1247.020873,9409,7886
1246.047217,9540,7896
1245.073392,9510,7852
1244.099397,9439,7892
1243.125233,9462,7898
1242.150898,9432,7934
1241.176394,9426,7840
1240.20172,9355,7869
1239.226875,9390,7742
1238.251861,9494,7842
1237.276677,9530,7767
1236.301323,9456,7759
1235.325799,9413,7736
1234.350104,9401,7900
1233.37424,9343,7764
1232.398205,9461,7810
1231.422,9318,7862
1230.445625,9441,7751
1229.46908,9346,7783
1228.492364,9344,7749
1227.515478,9312,7758
1226.538421,9311,7856
1225.561194,9429,7745
1224.583796,9438,7691
1223.606228,9472,7859
1222.628489,9185,7777
1221.65058,9325,7819
1220.6725,9397,7900
1219.694249,9315,7821
1218.715828,9265,7847
1217.737236,9334,7726
1216.758473,9217,7707
1215.779539,9314,7787
1214.800434,9394,7881
1213.821158,9303,7769
1212.841711,9388,7782
1211.862094,9393,7811
1210.882305,9465,7752
1209.902345,9325,7783
1208.922214,9366,7736
1207.941912,9456,7840
1206.961438,9495,7714
1205.980794,9364,7810
1204.999978,9377,7818
1204.018991,9313,7830
1203.037832,9366,7849
1202.056502,9351,7876
1201.075,9440,7799
1200.093328,9455,7785
1199.111483,9487,7831
1198.129467,9361,7832
1197.147279,9378,7834
1196.16492,9533,7934
1195.182389,9477,7897
1194.199686,9446,7845
1193.216812,9404,7921
1192.233766,9472,7829
1191.250547,9627,7937
1190.267158,9515,7961
1189.283596,9619,7983
1188.299862,9440,7978
1187.315956,9485,7876
1186.331878,9531,7932
1185.347628,9560,7880
1184.363206,9406,7840
1183.378612,9570,7867
1182.393845,9610,7955
1181.408906,9501,7875
1180.423796,9454,7863
1179.438512,9459,7903
1178.453057,9446,7815
1177.467429,9401,7925
1176.481628,9460,7752
1175.495655,9450.290813,7917
1174.50951,9440.579926,7923
1173.523192,9430.867341,7872
1172.536701,9421.153056,7906
1171.550038,9411.437071,7907
1170.563202,9401.719386,7764
1169.576193,9392,7836
1168.589012,9304,7920
1167.601658,9504,7975
1166.614131,9492,7894
1165.626431,9493,7806
1164.638558,9499,7793
1163.650512,9444,7802
1162.662294,9598,7988
1161.673902,9434,7939
1160.685337,9644,7905
1159.696599,9426,7972
1158.707688,9330,7832
1157.718604,9419,7884
1156.729346,9438,7868
1155.739915,9582,7958
1154.750311,9611,7887
1153.760534,9581,7885
1152.770583,9514,7908
1151.780459,9561,7940
1150.790161,9655,8063
1149.79969,9583,7910
1148.809045,9635,7988
1147.818227,9678,7993
1146.827234,9851,8004
1145.836069,9646,8014
1144.844729,9830,8048
1143.853216,9763,8148
1142.861529,9836,8187
1141.869668,9851,8228
1140.877634,9917,8179
1139.885425,10083,8347
1138.893043,10085,8572
1137.900486,10021,8452
1136.907756,10073,8611
1135.914851,9881,8601
1134.921772,9980,8551
1133.928519,9970,8728
1132.935092,9802,8618
1131.941491,10098,8605
1130.947715,10096,8625
1129.953765,9897,8509
1128.959641,9871,8468
1127.965342,9866,8311
1126.970869,9816,8390
1125.976222,9927,8169
1124.9814,9788,8176
1123.986403,9791,8134
1122.991232,9719,8065
1121.995886,9639,7993
1121.000365,9741,7999
1120.00467,9575,8003
1119.0088,9616,7918
1118.012755,9487,7928
1117.016536,9519,8005
1116.020141,9469,7785
1115.023571,9477,7820
1114.026827,9539,7913
1113.029908,9405,7833
1112.032813,9448,7840
1111.035544,9451,7806
1110.038099,9383,7898
1109.040479,9443,7892
1108.042684,9420,7918
1107.044714,9258,7913
1106.046568,9317,7832
1105.048247,9374,7740
1104.049751,9412,7843
1103.051079,9468,7896
1102.052232,9620,7722
1101.053209,9477,7827
1100.054011,9534,7868
1099.054637,9451,8041
1098.055088,9482,7808
1097.055363,9557,7881
1096.055462,9419,7989
1095.055386,9441,7925
1094.055134,9613,8004
1093.054706,9528,8053
1092.054102,9624,7958
1091.053322,9601,7921
1090.052366,9601,7951
1089.051235,9506,7857
1088.049927,9451,7899
1087.048443,9443,8033
1086.046783,9706,7908
1085.044947,9492,7988
1084.042935,9555,8018
1083.040747,9733,8085
1082.038382,9515,8063
1081.035841,9638,8082
1080.033124,9614,8101
1079.03023,9726,8131
1078.02716,9717,8205
1077.023913,9713,8398
1076.02049,9706,8287
1075.016891,9811,8315
1074.013114,9824,8360
1073.009161,9844,8412
1072.005032,9997,8329
1071.000726,9938,8430
1069.996243,9772,8432
1068.991583,9950,8557
1067.986746,9873,8359
1066.981733,9853,8254
1065.976542,9753,8262
1064.971175,9811,8145
1063.96563,9660,8090
1062.959909,9865,7957
1061.95401,9839,7935
1060.947934,9759,7918
1059.941682,9726,8126
1058.935251,9643,7804
1057.928644,9471,7838
1056.92186,9609,7834
1055.914898,9369,7882
1054.907758,9446,7838
1053.900442,9555,7868
1052.892947,9495,7863
1051.885276,9333,7869
1050.877426,9412,7770
1049.8694,9366,7807
1048.861195,9489,7840
1047.852813,9430,7858
1046.844253,9366,7637
1045.835516,9405,7707
1044.8266,9345,7766
1043.817507,9321,7845
1042.808236,9339,7908
1041.798787,9357,7854
1040.78916,9315,7782
1039.779355,9261,7689
1038.769372,9424,7708
1037.759211,9270,7914
1036.748872,9290,7748
1035.738355,9345,7800
1034.72766,9268,7716
1033.716786,9427,7765
1032.705734,9316,7761
1031.694503,9269,7749
1030.683095,9285,7837
1029.671508,9305,7761
1028.659742,9274,7755
1027.647798,9292,7828
1026.635675,9275,7919
1025.623374,9298,7835
1024.610894,9249,7798
1023.598236,9393,7727
1022.585399,9314,7817
1021.572383,9309,7737
1020.559188,9298,7816
1019.545814,9405,7736
1018.532262,9293,7769
1017.518531,9127,7697
1016.504621,9407,7703
1015.490531,9413,7799
1014.476263,9163,7772
1013.461816,9305,7847
1012.447189,9364,7723
1011.432383,9264,7765
1010.417399,9355,7722
1009.402235,9242,7753
1008.386891,9379,7859
1007.371368,9325,7816
1006.355666,9438,7908
1005.339785,9531,7846
1004.323724,9574,7794
1003.307483,9403,7866
1002.291063,9493,7903
1001.274464,9448,7795
1000.257685,9394,7801
999.2407258,9329,7824
998.2235873,9377,7861
997.2062689,9301,7898
996.1887708,9343,7957
995.1710929,9325,7828
994.1532351,9381,7795
993.1351974,9343,7801
992.1169797,9351,7902
991.098582,9203,7771
990.0800042,9438,7847
989.0612464,9257,7706
988.0423085,9230,7760
987.0231904,9393,7814
986.003892,9356,7799
984.9844134,9423,7688
983.9647546,9427,7691
982.9449153,9324,7735
981.9248957,9369,7790
980.9046957,9425,7786
979.8843152,9323,7881
978.8637542,9288,7823
977.8430127,9270,7664
976.8220905,9390,7790
975.8009877,9341,7833
974.7797043,9335,7872
973.7582401,9281,7688
972.7365952,9315,7772
971.7147694,9274,7696
970.6927628,9258,7769
969.6705754,9350,7798
968.6482069,9228,7751
967.6256576,9293,7715
966.6029272,9142,7685
965.5800157,9262,7756
964.5569231,9269,7874
963.5336494,9212,7698
962.5101945,9375,7699
961.4865584,9272,7690
960.462741,9169,7714
959.4387423,9187,7615
958.4145623,9253,7611
957.3902008,9298,7673
956.3656579,9188,7729
955.3409335,9260,7616
954.3160276,9130,7771
953.2909401,9148,7624
952.265671,9172,7672
951.2402203,9206,7712
950.2145878,9103,7633
949.1887736,9274,7732
948.1627777,9305,7630
947.1365999,9127,7657
946.1102402,9193,7670
945.0836986,9109,7635
944.0569751,9195,7758
943.0300696,9261,7722
942.002982,9100,7695
940.9757123,9270,7685
939.9482606,9196,7627
938.9206266,9137,7747
937.8928105,9245,7714
936.8648121,9138,7540
935.8366314,9218,7642
934.8082683,9196,7661
933.7797229,9102,7612
932.750995,9134,7691
931.7220847,9194,7615
930.6929919,9174,7687
929.6637165,9259,7657
928.6342585,9148,7748
927.6046179,9202,7625
926.5747946,9203,7699
925.5447886,9169,7711
924.5145998,9136,7706
923.4842282,9200,7748
922.4536737,9322,7737
921.4229363,9184,7795
920.392016,9323,7763
919.3609127,9211,7725
918.3296264,9250,7804
917.298157,9206,7670
916.2665045,9282,7793
915.2346689,9265,7808
914.20265,9250,7706
913.1704479,9220,7773
912.1380626,9215,7688
911.1054938,9234,7637
910.0727418,9202,7775
909.0398063,9268,7739
908.0066873,9369,7659
906.9733848,9134,7635
905.9398988,9150,7733
904.9062292,9205,7660
903.872376,9328,7855
902.8383391,9248,7720
901.8041185,9135,7717
900.7697141,9264,7691
899.7351259,9254,7610
898.7003538,9364,7739
897.6653979,9214,7691
896.630258,9262,7705
895.5949342,9318,7663
894.5594263,9169,7826
893.5237344,9192,7775
892.4878583,9132,7692
891.4517981,9199,7795
890.4155537,9192,7702
889.3791251,9161,7717
888.3425122,9028,7830
887.305715,9211,7759
886.2687333,9207,7882
885.2315673,9243,7738
884.1942168,9224,7719
883.1566818,9256,7639
882.1189623,9148,7711
881.0810582,9135,7624
880.0429694,9238,7591
879.004696,9156,7737
877.9662379,9267,7551
876.9275949,9113,7573
875.8887672,9022,7599
874.8497547,9060,7723
873.8105572,9153,7614
872.7711748,9118,7599
871.7316074,9058,7581
870.691855,9077,7553
869.6519176,9050,7553
868.611795,9087,7631
867.5714872,9074,7601
866.5309943,9017,7485
865.4903161,9169,7486
864.4494526,9143,7542
863.4084038,9005,7558
862.3671696,9058,7594
861.32575,9148,7490
860.284145,9005,7566
859.2423544,9124,7539
858.2003783,9089,7561
857.1582166,9119,7619
856.1158692,9023,7568
855.0733362,9057,7546
854.0306174,9139,7572
852.9877128,9036,7604
851.9446225,9018,7521
850.9013463,9061,7629
849.8578842,8986,7541
848.8142361,9121,7634
847.770402,9036,7514
846.726382,9096,7604
845.6821758,8922,7558
844.6377835,9028,7580
843.593205,8991,7567
842.5484404,9070,7538
841.5034894,9155,7552
840.4583522,9022,7565
839.4130286,9003,7615
838.3675187,9018,7529
837.3218223,9076,7622
836.2759394,9038,7599
835.22987,8996,7615
834.1836141,9072,7573
833.1371715,9191,7634
832.0905423,9239,7652
831.0437263,9137,7710
829.9967237,9024,7652
828.9495342,8948,7636
827.902158,9107,7618
826.8545948,9076,7570
825.8068447,9109,7714
824.7589077,9017,7603
823.7107836,9016,7580
822.6624725,9060,7597
821.6139743,9037,7529
820.565289,9078,7571
819.5164165,9106,7637
818.4673567,9182,7617
817.4181097,9101,7663
816.3686753,9266,7655
815.3190536,9079,7691
814.2692445,9142,7662
813.2192479,8978,7624
812.1690638,9083,7630
811.1186922,9127,7562
810.068133,9133,7655
809.0173861,9049,7630
807.9664516,9065,7563
806.9153294,8962,7642
805.8640194,9088,7530
804.8125216,9053,7644
803.7608359,9093,7610
802.7089623,9087,7633
801.6569008,8959,7598
800.6046513,8997,7443
799.5522138,9057,7496
798.4995882,8984,7523
797.4467744,8992,7579
796.3937725,9171,7554
795.3405824,9016,7483
794.287204,8974,7530
793.2336373,8934,7570
792.1798823,8951,7552
791.1259389,9050,7446
790.071807,8920,7423
789.0174867,8904,7486
787.9629778,8908,7439
786.9082804,8846,7452
785.8533943,8893,7378
784.7983196,9023,7486
783.7430562,8819,7414
782.687604,8924,7529
781.6319631,9030,7380
780.5761332,8794,7404
779.5201145,8974,7346
778.4639069,8949,7431
777.4075103,8757,7441
776.3509247,8823,7421
775.29415,8899,7448
774.2371862,8926,7459
773.1800332,8714,7408
772.122691,8797,7480
771.0651596,8907,7475
770.0074389,8884,7379
768.9495289,8949,7372
767.8914295,8804,7441
766.8331406,8898,7352
765.7746623,8851,7444
764.7159944,8809,7347
763.657137,8917,7409
762.59809,8864,7390
761.5388533,8894,7361
760.479427,8855,7385
759.4198108,8941,7420
758.3600049,8776,7462
757.3000092,8855,7584
756.2398236,8860,7317
755.179448,8996,7500
754.1188825,8830,7492
753.058127,8837,7418
751.9971814,8900,7472
750.9360457,8906,7418
749.8747198,8804,7356
748.8132038,8905,7432
747.7514974,8843,7441
746.6896009,8916,7470
745.6275139,8914,7506
744.5652366,8898,7444
743.5027689,8913,7442
742.4401107,8974,7477
741.377262,8855,7392
740.3142227,8829,7521
739.2509928,8997,7457
738.1875723,8929,7363
737.123961,8937,7476
736.060159,8941,7499
734.9961663,8907,7485
733.9319826,8863,7364
732.8676081,8964,7471
731.8030427,8891,7405
730.7382863,8896,7426
729.6733389,8796,7311
728.6082004,8904,7452
727.5428708,8919,7306
726.4773501,8838,7465
725.4116381,8874,7542
724.345735,8952,7391
723.2796405,8862,7379
722.2133546,8845,7451
721.1468774,8823,7434
720.0802088,8886,7356
719.0133487,8916,7384
717.946297,8833,7417
716.8790538,8769,7336
715.811619,8845,7405
714.7439925,8763,7430
713.6761743,8755,7342
712.6081643,8895,7320
711.5399626,8794,7417
710.471569,8872,7358
709.4029835,8746,7202
708.3342061,8823,7324
707.2652367,8809,7390
706.1960753,8698,7253
705.1267218,8651,7271
704.0571762,8601,7361
702.9874384,8667,7267
701.9175084,8719,7361
700.8473861,8724,7302
699.7770715,8678,7312
698.7065646,8711,7151
697.6358653,8686,7242
696.5649736,8644,7291
695.4938893,8677,7192
694.4226125,8576,7293
693.3511432,8698,7267
692.2794812,8658,7363
691.2076265,8760,7220
690.1355791,8717,7220
689.063339,8661,7354
687.990906,8575,7298
686.9182802,8595,7289
685.8454614,8607,7271
684.7724497,8659,7181
683.6992451,8634,7341
682.6258473,8589,7206
681.5522565,8619,7274
680.4784725,8632,7242
679.4044954,8604,7262
678.330325,8549,7275
677.2559614,8648,7177
676.1814044,8569,7126
675.106654,8646,7338
674.0317103,8677,7170
672.956573,8591,7333
671.8812423,8670,7255
670.805718,8699,7289
669.7300001,8708,7272
668.6540886,8610,7226
667.5779833,8592,7224
666.5016843,8632,7276
665.4251916,8713,7304
664.348505,8730,7343
663.2716245,8829,7350
662.19455,8754,7263
661.1172816,8765,7427
660.0398192,8825,7207
658.9621627,8664,7367
657.8843121,8688,7225
656.8062674,8727,7360
655.7280284,8723,7264
654.6495951,8554,7266.141699
653.5709676,8636,7268.283784
652.4921457,8664,7270.426255
651.4131294,8741,7272.569112
650.3339187,8695,7274.712355
649.2545135,8593,7276.855984
648.1749137,8707,7279
647.0951194,8662,7186
646.0151304,8721,7223
644.9349467,8647,7201
643.8545684,8621,7304
642.7739952,8534,7257
641.6932273,8671,7176
640.6122644,8561,7275
639.5311067,8607,7301
638.449754,8669,7278
637.3682063,8734,7191
636.2864635,8587,7126
635.2045256,8490,7270
634.1223926,8468,7149
633.0400644,8527,7157
631.9575409,8514,7181
630.8748222,8592,7144
629.7919081,8515,7154
628.7087986,8643,7192
627.6254937,8554,7198
626.5419934,8482,7147
625.4582975,8331,7209
624.374406,8501,7074
623.2903189,8473,7258
622.2060361,8588,7072
621.1215577,8482,7170
620.0368834,8459,7066
618.9520134,8395,7074
617.8669475,8397,7098
616.7816857,8549,7102
615.6962279,8414,7098
614.6105742,8480,7105
613.5247244,8438,7135
612.4386785,8430,7051
611.3524364,8404,7165
610.2659982,8512,7125
609.1793638,8425,7029
608.092533,8438,7130
607.005506,8513,7068
605.9182825,8432,6997
604.8308626,8426,7183
603.7432463,8441,7029
602.6554334,8504,7228
601.567424,8429,7094
600.4792179,8367,7124
599.3908152,8474,7020
598.3022158,8354,7129
597.2134196,8417,7113
596.1244266,8479,7112
595.0352368,8378,7082
593.9458501,8436,7087
592.8562664,8430,7096
591.7664857,8439,7054
590.676508,8452,7020
589.5863331,8451,7172
588.4959612,8451,7139
587.405392,8397,7082
586.3146257,8469,7026
585.223662,8281,7065
584.132501,8361,7058
583.0411426,8351,7025
581.9495868,8289,7065
580.8578335,8356,7074
579.7658827,8340,7067
578.6737344,8301,6998
577.5813884,8408,7094
576.4888447,8454,7073
575.3961034,8539,6899
574.3031643,8405,7037
573.2100273,8349,7046
572.1166925,8358,7095
571.0231598,8341,6912
569.9294292,8294,6969
568.8355005,8221,6974
567.7413738,8319,6931
566.647049,8229,6916
565.5525261,8272,6896
564.4578049,8314,6911
563.3628856,8322,7004
562.2677679,8377,6931
561.1724519,8231,6918
560.0769375,8201,6966
558.9812246,8199,6873
557.8853133,8356,6930
556.7892035,8229,6962
555.6928951,8213,6873
554.596388,8088,6876
553.4996823,8246,6950
552.4027778,8214,6869
551.3056746,8157,6925
550.2083726,8191,6886
549.1108717,8141,6855
548.0131718,8158,6850
546.915273,8121,6907
545.8171752,8135,6976
544.7188784,8212,6848
543.6203824,8077,6714
542.5216873,8137,6810
541.4227929,8184,6904
540.3236993,8114,6944
539.2244064,8192,6858
538.1249141,8133,6842
537.0252225,8189,6964
535.9253314,8148,6878
534.8252408,8160,7016
533.7249506,8150,6910
532.6244609,8120,6808
531.5237715,8059,6814
530.4228824,8103,6826
529.3217936,8143,6827
528.2205049,8221,6829
527.1190165,8279,6861
526.0173282,8228,6863
524.9154399,8044,6836
523.8133516,8124,6887
522.7110633,8186,6845
521.6085749,8123,6984
520.5058864,8117,6868
519.4029978,8119,6939
518.2999088,8177,6923
517.1966197,8092,6818
516.0931301,8142,6851
514.9894402,8094,6866
513.8855499,8047,6969
512.7814591,8182,6998
511.6771678,8282,6870
510.572676,8194,6929
509.4679835,8134,6912
508.3630903,7998,6812
507.2579964,8115,6830
506.1527018,8026,6853
505.0472063,8074,6884
503.94151,8143,6811
502.8356128,8024,6776
501.7295146,8182,6819
500.6232154,8007,6890
499.5167151,8122,6818
498.4100137,8121,6801
497.3031112,7999,6805
496.1960075,7959,6791
495.0887025,8056,6812
493.9811962,8010,6943
492.8734885,8045,6798
491.7655795,7934,6845
490.657469,7939,6818
489.549157,7890,6763
488.4406434,8119,6774
487.3319282,8102,6737
486.2230114,7964,6795
485.1138929,8053,6741
484.0045727,8012,6781
482.8950506,8042,6795
481.7853267,7901,6744
480.6754009,8070,6784
479.5652732,7955,6733
478.4549434,7979,6743
477.3444117,7934,6759
476.2336778,7950,6618
475.1227418,7996,6858
474.0116036,7909,6797
472.9002631,7819,6721
471.7887204,7836,6678
470.6769753,7953,6714
469.5650278,7917,6631
468.4528779,7949,6743
467.3405255,7866,6713
466.2279706,7857,6652
465.1152131,7911,6664
464.0022529,7983,6685
462.8890901,7836,6560
461.7757245,7848,6660
460.6621561,7971,6661
459.5483849,7862,6629
458.4344108,7921,6686
457.3202338,7818,6593
456.2058538,7947,6590
455.0912707,7808,6702
453.9764846,7996,6637
452.8614954,7942,6715
451.7463029,7985,6791
450.6309072,7836,6624
449.5153083,7913,6632
448.399506,7930,6656
447.2835003,7853,6628
446.1672912,7873,6662
445.0508786,7824,6649
443.9342624,7891,6720
442.8174427,7924,6583
441.7004194,7846,6590
440.5831923,7770,6584
439.4657616,7786,6668
438.348127,7762,6557
437.2302887,7802,6534
436.1122464,7578,6611
434.9940002,7778,6606
433.8755501,7824,6657
432.7568959,7776,6526
431.6380376,7716,6529
430.5189751,7736,6593
429.3997085,7752,6593
428.2802377,7785,6547
427.1605626,7710,6488
426.0406832,7785,6510
424.9205993,7694,6496
423.8003111,7688,6610
422.6798183,7630,6482
421.559121,7634,6527
420.4382192,7615,6440
419.3171127,7653,6444
418.1958015,7696,6449
417.0742856,7629,6471
415.9525649,7673,6442
414.8306393,7572,6413
413.7085089,7604,6452
412.5861735,7770,6464
411.4636332,7564,6406
410.3408878,7679,6421
409.2179373,7616,6385
408.0947817,7653,6427
406.9714209,7588,6417
405.8478549,7556,6371
404.7240836,7530,6398
403.6001069,7552,6374
402.4759249,7570,6445
401.3515374,7503,6421
400.2269444,7624,6485
399.1021459,7497,6489
397.9771418,7655,6423
396.851932,7537,6394
395.7265166,7586,6548
394.6008954,7643,6355
393.4750684,7574,6359
392.3490355,7578,6470
391.2227968,7554,6406
390.0963521,7617,6465
388.9697015,7609,6461
387.8428447,7621,6464
386.7157819,7605,6317
385.588513,7512,6374
384.4610378,7553,6458
383.3333564,7604,6542
382.2054687,7564,6362
381.0773746,7560,6420
379.9490741,7580,6325
378.8205672,7605,6466
377.6918537,7542,6487
376.5629338,7588,6458
375.4338072,7555,6460
374.3044739,7509,6288
373.1749339,7497,6332
372.0451872,7568,6385
370.9152337,7461,6332
369.7850733,7463,6397
368.654706,7519,6302
367.5241317,7506,6306
366.3933504,7347,6321
365.2623621,7405,6202
364.1311666,7448,6303
362.999764,7437,6293
361.8681541,7417,6225
360.736337,7403,6301
359.6043126,7381,6252
358.4720807,7445,6265
357.3396415,7517,6267
356.2069948,7383,6252
355.0741405,7407,6168
353.9410787,7432,6265
352.8078093,7337,6175
