#Wave,#Intensity1,#Intensity2
2260.823624,7071,6752
2260.02195,7055,6809
2259.220144,7081,6691
2258.418206,7054,6716
2257.616136,7032,6830
2256.813934,7140,6852
2256.011599,7060,6870
2255.209132,7112,6803
2254.406533,6950,6751
2253.603801,6971,6840
2252.800937,6936,6705
2251.997941,7041,6758
2251.194812,7006,6762
2250.391551,7088,6843
2249.588157,7026,6768
2248.784631,7019,6774
2247.980972,7012,6750
2247.177181,6894,6705
2246.373257,7036,6822
2245.5692,6997,6860
2244.765011,6996,6799
2243.960689,7094,6837
2243.156234,6997,6799
2242.351647,7060,6683
2241.546927,7028,6861
2240.742074,7021,6779
2239.937089,7224,6855
2239.13197,7032,6874
2238.326719,7051,6801
2237.521335,7031,6891
2236.715818,7103,6798
2235.910167,7084,6699
2235.104384,7074,6834
2234.298468,7065,6674
2233.492419,7147,6874
2232.686237,7101,6715
2231.879922,7018,6781
2231.073473,7067,6757
2230.266892,7133,6759
2229.460177,7078,6783
2228.653329,7083,6847
2227.846348,7059,6746
2227.039234,7080,6788
2226.231986,7012,6947
2225.424606,7092,6814
2224.617091,7102,6761
2223.809444,7140,6751
2223.001663,6999,6758
2222.193748,7066,6801
2221.3857,7088,6864
2220.577519,7046,6866
2219.769204,7149,6883
2218.960756,7099,6753
2218.152174,7144,6868
2217.343459,7128,6734
2216.534609,7150,6802
2215.725627,7095,6876
2214.91651,7116,6807
2214.10726,7052,6863
2213.297876,7155,6843
2212.488359,7235,6760
2211.678707,7234,6841
2210.868922,7168,6849
2210.059003,7155,6845
2209.24895,7052,6963
2208.438764,7131,6870
2207.628443,7177,6821
2206.817988,7024,6792
2206.0074,7122,6836
2205.196677,7071,6814
2204.385821,7061,6925
2203.57483,7125,6936
2202.763705,7116,6794
2201.952446,7175,6866
2201.141053,7185,6735
2200.329526,7095,6790
2199.517865,7115,6828
2198.706069,7122,6831
2197.894139,7164,6764
2197.082075,7166,6898
2196.269877,7060,6921
2195.457544,7105,6873
2194.645077,7169,6783
2193.832475,7046,6758
2193.019739,7074,6956
2192.206869,7126,6759
2191.393864,7126,6929
2190.580724,7043,6777
2189.76745,7055,6890
2188.954042,7070,6767
2188.140499,7133,6784
2187.326821,7193,6840
2186.513009,7197,6913
2185.699062,7081,6921
2184.88498,7106,6807
2184.070764,7085,6839
2183.256412,7112,6767
2182.441926,7103,6840
2181.627306,7123,6770
2180.81255,7102,6705
2179.997659,7047,6802
2179.182634,7066,6713
2178.367474,7047,6871
2177.552178,6995,6750
2176.736748,7065,6684
2175.921183,6977,6925
2175.105482,7114,6859
2174.289647,7141,6810
2173.473676,7052,6774
2172.657571,7078,6765
2171.84133,7078,6760
2171.024954,7083,6795
2170.208443,7032,6760
2169.391796,7080,6731
2168.575015,7115,6881
2167.758098,6991,6931
2166.941045,7099,6792
2166.123858,7069,6691
2165.306534,7045,6748
2164.489076,7100,6734
2163.671482,7060,6763
2162.853753,7060,6687
2162.035888,6980,6704
2161.217888,7129,6782
2160.399752,7161,6707
2159.58148,7083,6776
2158.763073,6994,6761
2157.94453,7117,6774
2157.125852,7108.602784,6819
2156.307038,7100.204177,6912
2155.488088,7091.804177,6765
2154.669002,7083.402785,6707
2153.849781,7075,6776
2153.030424,7114,6803
2152.210931,7179,6831
2151.391302,7083,6846
2150.571537,7040,6788
2149.751637,7144,6644
2148.9316,6991,6871
2148.111427,6999,6718
2147.291119,7151,6639
2146.470674,7058,6692
2145.650094,7120,6759
2144.829377,7109,6757
2144.008524,7027,6781
2143.187535,7080,6764
2142.36641,7033,6752
2141.545148,7015,6716
2140.723751,7130,6789
2139.902217,7077,6865
2139.080546,7065,6808
2138.25874,7067,6725
2137.436797,7031,6682
2136.614718,7095,6725
2135.792502,7172,6766
2134.97015,7049,6739
2134.147661,7066,6663
2133.325036,7184,6818
2132.502275,7107,6746
2131.679377,7114,6766
2130.856342,7009,6749
2130.033171,6969,6722
2129.209863,7031,6773
2128.386418,7140,6806
2127.562837,7052,6712
2126.739119,7016,6763
2125.915264,7011,6719
2125.091273,7036,6683
2124.267144,6988,6782
2123.442879,7042,6748
2122.618477,7070,6816
2121.793938,7121,6776
2120.969262,7076,6834
2120.144449,7157,6721
2119.3195,6952,6762
2118.494413,7086,6662
2117.669189,7014,6658
2116.843828,7064,6750
2116.01833,7100,6668
2115.192695,7110,6723
2114.366923,7138,6757
2113.541013,7017,6701
2112.714967,6969,6800
2111.888783,7098,6724
2111.062462,7067,6780
2110.236003,7187,6754
2109.409407,7087,6750
2108.582674,7081,6730
2107.755804,7003,6838
2106.928796,7110,6752
2106.10165,7149,6860
2105.274367,7116,6754
2104.446947,7180,6852
2103.619389,7144,6668
2102.791694,7106,6722
2101.963861,7066,6815
2101.13589,7113,6680
2100.307782,6996,6765
2099.479536,7071,6691
2098.651152,7060,6819
2097.822631,7080,6893
2096.993972,7093,6824
2096.165175,7164,6839
2095.33624,6958,6712
2094.507167,7145,6789
2093.677957,7054,6818
2092.848608,7127,6735
2092.019122,7041,6757
2091.189498,7016,6735
2090.359736,7088,6754
2089.529835,7110,6729
2088.699797,7024,6657
2087.86962,7039,6738
2087.039306,7186,6679
2086.208853,7081,6742
2085.378262,7100,6763
2084.547533,7081,6776
2083.716666,7014,6811
2082.885661,7030,6721
2082.054517,7142,6805
2081.223235,7123,6775
2080.391814,7002,6705
2079.560255,7067,6748
2078.728558,7020,6827
2077.896722,7150,6760
2077.064748,7161,6751
2076.232636,7052,6779
2075.400384,7199,6827
2074.567995,7101,6820
2073.735467,7243,6805
2072.9028,7014,6767
2072.069994,7067,6709
2071.23705,7046,6659
2070.403967,7074,6737
2069.570746,7097,6703
2068.737385,7088,6793
2067.903886,7043,6730
2067.070248,7138,6745
2066.236471,6941,6744
2065.402556,7048,6697
2064.568501,7155,6618
2063.734308,7089,6693
2062.899975,7080,6792
2062.065504,7101,6707
2061.230893,7101,6802
2060.396144,7030,6750
2059.561255,7024,6764
2058.726228,7062,6748
2057.891061,7050,6721
2057.055755,7090,6684
2056.22031,7011,6696
2055.384725,6982,6731
2054.549002,7098,6695
2053.713139,6941,6656
2052.877137,6954,6714
2052.040995,7092,6734
2051.204714,7014,6777
2050.368294,7021,6705
2049.531734,7008,6756
2048.695035,6993,6559
2047.858196,7066,6693
2047.021218,7110,6689
2046.1841,7085,6821
2045.346843,7043,6687
2044.509446,7048,6578
2043.671909,7049,6758
2042.834233,7141,6653
2041.996417,6928,6738
2041.158461,6970,6748
2040.320366,7052,6709
2039.482131,7045,6820
2038.643756,7017,6639
2037.805241,7074,6619
2036.966586,6900,6699
2036.127791,7004,6707
2035.288857,6967,6711
2034.449782,7024,6661
2033.610568,6991,6727
2032.771213,7116,6749
2031.931719,6953,6666
2031.092084,7029,6664
2030.252309,7148,6636
2029.412394,7036,6584
2028.572339,7053,6728
2027.732144,7065,6702
2026.891808,7071,6711
2026.051332,7074,6654
2025.210716,7034,6754
2024.36996,6960,6709
2023.529063,7047,6709
2022.688026,7152,6756
2021.846848,7072,6671
2021.00553,7115,6675
2020.164072,6984,6648
2019.322473,7128,6725
2018.480733,7028,6681
2017.638853,7078,6696
2016.796833,7112,6713
2015.954672,6982,6709
2015.11237,7108,6725
2014.269927,7082,6756
2013.427344,6945,6709
2012.58462,7187,6699
2011.741755,7012,6701
2010.898749,7103,6711
2010.055603,7038,6802
2009.212316,7116,6688
2008.368888,7042,6554
2007.525318,7015,6701
2006.681608,6972,6706
2005.837757,7072,6733
2004.993765,7100,6624
2004.149632,7127,6747
2003.305358,7106,6728
2002.460943,7068,6665
2001.616387,6989,6735
2000.771689,6974,6708
1999.926851,7010,6686
1999.081871,7047,6784
1998.23675,7062,6852
1997.391487,7101,6780
1996.546083,7093,6801
1995.700538,7079,6644
1994.854852,7011,6687
1994.009024,7020,6687
1993.163055,7162,6781
1992.316944,7078,6718
1991.470692,7126,6755
1990.624298,7010,6784
1989.777763,7049,6693
1988.931086,7047,6684
1988.084268,7111,6791
1987.237308,7151,6740
1986.390206,7101,6706
1985.542962,7044,6679
1984.695577,7089,6626
1983.84805,6965,6614
1983.000382,7047,6726
1982.152571,7043,6705
1981.304619,7134,6785
1980.456524,7162,6863
1979.608288,7109,6605
1978.75991,7084,6665
1977.91139,7116,6735
1977.062728,7109,6664
1976.213924,7136,6642
1975.364977,7132,6723
1974.515889,7002,6713
1973.666659,7216,6781
1972.817286,7060,6762
1971.967771,7042,6727
1971.118114,7177,6703
1970.268315,7100,6763
1969.418374,7126,6697
1968.56829,7117,6820
1967.718064,7084,6784
1966.867695,7003,6671
1966.017184,7116,6777
1965.166531,7137,6720
1964.315735,7107,6693
1963.464797,7244,6764
1962.613716,7156,6735
1961.762493,7144,6790
1960.911127,7091,6718
1960.059618,7123,6676
1959.207967,7075,6760
1958.356173,7095,6747
1957.504237,7084,6784
1956.652157,7092,6713
1955.799935,7120,6660
1954.947571,7160,6693
1954.095063,7019,6856
1953.242412,7077,6706
1952.389619,7100,6761
1951.536683,7078,6692
1950.683603,7027,6654
1949.830381,7102,6740
1948.977016,7065,6724
1948.123508,7080,6597
1947.269856,7030,6758
1946.416062,7082,6768
1945.562124,7070,6794
1944.708044,7120,6738
1943.85382,7024,6755
1942.999453,7096,6666
1942.144942,7082,6742
1941.290289,7015,6725
1940.435492,7143,6734
1939.580551,7076,6682
1938.725468,7167,6668
1937.87024,7120,6627
1937.01487,7011,6715
1936.159356,7117,6645
1935.303698,7056,6756
1934.447897,7201,6684
1933.591953,7199,6683.077852
1932.735865,7155,6682.155549
1931.879633,7051,6681.233092
1931.023257,7013,6680.31048
1930.166738,7175,6679.387713
1929.310075,7231,6678.464791
1928.453269,7118,6677.541714
1927.596318,7125,6676.618483
1926.739224,6975,6675.695096
1925.881986,7089,6674.771555
1925.024604,7147,6673.847858
1924.167079,7134,6672.924007
1923.309409,7061,6672
1922.451595,7096,6803
1921.593638,7085,6725
1920.735536,7091,6642
1919.87729,7077,6737
1919.0189,7065,6630
1918.160366,7147,6726
1917.301688,7070,6643
1916.442866,7167,6708
1915.5839,7126,6685
1914.724789,7100,6677
1913.865534,6998,6801
1913.006135,7044,6628
1912.146591,7149,6723
1911.286903,7271,6664
1910.427071,7108,6608
1909.567094,7185,6722
1908.706973,7141,6674
1907.846707,7169,6709
1906.986297,7197,6766
1906.125742,7172,6671
1905.265043,7239,6693
1904.404199,7112,6757
1903.54321,7144,6858
1902.682077,7120,6749
1901.820799,7143,6687
1900.959376,7209,6730
1900.097809,7106,6745
1899.236097,7169,6779
1898.374239,7185,6910
1897.512238,7241,6756
1896.650091,7211,6750
1895.787799,7189,6745
1894.925362,7065,6749
1894.06278,7237,6735
1893.200054,7107,6747
1892.337182,7263,6794
1891.474165,7223,6795
1890.611003,7164,6818
1889.747696,7283,6763
1888.884244,7172,6788
1888.020646,7206,6752
1887.156904,7203,6811
1886.293016,7298,6810
1885.428982,7246,6856
1884.564804,7218,6652
1883.70048,7251,6787
1882.83601,7175,6755
1881.971396,7230,6859
1881.106635,7184,6875
1880.24173,7081,6830
1879.376679,7329,6776
1878.511482,7275,6795
1877.646139,7249,6817
1876.780651,7243,6702
1875.915018,7228,6797
1875.049239,7319,6859
1874.183314,7225,6807
1873.317243,7146,6764
1872.451026,7250,6794
1871.584664,7254,6830
1870.718156,7281,6811
1869.851502,7315,6856
1868.984702,7282,6720
1868.117756,7163,6780
1867.250665,7248,6845
1866.383427,7376,6814
1865.516043,7329,6864
1864.648513,7263,6801
1863.780838,7350,6910
1862.913016,7220,6902
1862.045047,7301,6862
1861.176933,7242,6786
1860.308673,7280,6766
1859.440266,7311,6828
1858.571713,7362,6899
1857.703014,7288,6831
1856.834168,7305,6880
1855.965176,7252,6786
1855.096037,7302,6884
1854.226753,7153,6774
1853.357321,7199,6826
1852.487743,7277,6892
1851.618019,7430,6841
1850.748148,7217,6800
1849.878131,7161,6847
1849.007967,7251,6715
1848.137656,7291,6788
1847.267199,7329,6771
1846.396594,7327,6896
1845.525844,7288,6923
1844.654946,7358,6896
1843.783901,7227,6884
1842.91271,7278,6781
1842.041372,7158,6792
1841.169887,7258,6860
1840.298255,7320,6896
1839.426476,7261,6817
1838.55455,7346,6838
1837.682477,7243,6827
1836.810257,7244,6871
1835.93789,7372,6789
1835.065375,7255,6749
1834.192714,7278,6888
1833.319905,7343,6874
1832.446949,7232,6825
1831.573846,7242,6765
1830.700596,7245,6808
1829.827198,7264,6785
1828.953653,7214,6815
1828.07996,7318,6845
1827.20612,7237,6782
1826.332133,7141,6826
1825.457998,7141,6874
1824.583716,7207,6827
1823.709286,7364,6906
1822.834709,7341,6823
1821.959984,7261,6869
1821.085111,7267,6833
1820.210091,7208,6898
1819.334923,7340,6813
1818.459607,7203,6841
1817.584143,7354,6849
1816.708532,7248,6938
1815.832773,7300,6896
1814.956866,7317,6847
1814.080811,7309,6880
1813.204608,7311,6834
1812.328257,7248,6821.00439
1811.451758,7315,6808.006586
1810.575112,7343,6795.006586
1809.698317,7288,6782.004391
1808.821374,7277,6769
1807.944283,7350,6869
1807.067043,7302,6921
1806.189656,7266,6845
1805.31212,7337,6858
1804.434436,7383,6925
1803.556604,7201,6955
1802.678624,7307,6858
1801.800495,7272,6791
1800.922218,7221,6907
1800.043792,7322,6854
1799.165218,7353,6803
1798.286496,7312,6897
1797.407625,7262,6848
1796.528605,7308,6954
1795.649437,7268,6958
1794.77012,7364,6782
1793.890655,7366,6868
1793.011041,7461,6999
1792.131278,7471,6806
1791.251367,7309,6879
1790.371306,7351,6973
1789.491097,7345,6802
1788.610739,7372,6894
1787.730233,7329,7007
1786.849577,7405,7045
1785.968773,7407,6910
1785.087819,7301,6769
1784.206717,7404,6886
1783.325465,7392,6879
1782.444065,7345,6920
1781.562515,7445,7015
1780.680816,7384,6937
1779.798968,7414,6886
1778.916971,7423,6957
1778.034825,7363,6902
1777.152529,7384,7054
1776.270084,7284,6868
1775.38749,7572,7022
1774.504747,7474,7069
1773.621854,7448,7027
1772.738812,7436,6842
1771.85562,7474,6950
1770.972279,7390,7042
1770.088788,7402,7039
1769.205148,7427,7027
1768.321358,7418,6948
1767.437418,7302,7014
1766.553329,7378,7011
1765.66909,7325,6976
1764.784702,7426,6976
1763.900164,7491,7019
1763.015476,7505,6935
1762.130638,7472,6988
1761.24565,7472,6913
1760.360513,7476,7013
1759.475225,7541,7002
1758.589788,7528,6961
1757.704201,7437,6983
1756.818464,7427,6985
1755.932576,7436,7032
1755.046539,7437,6951
1754.160351,7458,7009
1753.274014,7389,6982
1752.387526,7412,7110
1751.500888,7480,7038
1750.6141,7426,6977
1749.727161,7513,6952
1748.840073,7464,6999
1747.952833,7495,7137
1747.065444,7493,6989
1746.177904,7481,7090
1745.290214,7528,7092
1744.402373,7477,6979
1743.514382,7429,6981
1742.62624,7477,6925
1741.737948,7573,7147
1740.849505,7589,7007
1739.960911,7518,7008
1739.072167,7428,6982
1738.183272,7491,7018
1737.294227,7436,6885
1736.405031,7483,6936
1735.515683,7512,7020
1734.626185,7536,7048
1733.736537,7521,7033
1732.846737,7454,7012
1731.956786,7416,7121
1731.066685,7522,7028
1730.176432,7547,7116
1729.286029,7532,6963
1728.395474,7544,7021
1727.504768,7521,7038
1726.613912,7519,7066
1725.722904,7493,7049
1724.831745,7393,7073
1723.940434,7483,6955
1723.048973,7519,7005
1722.15736,7475,7071
1721.265595,7563,7044
1720.37368,7550,6995
1719.481613,7532,7034
1718.589395,7485,6973
1717.697025,7486,6997
1716.804504,7572,7103
1715.911831,7505,7147
1715.019006,7550,7170
1714.12603,7542,7143
1713.232903,7543,7118
1712.339624,7440,7085
1711.446193,7448,7078
1710.55261,7603,7080
1709.658876,7518,7188
1708.76499,7479,7113
1707.870952,7634,7077
1706.976762,7645,7135
1706.08242,7494,7158
1705.187927,7656,7083
1704.293281,7678,7181
1703.398484,7553,7129
1702.503534,7681,7099
1701.608433,7619,7078
1700.713179,7446,7107
1699.817773,7608,7293
1698.922216,7597,7164
1698.026505,7603,7193
1697.130643,7611,7167
1696.234629,7568,7132
1695.338462,7684,7089
1694.442143,7701,7087
1693.545671,7649,7196
1692.649047,7680,7151
1691.752271,7692,7097
1690.855342,7646,7056
1689.958261,7646,7215
1689.061027,7674,7171
1688.163641,7720,7185
1687.266102,7664,7315
1686.368411,7609,7252
1685.470567,7617,7263
1684.57257,7640,7105
1683.67442,7636,7213
1682.776118,7696,7256
1681.877663,7734,7187
1680.979055,7742,7175
1680.080294,7761,7154
1679.181381,7796,7154
1678.282314,7727,7208
1677.383095,7824,7275
1676.483722,7709,7216
1675.584197,7762,7295
1674.684518,7627,7272
1673.784687,7875,7263
1672.884702,7710,7216
1671.984564,7773,7350
1671.084273,7804,7260
1670.183829,7841,7385
1669.283231,7819,7318
1668.382481,7919,7268
1667.481576,7799,7308
1666.580519,7694,7304
1665.679308,7804,7295
1664.777944,7886,7370
1663.876426,7985,7338
1662.974755,7833,7370
1662.07293,7757,7233
1661.170952,7812,7382
1660.26882,7872,7328
1659.366534,7893,7318
1658.464095,7854,7384
1657.561502,7886,7379
1656.658755,7950,7358
1655.755855,7851,7343
1654.852801,7819,7304
1653.949593,7899,7288
1653.046231,7832,7286
1652.142715,7960,7432
1651.239045,7861,7428
1650.335222,7930,7476
1649.431244,7932,7496
1648.527112,7871,7425
1647.622827,7875,7499
1646.718387,7980,7458
1645.813793,7978,7547
1644.909045,8026,7407
1644.004142,7931,7468
1643.099086,8024,7594
1642.193875,7956,7482
1641.28851,7996,7535
1640.38299,8031,7609
1639.477316,8143,7526
1638.571488,8064,7631
1637.665505,8106,7585
1636.759368,8087,7534
1635.853076,8127,7657
1634.94663,8273,7721
1634.040029,8150,7721
1633.133274,8168,7791
1632.226364,8202,7694
1631.319299,8265,7725
1630.412079,8269,7838
1629.504705,8370,7810
1628.597176,8391,7854
1627.689492,8528,7833
1626.781654,8457,7942
1625.87366,8482,7883
1624.965512,8448,8025
1624.057208,8503,8068
1623.14875,8711,8093
1622.240136,8710,8133
1621.331368,8687,8305
1620.422444,8706,8122
1619.513366,8793,8273
1618.604132,8790,8353
1617.694743,8922,8319
1616.785198,8835,8307
1615.875499,8962,8338
1614.965644,8963,8455
1614.055634,8951,8411
1613.145468,8933,8381
1612.235147,9082,8328
1611.324671,9026,8598
1610.414039,9187,8499
1609.503252,9061,8498
1608.592309,9126,8509
1607.681211,8943,8718
1606.769957,9197,8606
1605.858547,9161,8622
1604.946982,9258,8668
1604.035261,9228,8721
1603.123384,9245,8554
1602.211351,9295,8648
1601.299163,9246,8694
1600.386819,9278,8815
1599.474318,9306,8735
1598.561662,9350,8693
1597.64885,9422,8682
1596.735882,9239,8651
1595.822758,9457,8807
1594.909478,9450,8654
1593.996042,9463,8756
1593.08245,9411,8721
1592.168702,9548,8812
1591.254797,9310,8853
1590.340736,9570,8790
1589.426519,9581,8813
1588.512146,9702,8924
1587.597616,9624,8879
1586.68293,9845,8881
1585.768088,9659,8805
1584.853089,9666,8848
1583.937933,9742,8712
1583.022622,9765,8829
1582.107153,9785,8842
1581.191528,9816,8882
1580.275747,9900,8864
1579.359808,9862,8850
1578.443713,9934,8784
1577.527462,9805,8748
1576.611053,10057,8817
1575.694488,9934,8757
1574.777766,9977,8810
1573.860888,9938,8790
1572.943852,9942,8690
1572.026659,9907,8796
1571.10931,9829,8567
1570.191803,10034,8654
1569.27414,9828,8527
1568.356319,9628,8541
1567.438341,9662,8500
1566.520206,9498,8599
1565.601914,9504,8475
1564.683465,9408,8469
1563.764859,9391,8533
1562.846095,9345,8357
1561.927174,9301,8298
1561.008095,9135,8278
1560.08886,9111,8181
1559.169466,9042,8271
1558.249916,9073,8246
1557.330208,9000,8183
1556.410342,8966,8141
1555.490319,8814,8094
1554.570138,8810,8108
1553.6498,8777,8134
1552.729304,8921,8240
1551.80865,8878,8115
1550.887839,8720,8089
1549.96687,8703,7870
1549.045743,8728,7939
1548.124458,8644,8035
1547.203015,8656,8042
1546.281415,8537,7962
1545.359656,8619,7899
1544.43774,8508,7872
1543.515665,8546,7917
1542.593432,8558,7849
1541.671042,8495,7929
1540.748493,8544,7912
1539.825786,8416,7923
1538.902921,8487,7876
1537.979898,8393,7932
1537.056717,8390,7884
1536.133377,8413,7867
1535.209879,8446,7764
1534.286222,8381,7815
1533.362407,8330,7697
1532.438434,8436,7702
1531.514302,8396,7783
1530.590012,8314,7689
1529.665563,8380,7854
1528.740956,8338,7930
1527.81619,8301,7833
1526.891265,8305,7883
1525.966182,8427,7713
1525.04094,8424,7801
1524.115539,8292,7778
1523.18998,8386,7760
1522.264261,8363,7901
1521.338384,8336,7746
1520.412348,8288,7692
1519.486153,8304,7700
1518.559799,8317,7743
1517.633286,8272,7741
1516.706614,8306,7703
1515.779783,8230,7800
1514.852793,8234,7680
1513.925643,8179,7622
1512.998335,8226,7636
1512.070867,8269,7700
1511.14324,8150,7800
1510.215454,8240,7681
1509.287509,8231,7765
1508.359404,8262,7556
1507.43114,8210,7597
1506.502716,8231,7615
1505.574133,8200,7729
1504.64539,8259,7722
1503.716488,8267,7695
1502.787426,8271,7741
1501.858205,8224,7656
1500.928824,8262,7685
1499.999283,8352,7717
1499.069583,8249,7710
1498.139723,8204,7676
1497.209703,8228,7607
1496.279523,8057,7709
1495.349184,8262,7652
1494.418685,8249,7679
1493.488025,8233,7719
1492.557206,8247,7763
1491.626227,8190,7676
1490.695087,8199,7649
1489.763788,8191,7605
1488.832329,8324,7629
1487.900709,8208,7771
1486.968929,8125,7710
1486.036989,8324,7783
1485.104889,8206,7700
1484.172629,8321,7687
1483.240208,8310,7691
1482.307627,8399,7663
1481.374885,8354,7734
1480.441983,8218,7738
1479.508921,8323,7647
1478.575698,8328,7755
1477.642314,8423,7792
1476.70877,8395,7734
1475.775066,8405,7906
1474.8412,8340,7702
1473.907174,8459,7775
1472.972988,8473,7817
1472.03864,8484,7851
1471.104132,8539,7851
1470.169463,8748,7806
1469.234633,8624,7702
1468.299643,8598,7805
1467.364491,8473,7792
1466.429178,8424,7766
1465.493705,8498,7775
1464.55807,8488,7879
1463.622274,8655,7791
1462.686317,8386,7874
1461.7502,8460,7915
1460.81392,8449,7871
1459.87748,8612,7889
1458.940878,8518,7862
1458.004115,8604,7854
1457.067191,8575,7855
1456.130106,8552,7768
1455.192859,8681,7826
1454.25545,8695,7884
1453.31788,8632,7831
1452.380149,8848,7978
1451.442256,8720,8026
1450.504201,8857,7934
1449.565985,8814,7950
1448.627607,9076,8070
1447.689068,8991,8056
1446.750367,9183,8111
1445.811504,9276,8223
1444.872479,9300,8241
1443.933292,9425,8147
1442.993944,9387,8231
1442.054434,9551,8250
1441.114761,9512,8357
1440.174927,9804,8329
1439.234931,9808,8294
1438.294772,9833,8277
1437.354452,9891,8333
1436.413969,10071,8394
1435.473325,10037,8430
1434.532518,10096,8410
1433.591549,10143,8364
1432.650417,10324,8291
1431.709123,10233,8358
1430.767667,10114,8374
1429.826049,10325,8455
1428.884268,10122,8382
1427.942325,10103,8423
1427.000219,9860,8081
1426.057951,9741,8188
1425.11552,9873,8217
1424.172926,9672,8256
1423.23017,9779,8276
1422.287251,9673,8181
1421.34417,9507,8109
1420.400926,9529,8014
1419.457519,9343,8025
1418.513949,9344,7960
1417.570216,9152,7843
1416.62632,9162,7993
1415.682262,8993,7857
1414.73804,8927,7802
1413.793656,8885,7882
1412.849108,8827,7876
1411.904398,8779,7881
1410.959524,8756,7958
1410.014487,8669,7909
1409.069287,8759,7817
1408.123924,8605,7897
1407.178397,8768,7946
1406.232708,8743,7869
1405.286855,8658,7955
1404.340838,8818,7925
1403.394658,8768,7952
1402.448315,8764,7981
1401.501808,8741,7998
1400.555137,8794,8007
1399.608304,8952,8023
1398.661306,9060,7995
1397.714145,9187,8007
1396.76682,8999,8059
1395.819332,9351,8018
1394.871679,9366,8138
1393.923863,9606,8285
1392.975883,9615,8256
1392.02774,9786,8478
1391.079432,9772,8349
1390.130961,9899,8467
1389.182325,10021,8462
1388.233526,10194,8495
1387.284562,10182,8528
1386.335435,10061,8534
1385.386143,10164,8547
1384.436687,10124,8524
1383.487067,10086,8543
1382.537283,10046,8498
1381.587335,9974,8580
1380.637222,10060,8491
1379.686945,9884,8432
1378.736503,9957,8471
1377.785897,9868,8394
1376.835127,9898,8521
1375.884192,9973,8296
1374.933093,9853,8472
1373.981829,9847,8446
1373.030401,9802,8383
1372.078808,9827,8500
1371.12705,9804,8511
1370.175127,9856,8560
1369.22304,9856,8525
1368.270788,9676,8537
1367.318371,9766,8517
1366.36579,9659,8436
1365.413043,9725,8528
1364.460132,9898,8588
1363.507055,9832,8625
1362.553814,9871,8535
1361.600408,9671,8510
1360.646836,9737,8540
1359.693099,9927,8720
1358.739198,9829,8570
1357.785131,9726,8610
1356.830898,9672,8687
1355.876501,9732,8524
1354.921938,9508,8781
1353.96721,9782,8610
1353.012316,9665,8673
1352.057258,9674,8684
1351.102033,9570,8617
1350.146643,9662,8573
1349.191088,9531,8690
1348.235367,9688,8766
1347.279481,9602,8750
1346.323428,9594,8715
1345.36721,9491,8636
1344.410827,9534,8540
1343.454278,9705,8595
1342.497562,9688,8725
1341.540682,9567,8851
1340.583635,9604,8750
1339.626422,9643,8826
1338.669043,9551,8900
1337.711499,9526,8776
1336.753788,9613,8685
1335.795912,9635,8801
1334.837869,9652,8814
1333.87966,9611,8920
1332.921285,9530,8629
1331.962744,9607,8741
1331.004036,9584,8852
1330.045162,9628,8832
1329.086122,9597,8933
1328.126916,9577,8914
1327.167543,9578,8727
1326.208004,9514,8715
1325.248298,9657,8874
1324.288426,9565,8779
1323.328387,9601,8731
1322.368181,9526,8711
1321.407809,9620,8813
1320.447271,9500,8750
1319.486565,9557,8738
1318.525693,9629,8695
1317.564654,9506,8762
1316.603449,9549,8829
1315.642076,9552,8760
1314.680537,9584,8634
1313.718831,9533,8729
1312.756957,9535,8635
1311.794917,9656,8811
1310.83271,9588,8775
1309.870335,9532,8727
1308.907794,9585,8538
1307.945085,9448,8666
1306.982209,9522,8780
1306.019166,9645,8737
1305.055956,9510,8784
1304.092578,9437,8706
1303.129034,9515,8558
1302.165321,9509,8667
1301.201441,9469,8603
1300.237394,9509,8686
1299.27318,9524,8578
1298.308797,9342,8541
1297.344247,9292,8577
1296.37953,9283,8447
1295.414645,9264,8508
1294.449592,9155,8447
1293.484372,9151,8448
1292.518984,9114,8435
1291.553428,9186,8410
1290.587704,9008,8359
1289.621812,9133,8337
1288.655752,9081,8364
1287.689525,9087,8410
1286.723129,8995,8338
1285.756566,9006,8243
1284.789834,9043,8122
1283.822934,9050,8307
1282.855866,9059,8287
1281.88863,9009,8268
1280.921226,8954,8182
1279.953653,8778,8174
1278.985912,8905,8098
1278.018003,8908,8216
1277.049926,8936,8361
1276.08168,8850,8157
1275.113265,8807,8105
1274.144682,8916,8127
1273.175931,8772,8121
1272.207011,8759,8079
1271.237922,8823,8107
1270.268665,8704,8162
1269.299239,8672,7881
1268.329644,8528,7900
1267.359881,8622,7990
1266.389948,8607,8025
1265.419847,8661,7984
1264.449577,8685,7995
1263.479139,8609,7994
1262.508531,8460,7889
1261.537754,8470,7727
1260.566808,8525,7862
1259.595693,8596,8010
1258.624409,8638,7882
1257.652956,8636,7933
1256.681334,8462,7898
1255.709542,8459,7835
1254.737582,8545,7680
1253.765451,8476,7832
1252.793152,8418,7771
1251.820683,8384,7860
1250.848045,8437,7768
1249.875237,8378,7604
1248.90226,8442,7726
1247.929113,8486,7775
1246.955797,8367,7665
1245.982311,8401,7697
1245.008656,8328,7612
1244.034831,8235,7608
1243.060836,8254,7653
1242.086671,8376,7764
1241.112336,8212,7697
1240.137832,8271,7770
1239.163158,8195,7583
1238.188314,8242,7554
1237.2133,8248,7665
1236.238115,8125,7557
1235.262761,8259,7548
1234.287237,8266,7674
1233.311543,8181,7603
1232.335678,8184,7433
1231.359644,8064,7617
1230.383439,8227,7419
1229.407064,8166,7591
1228.430518,8142,7548
1227.453802,8234,7506
1226.476916,8135,7465
1225.499859,8020,7416
1224.522632,8218,7436
1223.545235,8205,7392
1222.567667,8101,7374
1221.589928,8105,7341
1220.612018,8026,7336
1219.633938,8059,7418
1218.655688,8033,7435
1217.677266,8135,7455
1216.698674,8032,7449
1215.719911,7922,7439
1214.740977,8091,7427
1213.761872,8090,7305
1212.782596,8059,7388
1211.80315,8044,7349
1210.823532,8024,7395
1209.843743,7955,7341
1208.863783,7926,7225
1207.883652,7975,7327
1206.90335,7993,7312
1205.922877,8065,7307
1204.942232,8018,7324
1203.961416,8056,7359
1202.980429,8180,7379
1201.99927,8052,7256
1201.01794,8121,7411
1200.036439,8034,7334
1199.054766,8092,7345
1198.072921,8038,7310
1197.090905,8082,7251
1196.108718,8115,7258
1195.126358,8188,7387
1194.143827,8207,7288
1193.161125,8175,7307
1192.17825,8190.420482,7320.849877
1191.195204,8205.84366,7334.702176
1190.211986,8221.269533,7348.556895
1189.228596,8236.698103,7362.414037
1188.245034,8252.129371,7376.273602
1187.2613,8267.563336,7390.135589
1186.277394,8283,7404
1185.293316,8210,7472
1184.309066,8232,7468
1183.324644,8392,7440
1182.34005,8246,7351
1181.355283,8212,7394
1180.370345,8027,7371
1179.385234,8116,7366
1178.399951,8045,7353
1177.414495,7955,7334
1176.428867,7986,7305
1175.443066,7987,7385
1174.457093,7854,7338
1173.470948,7858,7202
1172.48463,8026,7263
1171.498139,7912,7321
1170.511476,7955,7238
1169.52464,7881,7264
1168.537632,7816,7183
1167.55045,7939,7234
1166.563096,7925,7285
1165.575569,8036,7227
1164.587869,7849,7261
1163.599996,7883,7228
1162.611951,7971,7298
1161.623732,7972,7211
1160.63534,8012,7222
1159.646775,8144,7207
1158.658037,8138,7190
1157.669126,8033,7158
1156.680042,8150,7290
1155.690785,8198,7166
1154.701354,8297,7239
1153.71175,8210,7233
1152.721972,8450,7323
1151.732021,8561,7258
1150.741897,8528,7266
1149.751599,8471,7344
1148.761128,8725,7420
1147.770483,8839,7402
1146.779665,8906,7473
1145.788673,8837,7525
1144.797507,9040,7599
1143.806168,9103,7587
1142.814655,9252,7769
1141.822968,9329,7674
1140.831107,9528,7798
1139.839072,9259,7717
1138.846864,9369,7684
1137.854481,9500,7721
1136.861924,9329,7728
1135.869194,9270,7776
1134.876289,9053,7670
1133.883211,9119,7674
1132.889958,8950,7478
1131.896531,8897,7477
1130.902929,8720,7502
1129.909154,8710,7293
1128.915204,8511,7324
1127.921079,8262,7264
1126.926781,8185,7280
1125.932308,8105,7267
1124.93766,8106,7139
1123.942838,8054,7154
1122.947841,7962,7224
1121.95267,8008,7174
1120.957324,7879,7103
1119.961804,7833,7177
1118.966108,7942,7187
1117.970238,7888,7099
1116.974193,7791,7062
1115.977974,7764,7082
1114.981579,7700,7026
1113.98501,7821,7101
1112.988265,7712,7063
1111.991346,7786,7104
1110.994251,7728,7053
1109.996982,7805,7032
1108.999537,7734,6933
1108.001917,7646,7094
1107.004122,7702,7060
1106.006152,7603,7077
1105.008006,7692,7020
1104.009685,7627,7078
1103.011189,7630,7009
1102.012517,7587,7031
1101.01367,7644,7027
1100.014648,7709,6998
1099.015449,7626,7022
1098.016076,7683,6988
1097.016526,7730,7107
1096.016801,7619,7034
1095.016901,7604,7145
1094.016824,7751,7087
1093.016572,7662,7018
1092.016144,7672,7125
1091.01554,7770,7001
1090.01476,7751,7205
1089.013805,7648,7049
1088.012673,7787,7092
1087.011365,7745,7069
1086.009882,7752,7059
1085.008222,7761,7029
1084.006386,7960,7029
1083.004374,7998,7160
1082.002185,7989,7045
1080.99982,8100,7105
1079.99728,8179,7199
1078.994562,8252,7231
1077.991668,8430,7319
1076.988598,8557,7300
1075.985352,8596,7364
1074.981929,8483,7357
1073.978329,8603,7313
1072.974553,8670,7377
1071.9706,8710,7316
1070.96647,8663,7408
1069.962164,8580,7435
1068.957681,8672,7300
1067.953021,8385,7343
1066.948184,8377,7322
1065.943171,8297,7253
1064.93798,8260,7183
1063.932613,8183,7119
1062.927068,7994,7008
1061.921347,7869,7067
1060.915448,7915,7053
1059.909373,7887,7094
1058.90312,7778,7016
1057.89669,7791,6992
1056.890082,7645,6917
1055.883298,7508,7012
1054.876336,7601,6888
1053.869197,7530,6870
1052.86188,7564,6860
1051.854386,7569,6779
1050.846714,7477,6808
1049.838865,7488,6859
1048.830838,7429,6792
1047.822633,7446,6891
1046.814251,7419,6857
1045.805692,7443,6749
1044.796954,7390,6815
1043.788039,7407,6805
1042.778945,7405,6772
1041.769674,7424,6815
1040.760225,7291,6654
1039.750599,7371,6754
1038.740794,7294,6770
1037.730811,7371,6773
1036.72065,7276,6745
1035.710311,7352,6791
1034.699793,7305,6693
1033.689098,7325,6669
1032.678224,7257,6671
1031.667172,7325,6695
1030.655942,7394,6847
1029.644533,7331,6711
1028.632946,7405,6708
1027.62118,7259,6684
1026.609236,7159,6655
1025.597114,7328,6741
1024.584812,7238,6748
1023.572333,7346,6720
1022.559674,7230,6725
1021.546837,7233,6614
1020.533821,7256,6816
1019.520626,7222,6745
1018.507253,7318,6642
1017.4937,7203,6719
1016.479969,7179,6662
1015.466059,7233,6782
1014.45197,7335,6731
1013.437701,7207,6755
1012.423254,7306,6681
1011.408627,7320,6730
1010.393822,7235,6667
1009.378837,7214,6685
1008.363673,7296,6720
1007.348329,7238,6733
1006.332807,7335,6795
1005.317105,7419,6778
1004.301223,7345,6717
1003.285162,7301,6715
1002.268922,7450,6728
1001.252502,7393,6699
1000.235902,7494,6714
999.219123,7258,6705
998.2021641,7255,6778
997.1850256,7248,6628
996.1677073,7308,6682
995.1502092,7208,6726
994.1325312,7207,6763
993.1146734,7319,6632
992.0966357,7188,6744
991.078418,7204,6616
990.0600203,7322,6727
989.0414426,7261,6666
988.0226847,7257,6793
987.0037468,7146,6566
985.9846287,7172,6658
984.9653303,7251,6713
983.9458517,7255,6763
982.9261929,7234,6573
981.9063536,7239,6736
980.886334,7224,6664
979.866134,7140,6784
978.8457535,7168,6647
977.8251925,7166.600495,6566
976.804451,7165.200743,6659
975.7835288,7163.800743,6572
974.762426,7162.400495,6694
973.7411426,7161,6568
972.7196784,7167,6591
971.6980335,7262,6700
970.6762077,7134,6720
969.6542011,7088,6654
968.6320137,7188,6630
967.6096453,7131,6463
966.5870959,7135,6539
965.5643655,7185,6592
964.541454,7015,6465
963.5183615,7129,6571
962.4950878,7131,6585
961.4716329,7065,6483
960.4479967,7059,6569
959.4241793,7152,6565
958.4001806,7028,6565
957.3760006,7034,6523
956.3516391,7149,6473
955.3270962,7093,6553
954.3023718,6981,6603
953.2774659,6984,6491
952.2523784,7040,6452
951.2271093,7080,6559
950.2016586,7053,6417
949.1760261,7060,6600
948.1502119,7070,6513
947.124216,6954,6492
946.0980382,7086,6470
945.0716785,7029,6431
944.0451369,7066,6501
943.0184134,7101,6589
941.9915079,6998,6559
940.9644203,6958,6433
939.9371506,7026,6528
938.9096989,6993,6491
937.8820649,6886,6555
936.8542488,6984,6539
935.8262504,7001,6431
934.7980697,6953,6431
933.7697066,6891,6428
932.7411612,7031,6567
931.7124333,7010,6477
930.683523,7094,6461
929.6544302,7046,6587
928.6251548,7031,6461
927.5956968,6969,6471
926.5660562,7019,6476
925.5362329,7084,6486
924.5062269,7123,6532
923.4760381,6966,6498
922.4456665,7070,6472
921.415112,6901,6514
920.3843747,7056,6463
919.3534543,7054,6522
918.3223511,7040,6550
917.2910647,7059,6471
916.2595954,6972,6503
915.2279429,7044,6570
914.1961072,7131,6543
913.1640883,7032,6571
912.1318863,6932,6538
911.0995009,7010,6458
910.0669322,6986,6490
909.0341801,6984,6536
908.0012446,6955,6562
906.9681256,6940,6413
905.9348231,7042,6435
904.9013371,7025,6472
903.8676675,6943,6502
902.8338143,7033,6553
901.7997774,7080,6539
900.7655568,6998,6366
899.7311524,6926,6497
898.6965642,7075,6451
897.6617922,7019,6426
896.6268362,7036,6485
895.5916964,6938,6355
894.5563725,6958,6502
893.5208646,6982,6491
892.4851727,6951,6491
891.4492967,6957,6468
890.4132365,7089,6544
889.3769921,6976,6396
888.3405634,6972,6424
887.3039505,6999,6392
886.2671533,6934,6466
885.2301717,7011,6535
884.1930056,6978,6473
883.1556551,6985,6424
882.1181201,6963,6346
881.0804006,6900,6454
880.0424965,6925,6492
879.0044077,6914,6461
877.9661343,6904,6487
876.9276762,6915,6352
875.8890333,6970,6388
874.8502055,6905,6396
873.811193,6773,6450
872.7719955,6825,6366
871.7326131,6821,6347
870.6930457,6858,6365
869.6532933,6936,6384
868.6133559,6896,6318
867.5732333,6805,6316
866.5329255,6844,6303
865.4924326,6861,6275
864.4517544,6767,6334
863.4108909,6772,6342
862.3698421,6880,6317
861.3286079,6837,6306
860.2871883,6861,6333
859.2455833,6855,6351
858.2037927,6855,6331
857.1618166,6849,6235
856.1196549,6786,6278
855.0773075,6788,6306
854.0347745,6702,6326
852.9920557,6894,6368
851.9491512,6906,6356
850.9060608,6685,6193
849.8627846,6791,6261
848.8193225,6766,6362
847.7756744,6817,6359
846.7318404,6754,6235
845.6878203,6750,6332
844.6436141,6825,6288
843.5992218,6837,6376
842.5546433,6812,6293
841.5098787,6709,6318
840.4649277,6811,6286
839.4197905,6820,6343
838.3744669,6866,6300
837.328957,6874,6344
836.2832606,6887,6424
835.2373777,6779,6401
834.1913083,6774,6321
833.1450524,6773.333631,6391
832.0986098,6772.667142,6372
831.0519806,6772.000535,6315
830.0051647,6771.333809,6278
828.958162,6770.666964,6204
827.9109725,6770,6377
826.8635963,6944,6326
825.8160331,6888,6389
824.768283,6850,6281
823.720346,6772,6270
822.6722219,6781,6325
821.6239108,6747,6296
820.5754126,6944,6333
819.5267273,6845,6365
818.4778548,6854,6345
817.428795,6855,6350
816.379548,6840,6353
815.3301136,6735,6427
814.2804919,6833,6305
813.2306828,6861,6443
812.1806862,6817,6320
811.1305021,6803,6217
810.0801305,6783,6252
809.0295713,6930,6233
807.9788245,6764,6305
806.9278899,6790,6291
805.8767677,6757,6215
804.8254577,6625,6157
803.7739599,6723,6197
802.7222742,6780,6286
801.6704006,6789,6312
800.6183391,6729,6320
799.5660896,6792,6213
798.5136521,6667,6261
797.4610265,6824,6266
796.4082127,6678,6252
795.3552108,6770,6277
794.3020207,6753,6261
793.2486423,6776,6221
792.1950757,6763,6337
791.1413206,6635,6267
790.0873772,6754,6248
789.0332454,6661,6277
787.978925,6761,6166
786.9244161,6710,6217
785.8697187,6623,6261
784.8148327,6676,6162
783.7597579,6691,6207
782.7044945,6678,6106
781.6490423,6751,6093
780.5934014,6583,6203
779.5375716,6763,6241
778.4815529,6670,6247
777.4253452,6600,6140
776.3689486,6630,6070
775.312363,6692,6179
774.2555883,6733,6117
773.1986245,6748,6246
772.1414715,6589,6228
771.0841294,6646,6183
770.0265979,6572,6148
768.9688772,6601,6146
767.9109672,6665,6172
766.8528678,6535,6210
765.7945789,6777,6194
764.7361006,6622,6159
763.6774327,6727,6112
762.6185753,6688,6125
761.5595283,6608,6236
760.5002916,6660,6210
759.4408653,6627,6205
758.3812492,6716,6126
757.3214432,6565,6151
756.2614475,6607,6243
755.2012619,6629,6149
754.1408863,6673,6167
753.0803208,6658,6125
752.0195653,6641,6097
750.9586197,6672,6224
749.897484,6700,6196
748.8361581,6652,6207
747.7746421,6726,6162
746.7129358,6692,6146
745.6510392,6601,6287
744.5889522,6614,6198
743.5266749,6788,6192
742.4642072,6670,6219
741.401549,6635,6180
740.3387003,6697,6249
739.275661,6648,6174
738.2124311,6627,6208
737.1490106,6734,6126
736.0853993,6695,6229
735.0215973,6631,6105
733.9576046,6590,6220
732.893421,6657,6177
731.8290465,6598,6292
730.764481,6631,6115
729.6997246,6590,6143
728.6347772,6593,6117
727.5696387,6698,6145
726.5043092,6700,6261
725.4387884,6603,6094
724.3730765,6676,6115
723.3071733,6591,6132
722.2410788,6605,6125
721.1747929,6726,6054
720.1083157,6664,6054
719.0416471,6696,6166
717.974787,6608,6093
716.9077353,6697,6112
715.8404921,6635,6060
714.7730573,6617,6092
713.7054308,6641,6059
712.6376126,6630,6050
711.5696026,6512,6045
710.5014009,6673,6088
709.4330073,6540,5982
708.3644218,6632,6128
707.2956444,6580,6094
706.226675,6554,6061
705.1575136,6527,5981
704.0881601,6441,6010
703.0186145,6548,6034
701.9488767,6540,6031
700.8789467,6518,6025
699.8088244,6551,6058
698.7385099,6536,5982
697.6680029,6493,6023
696.5973036,6513,6016
695.5264119,6535,5966
694.4553276,6425,5999
693.3840508,6416,5978
692.3125815,6491,6021
691.2409195,6497,5849
690.1690648,6487,6049
689.0970174,6480,5977
688.0247773,6530,5994
686.9523443,6495,6037
685.8797185,6439,6125
684.8068997,6465,6041
683.7338881,6460,6062
682.6606834,6428,5940
681.5872856,6399,5999
680.5136948,6358,5975
679.4399109,6393,6033
678.3659337,6524,5942
677.2917633,6410,5948
676.2173997,6409,5978
675.1428427,6483,5996
674.0680924,6480,5998
672.9931486,6430,5992
671.9180114,6530,5999
670.8426806,6425,5968
669.7671563,6503,6003
668.6914384,6593,5974
667.6155269,6546,5993
666.5394216,6499,6102
665.4631227,6557,6016
664.3866299,6513,6021
663.3099433,6409,5974
662.2330628,6650,5987
661.1559884,6548,6011
660.07872,6554,5986
659.0012575,6369,5948
657.923601,6530,6003
656.8457504,6540,6033
655.7677057,6474,5963
654.6894667,6435,5989
653.6110335,6439,6057
652.5324059,6487,5902
651.453584,6472,6078
650.3745677,6476,6014
649.295357,6551,5926
648.2159518,6474,6004
647.136352,6508,5991
646.0565577,6349,5981
644.9765687,6561,5972
643.8963851,6484,5982
642.8160067,6464,6032
641.7354335,6455,5970
640.6546656,6487,5908
639.5737027,6480,5846
638.492545,6497,5976
637.4111923,6422,6004
636.3296446,6392,5977
635.2479018,6380,6004
634.1659639,6465,5931
633.0838309,6437,5967
632.0015027,6468,5902
630.9189792,6420,5966
629.8362605,6279,5903
628.7533464,6532,5801
627.6702369,6502,5890
626.586932,6463,5828
625.5034317,6418,5962
624.4197358,6419,5892
623.3358443,6282,5890
622.2517572,6363,5922
621.1674744,6364,5860
620.082996,6334,5926
618.9983217,6281,5884
617.9134517,6348,5921
616.8283858,6356,5846
615.743124,6259,5840
614.6576662,6276,5778
613.5720125,6356,5828
612.4861627,6393,5908
611.4001168,6274,5865
610.3138748,6244,5857
609.2274365,6365,5864
608.1408021,6283,5869
607.0539713,6340,5844
605.9669443,6241,5840
604.8797208,6357,5792
603.7923009,6340,5888
602.7046846,6306,5901
601.6168717,6445,5865
600.5288623,6349,5827
599.4406563,6468,5870
598.3522535,6305,5863
597.2636541,6471,5895
596.1748579,6335,5820
595.085865,6319,5799
593.9966751,6299,5841
592.9072884,6307,5851
591.8177047,6351,5836
590.727924,6281,5840
589.6379463,6271,5833
588.5477715,6335,5840
587.4573995,6322,5863
586.3668304,6358,5797
585.276064,6285,5878
584.1851003,6277,5803
583.0939393,6255,5740
582.0025809,6225,5828
580.9110251,6293,5791
579.8192719,6258,5762
578.7273211,6269,5855
577.6351727,6293,5824
576.5428267,6272,5829
575.4502831,6256,5788
574.3575417,6311,5786
573.2646026,6342,5766
572.1714656,6251,5751
571.0781308,6248,5708
569.9845981,6158,5774
568.8908675,6300,5799
567.7969388,6163,5727
566.7028121,6310,5744
565.6084873,6269,5720
564.5139644,6101,5692
563.4192432,6253,5704
562.3243239,6280,5693
561.2292062,6154,5638
560.1338902,6244,5643
559.0383758,6201,5746
557.942663,6140,5662
556.8467516,6183,5735
555.7506418,6117,5748
554.6543334,6068,5731
553.5578263,6111,5589
552.4611206,6184,5674
551.3642162,6152,5602
550.2671129,6075,5733
549.1698109,6137,5586
548.07231,6090,5689
546.9746102,6146,5619
545.8767114,6100,5624
544.7786136,6176,5705
543.6803167,6163,5709
542.5818207,6225,5659
541.4831256,6146,5655
540.3842312,6172,5647
539.2851376,6174,5738
538.1858447,6160,5622
537.0863525,6120,5629
535.9866608,6135,5677
534.8867697,6166,5615
533.7866791,6201,5691
532.6863889,6109,5603
531.5858992,6138,5657
530.4852098,6101,5673
529.3843207,6097,5596
528.2832319,6089,5579
527.1819433,6119,5627
526.0804548,6114,5643
524.9787665,6117,5678
523.8768782,6038,5694
522.7747899,6136,5585
521.6725016,6138,5621
520.5700133,6139,5601
519.4673248,6141,5696
518.3644361,6150,5596
517.2613472,6107,5649
516.158058,6041,5681
515.0545684,6076,5562
513.9508786,6139,5648
512.8469882,6105,5652
511.7428975,6120,5578
510.6386062,6066,5637
509.5341143,6213,5610
508.4294218,5990,5666
507.3245286,6068,5604
506.2194347,6105,5581
505.1141401,6089,5646
504.0086446,6145,5635
502.9029483,6218,5656
501.7970511,6103,5622
500.6909529,6072,5636
499.5846537,6084,5553
498.4781534,5993,5649
497.3714521,6086,5520
496.2645495,6055,5522
495.1574458,6034,5563
494.0501408,6076,5549
492.9426345,6033,5535
491.8349268,6077,5551
490.7270178,6071,5599
489.6189073,6043,5531
488.5105953,6073,5514
487.4020817,6116,5565
486.2933665,6100,5553
485.1844497,6040,5686
484.0753312,5959,5555
482.966011,6058,5523
481.8564889,5953,5533
480.746765,5980,5509
479.6368392,6046,5482
478.5267115,5999,5427
477.4163818,6002,5442
476.30585,5941,5537
475.1951161,6111,5547
474.0841801,6068,5520
472.9730419,6009,5499
471.8617014,5816,5495
470.7501587,5974,5448
469.6384136,5989,5479
468.5264662,6027,5470
467.4143163,5896,5437
466.3019639,6001,5478
465.1894089,5942,5586
464.0766514,5992,5576
462.9636912,6042,5542
461.8505284,5969,5502
460.7371628,5902,5466
459.6235944,5931,5482
458.5098232,5985,5548
457.3958491,5954,5496
456.2816721,5981,5493
455.1672921,6008,5516
454.0527091,5992,5437
452.9379229,6020,5440
451.8229337,5956,5452
450.7077412,6057,5534
449.5923455,5930,5567
448.4767466,5947,5441
447.3609443,5926,5470
446.2449386,5870,5480
445.1287295,5916,5527
444.0123169,5959,5475
442.8957007,5882,5424
441.778881,5969,5313
440.6618577,5880,5523
439.5446307,5884,5532
438.4271999,5975,5461
437.3095654,5886,5447
436.191727,5939,5440
435.0736847,5933,5395
433.9554385,5798,5484
432.8369884,5960,5430
431.7183342,5860,5512
430.5994759,5917,5391
429.4804135,5838,5391
428.3611469,5897,5373
427.241676,5825,5452
426.1220009,5873,5487
425.0021215,5864,5297
423.8820376,5762,5361
422.7617494,5745,5368
421.6412566,5766,5368
420.5205593,5771,5296
419.3996575,5877,5317
418.278551,5893,5298
417.1572398,5792,5295
416.0357239,5761,5368
414.9140032,5986,5312
413.7920776,5759,5333
412.6699472,5694,5335
411.5476118,5775,5321
410.4250715,5748,5368
409.3023261,5813,5300
408.1793756,5741,5326
407.05622,5807,5354
405.9328592,5772,5330
404.8092932,5834,5257
403.6855219,5738,5430
402.5615452,5838,5269
401.4373632,5759,5313
400.3129757,5740,5306
399.1883827,5747,5263
398.0635842,5742,5341
396.9385801,5729,5264
395.8133703,5802,5323
394.6879549,5775,5278
393.5623337,5773,5311
392.4365067,5727,5307
391.3104739,5847,5332
390.1842351,5700,5296
389.0577904,5760,5235
387.9311398,5755,5242
386.8042831,5827,5336
385.6772202,5697,5304
384.5499513,5767,5364
383.4224761,5733,5286
382.2947947,5821,5329
381.166907,5750,5297
380.0388129,5816,5267
378.9105124,5795,5262
377.7820055,5773,5357
376.6532921,5753,5302
375.5243721,5771,5261
374.3952455,5751,5288
373.2659122,5638,5283
372.1363723,5701,5201
371.0066255,5747,5213
369.876672,5746,5256
368.7465116,5683,5271
367.6161443,5677,5160
366.48557,5645,5221
365.3547887,5725,5185
364.2238004,5786,5103
363.0926049,5655,5231
361.9612023,5682,5297
360.8295924,5614,5205
359.6977753,5751,5150
358.5657509,5572,5166
357.4335191,5670,5185
356.3010798,5679,5197
355.1684331,5646,5198
354.0355789,5561,5151
352.902517,5626,5125
351.7692476,5582,5172
