#Wave,#Intensity2
2261.862186,6954
2261.060512,7016
2260.258706,6911
2259.456768,6860
2258.654698,6911
2257.852495,7025
2257.050161,6964
2256.247694,7009
2255.445094,6889
2254.642363,7064
2253.839499,6841
2253.036502,6951
2252.233374,6984
2251.430112,6924
2250.626719,6961
2249.823192,6972
2249.019534,6983
2248.215742,6924
2247.411818,6967
2246.607762,6995
2245.803573,6970
2244.999251,6963
2244.194796,7059
2243.390209,6908
2242.585489,6913
2241.780636,7014
2240.97565,7130
2240.170532,7100
2239.365281,7021
2238.559896,6907
2237.754379,7046
2236.948729,6951
2236.142946,6979
2235.33703,7021
2234.530981,7090
2233.724799,7009
2232.918484,7005
2232.112035,6934
2231.305454,6999
2230.498739,7045
2229.691891,7071
2228.88491,7141
2228.077796,7086
2227.270548,7069
2226.463167,7000
2225.655653,7045
2224.848005,7018
2224.040224,7068
2223.23231,7052
2222.424262,7069
2221.616081,7076
2220.807766,7053
2219.999318,7095
2219.190736,7101
2218.38202,7015
2217.573171,7109
2216.764188,7036
2215.955072,7126
2215.145822,7123
2214.336438,7027
2213.52692,7038
2212.717269,7126
2211.907484,7095
2211.097565,7054
2210.287512,7152
2209.477325,7020
2208.667005,7149
2207.85655,7090
2207.045961,7153
2206.235239,7110
2205.424382,7128
2204.613392,7121
2203.802267,7196
2202.991008,7110
2202.179615,7204
2201.368088,7169
2200.556426,7162
2199.744631,7145
2198.932701,7273
2198.120637,7012
2197.308438,7220
2196.496105,7079
2195.683638,7196
2194.871037,7169
2194.058301,7142
2193.24543,7126
2192.432425,7187
2191.619286,7193
2190.806012,7012
2189.992604,7053
2189.179061,7135
2188.365383,7115
2187.55157,7231
2186.737623,7215
2185.923542,7121
2185.109325,7134
2184.294974,7192
2183.480488,7162
2182.665867,7136
2181.851112,7266
2181.036221,7104
2180.221196,7175
2179.406035,7112
2178.59074,7126
2177.77531,6978
2176.959744,7167
2176.144044,7116
2175.328208,7186
2174.512238,7112
2173.696132,7089
2172.879892,7114
2172.063516,7120
2171.247004,7133
2170.430358,7106
2169.613576,7237
2168.796659,7157
2167.979607,7146
2167.162419,7033
2166.345096,7223
2165.527638,7189
2164.710044,7181
2163.892314,7265
2163.07445,7109
2162.256449,7076
2161.438313,7142
2160.620042,7271
2159.801635,7149
2158.983092,7189
2158.164414,7182
2157.345599,7166
2156.52665,7228
2155.707564,7096
2154.888343,7211
2154.068986,7104
2153.249493,7164
2152.429864,7175
2151.610099,7208
2150.790198,7229
2149.970162,7194
2149.149989,7158
2148.329681,7189
2147.509236,7152
2146.688655,7211
2145.867938,7237
2145.047086,7246
2144.226097,7181
2143.404971,7202
2142.58371,7147
2141.762312,7199
2140.940778,7214
2140.119108,7214
2139.297302,7275
2138.475359,7179
2137.653279,7229
2136.831064,7115
2136.008712,7121
2135.186223,7233
2134.363598,7360
2133.540837,7254
2132.717938,7299
2131.894904,7150
2131.071732,7368
2130.248425,7213
2129.42498,7253
2128.601399,7229
2127.777681,7269
2126.953826,7341
2126.129834,7235
2125.305706,7225
2124.481441,7290
2123.657039,7304
2122.8325,7244
2122.007824,7254
2121.183011,7213
2120.358061,7257
2119.532975,7293
2118.707751,7262
2117.88239,7259
2117.056892,7298
2116.231257,7200
2115.405484,7295
2114.579575,7278
2113.753528,7336
2112.927344,7342
2112.101023,7409
2111.274565,7240
2110.447969,7281
2109.621236,7427
2108.794365,7353
2107.967357,7326
2107.140212,7321
2106.312929,7331
2105.485509,7330
2104.657951,7343
2103.830255,7325
2103.002422,7307
2102.174452,7270
2101.346344,7257
2100.518098,7413
2099.689714,7392
2098.861193,7314
2098.032533,7317
2097.203736,7373
2096.374802,7356
2095.545729,7464
2094.716519,7283
2093.88717,7351
2093.057684,7446
2092.22806,7262
2091.398297,7429
2090.568397,7408
2089.738359,7408
2088.908182,7211
2088.077868,7310
2087.247415,7320
2086.416824,7340
2085.586095,7445
2084.755228,7361
2083.924222,7336
2083.093078,7370
2082.261796,7429
2081.430376,7454
2080.598817,7442
2079.76712,7329
2078.935284,7322
2078.10331,7448
2077.271197,7392
2076.438946,7384
2075.606556,7504
2074.774028,7226
2073.941361,7341
2073.108556,7300
2072.275612,7465
2071.442529,7394
2070.609307,7436
2069.775947,7441
2068.942448,7341
2068.10881,7331
2067.275033,7457
2066.441117,7464
2065.607063,7417
2064.772869,7441
2063.938537,7416
2063.104066,7449
2062.269455,7417
2061.434706,7293
2060.599817,7423
2059.764789,7576
2058.929623,7422
2058.094317,7474
2057.258872,7466
2056.423287,7491
2055.587564,7247
2054.751701,7522
2053.915698,7388
2053.079557,7515
2052.243276,7420
2051.406856,7391
2050.570296,7388
2049.733597,7421
2048.896758,7329
2048.05978,7399
2047.222662,7483
2046.385405,7495
2045.548008,7445
2044.710471,7406
2043.872795,7361
2043.034979,7479
2042.197023,7503
2041.358928,7447
2040.520692,7522
2039.682317,7420
2038.843802,7442
2038.005148,7436
2037.166353,7383
2036.327418,7443
2035.488344,7470
2034.649129,7362
2033.809775,7555
2032.97028,7442
2032.130646,7393
2031.290871,7343
2030.450956,7534
2029.610901,7419
2028.770705,7459
2027.93037,7585
2027.089894,7553
2026.249278,7430
2025.408521,7469
2024.567625,7441
2023.726588,7460
2022.88541,7482
2022.044092,7509
2021.202634,7621
2020.361035,7616
2019.519295,7300
2018.677415,7461
2017.835394,7549
2016.993233,7549
2016.150931,7422
2015.308489,7454
2014.465905,7350
2013.623181,7566
2012.780317,7501
2011.937311,7496
2011.094165,7494
2010.250877,7574
2009.407449,7595
2008.56388,7433
2007.72017,7539
2006.876319,7513
2006.032327,7580
2005.188194,7545
2004.34392,7627
2003.499505,7632
2002.654948,7568
2001.810251,7701
2000.965412,7563
2000.120432,7597
1999.275311,7546
1998.430049,7618
1997.584645,7612
1996.7391,7478
1995.893414,7538
1995.047586,7579
1994.201617,7653
1993.355506,7707
1992.509254,7732
1991.66286,7685
1990.816325,7578
1989.969648,7659
1989.122829,7671
1988.275869,7669
1987.428768,7737
1986.581524,7613
1985.734139,7777
1984.886612,7603
1984.038943,7647
1983.191133,7604
1982.34318,7657
1981.495086,7610
1980.64685,7729
1979.798472,7620
1978.949951,7641
1978.101289,7744
1977.252485,7691
1976.403539,7667
1975.554451,7648
1974.70522,7667
1973.855848,7583
1973.006333,7638
1972.156676,7743
1971.306877,7669
1970.456935,7809
1969.606851,7695
1968.756625,7789
1967.906257,7707
1967.055746,7622
1966.205093,7619
1965.354297,7650
1964.503359,7688
1963.652278,7722
1962.801054,7679
1961.949688,7677
1961.09818,7742
1960.246529,7663
1959.394735,7748
1958.542798,7820
1957.690719,7704
1956.838497,7885
1955.986132,7618
1955.133625,7688
1954.280974,7704
1953.428181,7780
1952.575244,7783
1951.722165,7723
1950.868943,7636
1950.015578,7648.991285
1949.162069,7661.984749
1948.308418,7674.98039
1947.454624,7687.978209
1946.600686,7700.978207
1945.746605,7713.980385
1944.892381,7726.984743
1944.038014,7739.991281
1943.183504,7753
1942.32885,7635
1941.474053,7732
1940.619113,7737
1939.764029,7802
1938.908802,7712
1938.053432,7818
1937.197918,7753
1936.34226,7852
1935.486459,7763
1934.630514,7789
1933.774426,7782
1932.918195,7814
1932.061819,7698
1931.2053,7809
1930.348637,7722
1929.49183,7770
1928.63488,7714
1927.777786,7634
1926.920548,7745
1926.063166,7741
1925.20564,7726
1924.347971,7800
1923.490157,7870
1922.632199,7753
1921.774098,7779
1920.915852,7800
1920.057462,7792
1919.198928,7830
1918.34025,7766
1917.481428,7795
1916.622461,7899
1915.763351,7765
1914.904096,7818
1914.044696,7684
1913.185153,7804
1912.325465,7820
1911.465633,7917
1910.605656,7819
1909.745535,7846
1908.885269,7778
1908.024859,7861
1907.164304,7866
1906.303605,7715
1905.442761,7943
1904.581772,7888
1903.720639,7834
1902.859361,7857
1901.997938,7813
1901.136371,7872
1900.274658,7856
1899.412801,7874
1898.550799,7916
1897.688652,7851
1896.826361,7802
1895.963924,7893
1895.101342,7802
1894.238615,7805
1893.375744,7833
1892.512727,7904
1891.649565,7930
1890.786258,7814
1889.922805,7920
1889.059208,8006
1888.195465,7889
1887.331577,7977
1886.467544,7990
1885.603365,7882
1884.739041,7889
1883.874572,7936
1883.009957,7989
1882.145197,8040
1881.280291,7918
1880.41524,7923
1879.550043,8019
1878.684701,8101
1877.819213,8014
1876.95358,8048
1876.0878,8023
1875.221875,7917
1874.355805,7891
1873.489588,7966
1872.623226,8029
1871.756718,7999
1870.890064,7951
1870.023264,8104
1869.156318,7871
1868.289226,8086
1867.421989,7856
1866.554605,7940
1865.687075,7908
1864.819399,8066
1863.951577,8052
1863.083609,7954
1862.215495,7966
1861.347234,7983
1860.478828,8033
1859.610275,7948
1858.741575,7989
1857.87273,8063
1857.003738,8036
1856.134599,8080
1855.265314,7965
1854.395883,7990
1853.526305,8081
1852.656581,8140
1851.78671,7967
1850.916692,7934
1850.046528,7963
1849.176218,7960
1848.30576,7921
1847.435156,7998
1846.564405,8134
1845.693508,8053
1844.822463,8021
1843.951272,8079
1843.079934,7966
1842.208448,8072
1841.336816,8041
1840.465037,8039
1839.593111,8033
1838.721038,7937
1837.848818,8112
1836.976451,7982
1836.103937,8058
1835.231275,7966
1834.358467,7908
1833.485511,8050
1832.612408,7925
1831.739157,7999
1830.86576,8085
1829.992215,8043
1829.118522,8026
1828.244682,7970
1827.370695,8027
1826.49656,7996
1825.622278,7946
1824.747848,8052
1823.87327,7999
1822.998545,7976
1822.123673,8016
1821.248652,7946
1820.373484,8032
1819.498169,7921
1818.622705,8097
1817.747094,8123
1816.871334,8133
1815.995427,8125
1815.119372,7953
1814.24317,7930
1813.366819,8022
1812.49032,7979
1811.613673,8049
1810.736878,8074
1809.859935,8036
1808.982844,8075
1808.105605,7989
1807.228218,8110
1806.350682,8093
1805.472998,8063
1804.595166,8111
1803.717185,8020
1802.839057,8049
1801.960779,8100
1801.082354,8064
1800.20378,8139
1799.325057,8162
1798.446186,8187
1797.567167,8132
1796.687999,8063
1795.808682,8030
1794.929216,8125
1794.049602,8223
1793.16984,8054
1792.289928,8192
1791.409868,8090
1790.529659,8125
1789.649301,8262
1788.768794,8185
1787.888139,8103
1787.007334,8061
1786.126381,8133
1785.245278,8255
1784.364027,8097
1783.482626,8204
1782.601077,8198
1781.719378,8185
1780.83753,8179
1779.955533,8218
1779.073387,8214
1778.191091,8215
1777.308646,8202
1776.426052,8172
1775.543308,8208
1774.660416,8324
1773.777373,8075
1772.894182,8156
1772.01084,8200
1771.12735,8233
1770.243709,8318
1769.359919,8231
1768.47598,8235
1767.591891,8240
1766.707652,8141
1765.823264,8326
1764.938725,8334
1764.054037,8365
1763.1692,8274
1762.284212,8245
1761.399075,8238
1760.513787,8188
1759.62835,8268
1758.742763,8402
1757.857025,8227
1756.971138,8292
1756.085101,8201
1755.198913,8205.997459
1754.312575,8210.995765
1753.426088,8215.994918
1752.53945,8220.994917
1751.652661,8225.995764
1750.765723,8230.997458
1749.878634,8236
1748.991395,8130
1748.104006,8288
1747.216466,8306
1746.328776,8189
1745.440935,8202
1744.552944,8308
1743.664802,8208
1742.77651,8338
1741.888067,8410
1740.999473,8184
1740.110729,8343
1739.221834,8368
1738.332789,8243
1737.443592,8308
1736.554245,8236
1735.664747,8398
1734.775098,8329
1733.885299,8178
1732.995348,8247
1732.105247,8176
1731.214994,8252
1730.32459,8229
1729.434036,8262
1728.54333,8339
1727.652473,8308
1726.761465,8239
1725.870306,8218
1724.978996,8436
1724.087534,8172
1723.195921,8288
1722.304157,8339
1721.412242,8347
1720.520175,8266
1719.627956,8181
1718.735586,8257
1717.843065,8243
1716.950392,8301
1716.057568,8339
1715.164592,8294
1714.271465,8234
1713.378185,8320
1712.484755,8222
1711.591172,8265
1710.697438,8215
1709.803551,8221
1708.909514,8333
1708.015324,8254
1707.120982,8320
1706.226489,8329
1705.331843,8358
1704.437046,8461
1703.542096,8427
1702.646994,8415
1701.751741,8309
1700.856335,8431
1699.960777,8405
1699.065067,8438
1698.169205,8417
1697.27319,8290
1696.377023,8370
1695.480704,8412
1694.584233,8551
1693.687609,8331
1692.790833,8425
1691.893904,8456
1690.996823,8414
1690.099589,8315
1689.202203,8439
1688.304664,8482
1687.406972,8385
1686.509128,8460
1685.611132,8376
1684.712982,8524
1683.81468,8634
1682.916225,8647
1682.017617,8362
1681.118856,8447
1680.219943,8603
1679.320876,8398
1678.421657,8489
1677.522284,8435
1676.622759,8586
1675.72308,8537
1674.823249,8622
1673.923264,8490
1673.023126,8469
1672.122835,8584
1671.222391,8730
1670.321793,8703
1669.421042,8538
1668.520138,8498
1667.619081,8644
1666.71787,8500
1665.816505,8513
1664.914988,8500
1664.013316,8553
1663.111492,8620
1662.209513,8548
1661.307381,8527
1660.405096,8533
1659.502657,8619
1658.600064,8516
1657.697317,8603
1656.794417,8676
1655.891362,8672
1654.988154,8478
1654.084793,8715
1653.181277,8696
1652.277607,8569
1651.373783,8577
1650.469806,8502
1649.565674,8573
1648.661388,8682
1647.756948,8590
1646.852354,8657
1645.947606,8554
1645.042704,8624
1644.137647,8631
1643.232436,8558
1642.327071,8620
1641.421552,8678
1640.515878,8557
1639.61005,8422
1638.704067,8489
1637.79793,8611
1636.891638,8538
1635.985192,8579
1635.078591,8529
1634.171835,8589
1633.264925,8613
1632.357861,8621
1631.450641,8558
1630.543267,8632
1629.635738,8583
1628.728054,8609
1627.820215,8650
1626.912222,8468
1626.004073,8627
1625.09577,8593
1624.187311,8543
1623.278698,8689
1622.36993,8584
1621.461006,8662
1620.551927,8611
1619.642693,8665
1618.733304,8587
1617.82376,8727
1616.914061,8593
1616.004206,8587
1615.094196,8655
1614.18403,8710
1613.273709,8696
1612.363233,8599
1611.452601,8666
1610.541814,8653
1609.630871,8568
1608.719772,8715
1607.808518,8650
1606.897109,8626
1605.985543,8705
1605.073822,8621
1604.161945,8638
1603.249913,8505
1602.337724,8682
1601.42538,8560
1600.51288,8746
1599.600224,8748
1598.687412,8758
1597.774444,8661
1596.86132,8732
1595.94804,8725
1595.034604,8694
1594.121012,8748
1593.207263,8772
1592.293359,8691
1591.379298,8831
1590.465081,8737
1589.550708,8726
1588.636178,8793
1587.721492,8733
1586.806649,8847
1585.89165,8827
1584.976495,8930
1584.061183,8883
1583.145715,9070
1582.23009,9012
1581.314308,9060
1580.39837,8998
1579.482275,8855
1578.566024,8930
1577.649615,9113
1576.73305,8916
1575.816328,8920
1574.899449,8862
1573.982414,8942
1573.065221,8923
1572.147871,9007
1571.230365,8903
1570.312701,8937
1569.394881,8929
1568.476903,8973
1567.558768,9032
1566.640476,8951
1565.722027,8844
1564.80342,9002
1563.884656,8927
1562.965735,8916
1562.046657,8932
1561.127421,8859
1560.208028,8954
1559.288477,8922
1558.368769,8909
1557.448904,8934
1556.528881,8869
1555.6087,8767
1554.688362,8958
1553.767866,8905
1552.847212,8887
1551.9264,8823
1551.005431,8763
1550.084304,8833
1549.163019,8780
1548.241577,8903
1547.319976,8893
1546.398218,8907
1545.476301,8802
1544.554227,8883
1543.631994,8925
1542.709604,8771
1541.787055,8835
1540.864348,8925
1539.941483,8767
1539.01846,8845
1538.095278,8859
1537.171938,8786
1536.24844,8847
1535.324784,8883
1534.400969,8900
1533.476996,8824
1532.552864,8826
1531.628574,8714
1530.704125,8966
1529.779517,8836
1528.854751,8960
1527.929827,8906
1527.004744,8851
1526.079502,8833
1525.154101,8900
1524.228541,8926
1523.302823,8920
1522.376946,8914
1521.45091,8760
1520.524715,8721
1519.598361,8939
1518.671848,8875
1517.745176,8734
1516.818345,8862
1515.891354,8900
1514.964205,8896
1514.036897,8791
1513.109429,8825
1512.181802,8691
1511.254016,8804
1510.32607,8714
1509.397965,8850
1508.469701,8778
1507.541278,8864
1506.612694,8843
1505.683952,8810
1504.75505,8738
1503.825988,8889
1502.896767,8689
1501.967386,8801
1501.037845,8857
1500.108145,8888
1499.178285,8949
1498.248265,8825
1497.318085,8833
1496.387746,8801
1495.457246,8964
1494.526587,8829
1493.595768,8839
1492.664788,8795
1491.733649,8844
1490.80235,8909
1489.87089,8916
1488.939271,8946
1488.007491,9000
1487.075551,8850
1486.143451,8983
1485.21119,8900
1484.278769,9061
1483.346188,8952
1482.413447,9110
1481.480545,8929
1480.547482,8969
1479.614259,8990
1478.680876,8999
1477.747332,9057
1476.813627,9085
1475.879762,8952
1474.945736,9100
1474.011549,8964
1473.077202,9011
1472.142694,9097
1471.208025,9033
1470.273195,9007
1469.338204,9080
1468.403053,9031
1467.46774,9019
1466.532266,9180
1465.596632,9053
1464.660836,9108
1463.724879,8893
1462.788761,9015
1461.852482,8978
1460.916042,9021
1459.97944,9164
1459.042677,9226
1458.105753,9156
1457.168667,9086
1456.23142,9068
1455.294012,9258
1454.356442,9061
1453.418711,9089
1452.480818,9137
1451.542763,9135
1450.604547,9115
1449.666169,9059
1448.72763,9215
1447.788928,9219
1446.850065,9267
1445.911041,9339
1444.971854,9252
1444.032506,9316
1443.092995,9302
1442.153323,9350
1441.213489,9443
1440.273492,9442
1439.333334,9518
1438.393014,9599
1437.452531,9583
1436.511886,9731
1435.571079,9812
1434.63011,9750
1433.688979,9689.042073
1432.747685,9628.073633
1431.806229,9567.094678
1430.864611,9506.105206
1429.92283,9445.105214
1428.980886,9384.094699
1428.038781,9323.073661
1427.096512,9262.042095
1426.154081,9201
1425.211488,9270
1424.268732,9137
1423.325813,9163
1422.382732,9187
1421.439487,9002
1420.49608,9022
1419.55251,9272
1418.608778,9059
1417.664882,9126
1416.720824,9113
1415.776602,9021
1414.832218,9009
1413.88767,9012
1412.94296,9082
1411.998086,8964
1411.053049,8991
1410.107849,9007
1409.162486,9050
1408.216959,9012
1407.271269,9009
1406.325416,9185
1405.3794,8987
1404.43322,9098
1403.486876,9091
1402.54037,9180
1401.593699,9062
1400.646865,9119
1399.699868,9172
1398.752707,9185
1397.805382,9217
1396.857893,9236
1395.910241,9413
1394.962425,9484
1394.014445,9499
1393.066301,9604
1392.117994,9491
1391.169522,9647
1390.220887,9722
1389.272088,9692
1388.323124,9542
1387.373996,9556
1386.424705,9484
1385.475249,9532
1384.525629,9451
1383.575845,9450
1382.625896,9326
1381.675784,9306
1380.725506,9271
1379.775065,9226
1378.824459,9279
1377.873689,9227
1376.922754,9212
1375.971655,9282
1375.020391,9187
1374.068962,9294
1373.117369,9357
1372.165612,9383
1371.213689,9289
1370.261602,9252
1369.30935,9188
1368.356933,9300
1367.404352,9010
1366.451605,9229
1365.498694,9371
1364.545617,9175
1363.592376,9255
1362.638969,9099
1361.685398,9211
1360.731661,9340
1359.777759,9235
1358.823692,9284
1357.86946,9276.437093
1356.915063,9268.872876
1355.9605,9261.307349
1355.005772,9253.740512
1354.050878,9246.172364
1353.095819,9238.602905
1352.140595,9231.032134
1351.185205,9223.460052
1350.22965,9215.886658
1349.273929,9208.311952
1348.318042,9200.735934
1347.36199,9193.158602
1346.405772,9185.579958
1345.449389,9178
1344.492839,9220
1343.536124,9036
1342.579243,9234
1341.622196,9246
1340.664984,9238
1339.707605,9277
1338.75006,9214
1337.79235,9188
1336.834473,9086
1335.87643,9121
1334.918222,9136
1333.959846,9229
1333.001305,9264
1332.042598,9040
1331.083724,9128
1330.124684,9070
1329.165477,9159
1328.206104,9151
1327.246565,9108
1326.286859,9075
1325.326987,9163
1324.366948,9030
1323.406743,9038
1322.446371,9014
1321.485832,9069
1320.525127,9067
1319.564255,8883
1318.603216,9067
1317.64201,9131
1316.680638,8988
1315.719099,9095
1314.757392,9111
1313.795519,9080
1312.833479,9140
1311.871271,9165
1310.908897,9087
1309.946356,8989
1308.983647,9071
1308.020771,9012
1307.057728,9103
1306.094518,9075
1305.13114,9048
1304.167595,9111
1303.203883,9016
1302.240003,9084
1301.275956,9053
1300.311741,9202
1299.347359,8994
1298.382809,8969
1297.418092,8967
1296.453207,9129
1295.488154,9088
1294.522934,9087
1293.557545,9068
1292.591989,9043
1291.626265,8994
1290.660374,9106
1289.694314,8978
1288.728086,9065
1287.761691,9090
1286.795127,8999
1285.828396,9027
1284.861496,9148
1283.894428,9091
1282.927192,9018
1281.959787,9010
1280.992215,9031
1280.024474,9122
1279.056565,9075
1278.088487,9097
1277.120241,9010
1276.151827,9118
1275.183244,8963
1274.214492,8905
1273.245572,8889
1272.276484,8971
1271.307226,8997
1270.3378,8958
1269.368206,8840
1268.398442,8957
1267.42851,9012
1266.458409,9045
1265.488139,9062
1264.5177,8966
1263.547092,9037
1262.576316,8903
1261.60537,9026
1260.634255,8995
1259.662971,9015
1258.691518,8999
1257.719896,8973
1256.748104,8908
1255.776143,8952
1254.804013,8904
1253.831714,8957
1252.859245,8897
1251.886607,8889
1250.913799,8903
1249.940822,9004
1248.967675,8842
1247.994359,8942
1247.020873,8835
1246.047217,8870
1245.073392,8929
1244.099397,8876
1243.125233,8849
1242.150898,8895
1241.176394,8952
1240.20172,8767
1239.226875,8853
1238.251861,8881
1237.276677,8779
1236.301323,8858
1235.325799,8841
1234.350104,8827
1233.37424,8849
1232.398205,8781
1231.422,8721
1230.445625,8867
1229.46908,8754
1228.492364,8742
1227.515478,8783
1226.538421,8864
1225.561194,8767
1224.583796,8734
1223.606228,8793
1222.628489,8790
1221.65058,8663
1220.6725,8888
1219.694249,8778
1218.715828,8842
1217.737236,8757
1216.758473,8831
1215.779539,8766
1214.800434,8758
1213.821158,8809
1212.841711,8805
1211.862094,8818
1210.882305,8781
1209.902345,8715
1208.922214,8768
1207.941912,8798
1206.961438,8796
1205.980794,8717
1204.999978,8765
1204.018991,8628
1203.037832,8854
1202.056502,8829
1201.075,8958
1200.093328,8852
1199.111483,8870
1198.129467,8853
1197.147279,8901
1196.16492,8993
1195.182389,8893
1194.199686,8794
1193.216812,8989
1192.233766,8925
1191.250547,8700
1190.267158,8759
1189.283596,8829
1188.299862,8726
1187.315956,8659
1186.331878,8700
1185.347628,8797
1184.363206,8737
1183.378612,8659
1182.393845,8782
1181.408906,8740
1180.423796,8708
1179.438512,8817
1178.453057,8697
1177.467429,8688
1176.481628,8761
1175.495655,8685
1174.50951,8803
1173.523192,8792
1172.536701,8716
1171.550038,8704
1170.563202,8638
1169.576193,8697
1168.589012,8690
1167.601658,8746
1166.614131,8728
1165.626431,8849
1164.638558,8697
1163.650512,8625
1162.662294,8709
1161.673902,8695
1160.685337,8751
1159.696599,8840
1158.707688,8796
1157.718604,8695
1156.729346,8664
1155.739915,8733
1154.750311,8827
1153.760534,8695
1152.770583,8851
1151.780459,8798
1150.790161,8876
1149.79969,8985
1148.809045,9020
1147.818227,9050
1146.827234,8992
1145.836069,9231
1144.844729,9075
1143.853216,9171
1142.861529,9205
1141.869668,9115
1140.877634,8992
1139.885425,9071
1138.893043,9001
1137.900486,8921
1136.907756,8772
1135.914851,8845
1134.921772,8700
1133.928519,8804
1132.935092,8750
1131.941491,8791
1130.947715,8588
1129.953765,8593
1128.959641,8573
1127.965342,8562
1126.970869,8668
1125.976222,8726
1124.9814,8574
1123.986403,8699
1122.991232,8588
1121.995886,8638
1121.000365,8657
1120.00467,8585
1119.0088,8409
1118.012755,8417
1117.016536,8629
1116.020141,8430
1115.023571,8630
1114.026827,8556
1113.029908,8638
1112.032813,8567
1111.035544,8540
1110.038099,8549
1109.040479,8482
1108.042684,8623
1107.044714,8554
1106.046568,8629
1105.048247,8514
1104.049751,8475
1103.051079,8577
1102.052232,8553
1101.053209,8459
1100.054011,8553
1099.054637,8723
1098.055088,8625
1097.055363,8571
1096.055462,8492
1095.055386,8556
1094.055134,8512
1093.054706,8644
1092.054102,8625
1091.053322,8507
1090.052366,8587
1089.051235,8582
1088.049927,8652
1087.048443,8522
1086.046783,8515
1085.044947,8639
1084.042935,8655
1083.040747,8635
1082.038382,8553
1081.035841,8495
1080.033124,8580
1079.03023,8677
1078.02716,8769
1077.023913,8783
1076.02049,8734
1075.016891,8920
1074.013114,8819
1073.009161,8890
1072.005032,8826
1071.000726,8819
1069.996243,8802
1068.991583,8627
1067.986746,8772
1066.981733,8553
1065.976542,8459
1064.971175,8568
1063.96563,8456
1062.959909,8436
1061.95401,8533
1060.947934,8414
1059.941682,8446
1058.935251,8385
1057.928644,8388
1056.92186,8428
1055.914898,8348
1054.907758,8340
1053.900442,8323
1052.892947,8491
1051.885276,8308
1050.877426,8390
1049.8694,8376
1048.861195,8260
1047.852813,8274
1046.844253,8304
1045.835516,8308
1044.8266,8397
1043.817507,8253
1042.808236,8452
1041.798787,8356
1040.78916,8335
1039.779355,8256
1038.769372,8216
1037.759211,8414
1036.748872,8251
1035.738355,8261
1034.72766,8216
1033.716786,8266
1032.705734,8200
1031.694503,8317
1030.683095,8341
1029.671508,8168
1028.659742,8232
1027.647798,8218
1026.635675,8314
1025.623374,8376
1024.610894,8212
1023.598236,8231
1022.585399,8222
1021.572383,8283
1020.559188,8349
1019.545814,8254
1018.532262,8206
1017.518531,8219
1016.504621,8263
1015.490531,8314
1014.476263,8287
1013.461816,8220
1012.447189,8176
1011.432383,8182
1010.417399,8269
1009.402235,8214
1008.386891,8288
1007.371368,8231
1006.355666,8369
1005.339785,8233
1004.323724,8195
1003.307483,8262
1002.291063,8260
1001.274464,8226
1000.257685,8336
999.2407258,8232
998.2235873,8277
997.2062689,8413
996.1887708,8344
995.1710929,8148
994.1532351,8267
993.1351974,8138
992.1169797,8179
991.098582,8277
990.0800042,8231
989.0612464,8198
988.0423085,8132
987.0231904,8178
986.003892,8248
984.9844134,8147
983.9647546,8236
982.9449153,8252
981.9248957,8200
980.9046957,8155
979.8843152,8239
978.8637542,8235
977.8430127,8177
976.8220905,8252
975.8009877,8264
974.7797043,8234
973.7582401,8152
972.7365952,8078
971.7147694,8186
970.6927628,8141
969.6705754,8053
968.6482069,8142
967.6256576,8192
966.6029272,8112
965.5800157,8070
964.5569231,8250
963.5336494,8092
962.5101945,8065
961.4865584,8074
960.462741,8106
959.4387423,7995
958.4145623,8021
957.3902008,8021
956.3656579,7983
955.3409335,8101
954.3160276,8065
953.2909401,7985
952.265671,8132
951.2402203,8017
950.2145878,8077
949.1887736,7943
948.1627777,8136
947.1365999,7989
946.1102402,8010
945.0836986,8085
944.0569751,8055
943.0300696,8047
942.002982,7978
940.9757123,7964
939.9482606,7964
938.9206266,7929
937.8928105,8039
936.8648121,8004
935.8366314,7932
934.8082683,8056
933.7797229,8067
932.750995,7992
931.7220847,8038
930.6929919,7939
929.6637165,7967
928.6342585,7855
927.6046179,8042
926.5747946,8050
925.5447886,8056
924.5145998,8006
923.4842282,7932
922.4536737,8062
921.4229363,8019
920.392016,8045
919.3609127,7990
918.3296264,7999
917.298157,8044
916.2665045,8030
915.2346689,7913
914.20265,8044
913.1704479,8016
912.1380626,8084
911.1054938,8116
910.0727418,8048
909.0398063,8083
908.0066873,8013
906.9733848,7992
905.9398988,8031
904.9062292,7974
903.872376,8048
902.8383391,7880
901.8041185,7971
900.7697141,7970
899.7351259,8020
898.7003538,7995
897.6653979,7984
896.630258,7953
895.5949342,7938
894.5594263,7927
893.5237344,7941
892.4878583,7965
891.4517981,8035
890.4155537,8014
889.3791251,7895
888.3425122,7854
887.305715,7957
886.2687333,7956
885.2315673,8043
884.1942168,7974
883.1566818,7895
882.1189623,7910
881.0810582,7830
880.0429694,7881
879.004696,8012
877.9662379,7958
876.9275949,7892
875.8887672,7866
874.8497547,7785
873.8105572,7883
872.7711748,7845
871.7316074,7738
870.691855,7771
869.6519176,7828
868.611795,7724
867.5714872,7886
866.5309943,7681
865.4903161,7817
864.4494526,7784
863.4084038,7752
862.3671696,7866
861.32575,7762
860.284145,7839
859.2423544,7797
858.2003783,7829
857.1582166,7718
856.1158692,7832
855.0733362,7744
854.0306174,7715
852.9877128,7764
851.9446225,7781
850.9013463,7750
849.8578842,7610
848.8142361,7875
847.770402,7788
846.726382,7723
845.6821758,7835
844.6377835,7812.208127
843.593205,7789.412192
842.5484404,7766.612193
841.5034894,7743.808129
840.4583522,7721
839.4130286,7747
838.3675187,7852
837.3218223,7732
836.2759394,7783
835.22987,7698
834.1836141,7762
833.1371715,7880
832.0905423,7917
831.0437263,7879
829.9967237,7775
828.9495342,7763
827.902158,7808
826.8545948,7821
825.8068447,7862
824.7589077,7870
823.7107836,7804
822.6624725,7716
821.6139743,7710
820.565289,7818
819.5164165,7786
818.4673567,7794
817.4181097,7734
816.3686753,7773
815.3190536,7763
814.2692445,7690
813.2192479,7750
812.1690638,7618
811.1186922,7681
810.068133,7752
809.0173861,7761
807.9664516,7740
806.9153294,7679
805.8640194,7754
804.8125216,7736
803.7608359,7673
802.7089623,7687
801.6569008,7711
800.6046513,7633
799.5522138,7738
798.4995882,7637
797.4467744,7686
796.3937725,7607
795.3405824,7699
794.287204,7700
793.2336373,7520
792.1798823,7667
791.1259389,7538
790.071807,7674
789.0174867,7616
787.9629778,7565
786.9082804,7641
785.8533943,7617
784.7983196,7524
783.7430562,7566
782.687604,7514
781.6319631,7504
780.5761332,7558
779.5201145,7483
778.4639069,7568
777.4075103,7599
776.3509247,7619
775.29415,7574
774.2371862,7542
773.1800332,7570
772.122691,7522
771.0651596,7533
770.0074389,7558
768.9495289,7499
767.8914295,7528
766.8331406,7536
765.7746623,7496
764.7159944,7529
763.657137,7574
762.59809,7533
761.5388533,7572
760.479427,7468
759.4198108,7463
758.3600049,7544
757.3000092,7546
756.2398236,7617
755.179448,7576
754.1188825,7406
753.058127,7470
751.9971814,7529
750.9360457,7634
749.8747198,7675
748.8132038,7544
747.7514974,7486
746.6896009,7604
745.6275139,7649
744.5652366,7538
743.5027689,7533
742.4401107,7503
741.377262,7510
740.3142227,7542
739.2509928,7500
738.1875723,7623
737.123961,7503
736.060159,7340
734.9961663,7523
733.9319826,7557
732.8676081,7407
731.8030427,7493
730.7382863,7539
729.6733389,7499
728.6082004,7402
727.5428708,7494
726.4773501,7506
725.4116381,7465
724.345735,7499
723.2796405,7470
722.2133546,7479
721.1468774,7432
720.0802088,7512
719.0133487,7451
717.946297,7420
716.8790538,7363
715.811619,7439
714.7439925,7423
713.6761743,7412
712.6081643,7354
711.5399626,7380
710.471569,7353
709.4029835,7400
708.3342061,7303
707.2652367,7374
706.1960753,7297
705.1267218,7294
704.0571762,7400
702.9874384,7413
701.9175084,7294
700.8473861,7336
699.7770715,7237
698.7065646,7300
697.6358653,7212
696.5649736,7283
695.4938893,7336
694.4226125,7346
693.3511432,7181
692.2794812,7240
691.2076265,7312
690.1355791,7256
689.063339,7192
687.990906,7261
686.9182802,7310
685.8454614,7299
684.7724497,7323
683.6992451,7175
682.6258473,7195
681.5522565,7310
680.4784725,7267
679.4044954,7169
678.330325,7259
677.2559614,7224
676.1814044,7255
675.106654,7258
674.0317103,7289
672.956573,7352
671.8812423,7251
670.805718,7282
669.7300001,7342
668.6540886,7310
667.5779833,7179
666.5016843,7278
665.4251916,7286
664.348505,7281
663.2716245,7266
662.19455,7304
661.1172816,7286
660.0398192,7341
658.9621627,7298
657.8843121,7277
656.8062674,7305
655.7280284,7268
654.6495951,7228
653.5709676,7226
652.4921457,7136
651.4131294,7248
650.3339187,7251
649.2545135,7283
648.1749137,7258
647.0951194,7262
646.0151304,7269
644.9349467,7342
643.8545684,7269
642.7739952,7218
641.6932273,7196
640.6122644,7170
639.5311067,7162
638.449754,7251
637.3682063,7142
636.2864635,7255
635.2045256,7114
634.1223926,7207
633.0400644,7156
631.9575409,7174
630.8748222,7054
629.7919081,7173
628.7087986,7098
627.6254937,7134
626.5419934,7100
625.4582975,7192
624.374406,7098
623.2903189,7157
622.2060361,7200
621.1215577,7039
620.0368834,7124
618.9520134,7088
617.8669475,6988
616.7816857,7090
615.6962279,7159
614.6105742,7025
613.5247244,7013
612.4386785,7060
611.3524364,7070
610.2659982,6967
609.1793638,7098
608.092533,6996
607.005506,7063
605.9182825,7015
604.8308626,7060
603.7432463,7013
602.6554334,6978
601.567424,7019
600.4792179,6986
599.3908152,7039
598.3022158,7066
597.2134196,7024
596.1244266,6999
595.0352368,7148
593.9458501,7058
592.8562664,7043
591.7664857,7021
590.676508,7001
589.5863331,6906
588.4959612,6933
587.405392,6953
586.3146257,7010
585.223662,7001
584.132501,6901
583.0411426,6892
581.9495868,7013
580.8578335,7018
579.7658827,6988
578.6737344,6915
577.5813884,7002
576.4888447,6916
575.3961034,6976
574.3031643,7085
573.2100273,6953
572.1166925,6856
571.0231598,6935
569.9294292,6889
568.8355005,6944
567.7413738,6854
566.647049,6817
565.5525261,6906
564.4578049,6847
563.3628856,6915
562.2677679,6876
561.1724519,6850
560.0769375,6741
558.9812246,6861
557.8853133,6953
556.7892035,6850
555.6928951,6753
554.596388,6780
553.4996823,6773.504122
552.4027778,6767.007066
551.3056746,6760.508834
550.2083726,6754.009423
549.1108717,6747.508835
548.0131718,6741.007069
546.915273,6734.504124
545.8171752,6728
544.7188784,6760
543.6203824,6664
542.5216873,6710
541.4227929,6761
540.3236993,6792
539.2244064,6824
538.1249141,6661
537.0252225,6759
535.9253314,6715
534.8252408,6704
533.7249506,6672
532.6244609,6746
531.5237715,6589
530.4228824,6694
529.3217936,6741
528.2205049,6786
527.1190165,6776
526.0173282,6629
524.9154399,6701
523.8133516,6694
522.7110633,6607
521.6085749,6768
520.5058864,6637
519.4029978,6734
518.2999088,6724
517.1966197,6700
516.0931301,6743
514.9894402,6772
513.8855499,6621
512.7814591,6712
511.6771678,6664
510.572676,6746
509.4679835,6759
508.3630903,6696
507.2579964,6738
506.1527018,6681
505.0472063,6638
503.94151,6748
502.8356128,6745
501.7295146,6704
500.6232154,6711
499.5167151,6707
498.4100137,6728
497.3031112,6691
496.1960075,6623
495.0887025,6648
493.9811962,6623
492.8734885,6625
491.7655795,6566
490.657469,6541
489.549157,6627
488.4406434,6599
487.3319282,6519
486.2230114,6578
485.1138929,6533
484.0045727,6542
482.8950506,6526
481.7853267,6574
480.6754009,6582
479.5652732,6555
478.4549434,6513
477.3444117,6575
476.2336778,6565
475.1227418,6470
474.0116036,6499
472.9002631,6418
471.7887204,6561
470.6769753,6527
469.5650278,6531
468.4528779,6491
467.3405255,6547
466.2279706,6517
465.1152131,6560
464.0022529,6530
462.8890901,6512
461.7757245,6569
460.6621561,6416
459.5483849,6463
458.4344108,6524
457.3202338,6514
456.2058538,6431
455.0912707,6466
453.9764846,6334
452.8614954,6491
451.7463029,6477
450.6309072,6467
449.5153083,6385
448.399506,6428
447.2835003,6374
446.1672912,6509
445.0508786,6470
443.9342624,6447
442.8174427,6368
441.7004194,6398
440.5831923,6366
439.4657616,6409
438.348127,6333
437.2302887,6446
436.1122464,6385
434.9940002,6421
433.8755501,6327
432.7568959,6341
431.6380376,6384
430.5189751,6355
429.3997085,6283
428.2802377,6313
427.1605626,6301
426.0406832,6358
424.9205993,6278
423.8003111,6258
422.6798183,6324
421.559121,6321
420.4382192,6293
419.3171127,6250
418.1958015,6204
417.0742856,6277
415.9525649,6269
414.8306393,6257
413.7085089,6205
412.5861735,6245
411.4636332,6277
410.3408878,6160
409.2179373,6170
408.0947817,6203
406.9714209,6196
405.8478549,6196
404.7240836,6119
403.6001069,6162
402.4759249,6119
401.3515374,6188
400.2269444,6144
399.1021459,6190
397.9771418,6167
396.851932,6238
395.7265166,6290
394.6008954,6216
393.4750684,6244
392.3490355,6233
391.2227968,6207
390.0963521,6215
388.9697015,6254
387.8428447,6203
386.7157819,6219
385.588513,6235
384.4610378,6170
383.3333564,6177
382.2054687,6199
381.0773746,6094
379.9490741,6259
378.8205672,6165
377.6918537,6180
376.5629338,6131
375.4338072,6085
374.3044739,6172
373.1749339,6107
372.0451872,6053
370.9152337,6130
369.7850733,6141
368.654706,6155
367.5241317,6124
366.3933504,6155
365.2623621,6030
364.1311666,6061
362.999764,6090
361.8681541,6117
360.736337,6109
359.6043126,6018
358.4720807,5941
357.3396415,5958
356.2069948,5953
355.0741405,6007
353.9410787,6048
352.8078093,5971
