#Wave,#Intensity1,#Intensity2,#Intensity3
2261.862186,5794,5219,4960
2261.060512,5756,5204,4974
2260.258706,5749,5192,4891
2259.456768,5627,5198,4956
2258.654698,5812,5148,4940
2257.852495,5753,5241,4973
2257.050161,5698,5148,5005
2256.247694,5767,5163,4932
2255.445094,5728,5221,5047
2254.642363,5751,5258,4939
2253.839499,5678,5218,4878
2253.036502,5758,5194,4973
2252.233374,5647,5141,4953
2251.430112,5687,5147,4987
2250.626719,5724,5184,5003
2249.823192,5672,5170,4941
2249.019534,5669,5205,4948
2248.215742,5736,5212,4968
2247.411818,5709,5256,5022
2246.607762,5712,5186,4960
2245.803573,5738,5191,4944
2244.999251,5710,5280,4933
2244.194796,5693,5149,4961
2243.390209,5724,5161,4920
2242.585489,5744,5162,5021
2241.780636,5753,5194,5045
2240.97565,5696,5296,5037
2240.170532,5873,5208,5050
2239.365281,5746,5206,4977
2238.559896,5734,5193,5059
2237.754379,5795,5222,4927
2236.948729,5782,5252,4944
2236.142946,5730,5162,4996
2235.33703,5757,5194,5014
2234.530981,5859,5190,4957
2233.724799,5638,5191.310875,5007
2232.918484,5698,5192.621967,4962
2232.112035,5805,5193.933276,4974
2231.305454,5724,5195.2448,4944
2230.498739,5726,5196.556542,4973
2229.691891,5740,5197.868499,4959
2228.88491,5801,5199.180674,5005
2228.077796,5847,5200.493065,4974
2227.270548,5776,5201.805673,4987
2226.463167,5794,5203.118498,5001
2225.655653,5766,5204.431539,4982
2224.848005,5763,5205.744797,5022
2224.040224,5809,5207.058273,4987
2223.23231,5755,5208.371965,5000
2222.424262,5779,5209.685874,5000
2221.616081,5811,5211,5071
2220.807766,5812,5229,5040
2219.999318,5760,5245,5079
2219.190736,5781,5232,5048
2218.38202,5760,5279,5062
2217.573171,5841,5281,4983
2216.764188,5816,5293,5118
2215.955072,5913,5249,4976
2215.145822,5766,5304,5113
2214.336438,5764,5237,4981
2213.52692,5803,5248,5091
2212.717269,5749,5221,5020
2211.907484,5798,5370,5052
2211.097565,5798,5355,5009
2210.287512,5776,5254,5004
2209.477325,5827,5247,5017
2208.667005,5757,5302,5048
2207.85655,5828,5283,5045
2207.045961,5816,5293,4998
2206.235239,5864,5224,4977
2205.424382,5740,5308,5015
2204.613392,5822,5252,5025
2203.802267,5824,5225,5058
2202.991008,5826,5333,5000
2202.179615,5824,5316,5066
2201.368088,5856,5340,5041
2200.556426,5859,5386,5050
2199.744631,5848,5183,5066
2198.932701,5841,5349,5042
2198.120637,5873,5266,5079
2197.308438,5837,5322,5079
2196.496105,5852,5241,5017
2195.683638,5864,5297,4999
2194.871037,5894,5334,5060
2194.058301,5780,5282,5130
2193.24543,5818,5287,5035
2192.432425,5842,5309,4978
2191.619286,5895,5221,5115
2190.806012,5852,5253,5069
2189.992604,5771,5258,5026
2189.179061,5847,5289,5120
2188.365383,5825,5356,5096
2187.55157,5860,5334,5025
2186.737623,5853,5325,5020
2185.923542,5889,5308,5072
2185.109325,5833,5275,5108
2184.294974,5835,5292,5082
2183.480488,5846,5221,4962
2182.665867,5823,5183,5065
2181.851112,5812,5362,5111
2181.036221,5830,5243,5034
2180.221196,5808,5283,5058
2179.406035,5837,5227,5025
2178.59074,5785,5321,5053
2177.77531,5804,5298,5003
2176.959744,5831,5248,5100
2176.144044,5814,5243,5028
2175.328208,5847,5311,4998
2174.512238,5786,5279,5054
2173.696132,5833,5281,5085
2172.879892,5768,5168,5070
2172.063516,5849,5184,5077
2171.247004,5789,5231,5015
2170.430358,5905,5231,5038
2169.613576,5919,5338,5009
2168.796659,5884,5364,5096
2167.979607,5897,5314,5042
2167.162419,5782,5351,4965
2166.345096,5756,5245,4993
2165.527638,5954,5281,5074
2164.710044,5795,5242,5001
2163.892314,5938,5248,4973
2163.07445,5988,5349,5060
2162.256449,5706,5314,5040
2161.438313,5820,5211,5040
2160.620042,5793,5330,4988
2159.801635,5802,5428,5107
2158.983092,5867,5314,5048
2158.164414,5850,5277,5071
2157.345599,5833,5308,5050
2156.52665,5852,5266,5053
2155.707564,5924,5357,5094
2154.888343,5887,5306,5047
2154.068986,5871,5384,5023
2153.249493,5825,5230,5070
2152.429864,5858,5310,5029
2151.610099,5847,5358,5061
2150.790198,5783,5338,5052
2149.970162,5809,5333,5050
2149.149989,5740,5305,5029
2148.329681,5855,5247,5115
2147.509236,5858,5191,5091
2146.688655,5919,5268,4991
2145.867938,5861,5296,5062
2145.047086,5788,5207,5088
2144.226097,5915,5338,5091
2143.404971,5836,5265,5071
2142.58371,5845,5367,5044
2141.762312,5944,5288,5022
2140.940778,5880,5330,5137
2140.119108,5902,5253,5055
2139.297302,5931,5240,5095
2138.475359,5808,5243,5042
2137.653279,5863,5288,5066
2136.831064,5824,5269,5086
2136.008712,5890,5325,5108
2135.186223,5948,5333,5094
2134.363598,5938.450787,5344,5164
2133.540837,5928.899988,5371,5062
2132.717938,5919.347605,5429,5051
2131.894904,5909.793636,5275,5129
2131.071732,5900.238082,5296,5100
2130.248425,5890.680941,5276,5109
2129.42498,5881.122214,5278,5103
2128.601399,5871.561901,5235,4987
2127.777681,5862,5392,5043
2126.953826,5917,5320,5051
2126.129834,5826,5279,5063
2125.305706,5960,5325,5015
2124.481441,5941,5302,5065
2123.657039,5861,5402,5067
2122.8325,5887,5344,5192
2122.007824,5914,5357,5076
2121.183011,5917,5314,5105
2120.358061,5963,5348,5108
2119.532975,5910,5274,5071
2118.707751,5864,5297,5090
2117.88239,5932,5310,5109
2117.056892,5958,5367,5110
2116.231257,5914,5396,5069
2115.405484,5889,5356,5100
2114.579575,5886,5339,5129
2113.753528,5846,5367,5107
2112.927344,5921,5314,5105
2112.101023,5875,5366,5088
2111.274565,5934,5370,5109
2110.447969,5927,5344,5135
2109.621236,5907,5330,5179
2108.794365,5950,5394,5044
2107.967357,5862,5426,5110
2107.140212,5981,5303,5100
2106.312929,5902,5341,5208
2105.485509,5925,5361,5209
2104.657951,5938,5389,5115
2103.830255,5885,5367,5115
2103.002422,5948,5368,5139
2102.174452,5890,5411,5147
2101.346344,5993,5358,5171
2100.518098,5901,5374,5183
2099.689714,6052,5334,5064
2098.861193,5981,5342,5210
2098.032533,5949,5393,5229
2097.203736,5974,5391,5139
2096.374802,5912,5464,5111
2095.545729,6032,5388,5150
2094.716519,5996,5405,5181
2093.88717,6005,5303,5138
2093.057684,5920,5334,5112
2092.22806,5964,5429,5115
2091.398297,6058,5371,5096
2090.568397,5994,5418,5114
2089.738359,6004,5363,5102
2088.908182,6008,5355,5159
2088.077868,5928,5390,5198
2087.247415,5891,5395,5114
2086.416824,6059,5429,5212
2085.586095,5990,5296,5182
2084.755228,5960,5385,5070
2083.924222,5881,5374,5155
2083.093078,6046,5406,5174
2082.261796,6026,5483,5209
2081.430376,5918,5395,5170
2080.598817,5918,5411,5212
2079.76712,5977,5409,5129
2078.935284,5936,5422,5263
2078.10331,5996,5337,5108
2077.271197,6027,5407,5144
2076.438946,6030,5407,5219
2075.606556,5991,5443,5121
2074.774028,6046,5444,5170
2073.941361,5945,5420,5115
2073.108556,5936,5310,5204
2072.275612,5984,5443,5239
2071.442529,5995,5453,5122
2070.609307,5960,5443,5163
2069.775947,5981,5388,5227
2068.942448,5996,5410,5190
2068.10881,5997,5381,5225
2067.275033,6075,5455,5165
2066.441117,5860,5364,5202
2065.607063,6132,5423,5098
2064.772869,6041,5405,5156
2063.938537,6050,5348,5120
2063.104066,5927,5360,5173
2062.269455,5983,5380,5085
2061.434706,5967,5443,5161
2060.599817,5979,5354,5154
2059.764789,5979,5393,5147
2058.929623,5991,5400,5085
2058.094317,5959,5356,5184
2057.258872,6042,5429,5225
2056.423287,6039,5425,5212
2055.587564,6036,5450,5145
2054.751701,5966,5427,5186
2053.915698,5961,5398,5148
2053.079557,6023,5418,5159
2052.243276,5990,5460,5175
2051.406856,6026,5451,5174.807918
2050.570296,6024,5491,5174.615803
2049.733597,5972,5453,5174.423657
2048.896758,6034,5375,5174.231478
2048.05978,5965,5456,5174.039268
2047.222662,6012,5394,5173.847025
2046.385405,5989,5315,5173.65475
2045.548008,5970,5460,5173.462444
2044.710471,6023,5442,5173.270105
2043.872795,5983,5514,5173.077734
2043.034979,6022,5385,5172.885331
2042.197023,5940,5408,5172.692896
2041.358928,6078,5446,5172.500429
2040.520692,6043,5446,5172.30793
2039.682317,6055,5472,5172.115399
2038.843802,5904,5364,5171.922835
2038.005148,5904,5401,5171.73024
2037.166353,5989,5418,5171.537612
2036.327418,6071,5427,5171.344952
2035.488344,5993,5362,5171.15226
2034.649129,6060,5399,5170.959536
2033.809775,6040,5402,5170.76678
2032.97028,5982,5414,5170.573992
2032.130646,6075,5454,5170.381171
2031.290871,5973,5347,5170.188318
2030.450956,6070,5442,5169.995433
2029.610901,6087,5450,5169.802516
2028.770705,6019,5366,5169.609567
2027.93037,6057,5448,5169.416585
2027.089894,6004,5426,5169.223572
2026.249278,6065,5403,5169.030526
2025.408521,6021,5434,5168.837447
2024.567625,5978,5446,5168.644337
2023.726588,6031,5451,5168.451194
2022.88541,6145,5450,5168.258019
2022.044092,6071,5413,5168.064812
2021.202634,6085,5432,5167.871573
2020.361035,6078,5534,5167.678301
2019.519295,6043,5423,5167.484997
2018.677415,6044,5481,5167.291661
2017.835394,5994,5491,5167.098293
2016.993233,6087,5522,5166.904892
2016.150931,6045,5405,5166.711459
2015.308489,5989,5460,5166.517993
2014.465905,6004,5450,5166.324496
2013.623181,6114,5446,5166.130966
2012.780317,6066,5386,5165.937403
2011.937311,6117,5477,5165.743808
2011.094165,6082,5467,5165.550181
2010.250877,6157,5460,5165.356522
2009.407449,6013,5473,5165.16283
2008.56388,6103,5508,5164.969106
2007.72017,6079,5418,5164.77535
2006.876319,6144,5453,5164.581561
2006.032327,6113,5428,5164.38774
2005.188194,6114,5531,5164.193886
2004.34392,6068,5585,5164
2003.499505,6071,5514,5313
2002.654948,6076,5377,5239
2001.810251,6119,5564,5220
2000.965412,6047,5436,5255
2000.120432,6213,5479,5250
1999.275311,6163,5495,5234
1998.430049,6153,5466,5265
1997.584645,6113,5485,5249
1996.7391,6131,5446,5215
1995.893414,6077,5508,5297
1995.047586,6165,5478,5298
1994.201617,6070,5518,5248
1993.355506,6166,5630,5182
1992.509254,6202,5445,5199
1991.66286,6106,5482,5311
1990.816325,6155,5513,5244
1989.969648,6195,5524,5287
1989.122829,6168,5499,5234
1988.275869,6078,5609,5291
1987.428768,6170,5486,5246
1986.581524,6175,5547,5276
1985.734139,6108,5460,5343
1984.886612,6159,5544,5246
1984.038943,6059,5516,5273
1983.191133,6125,5579,5312
1982.34318,6203,5514,5267
1981.495086,6088,5507,5345
1980.64685,6056,5572,5278
1979.798472,6095,5442,5297
1978.949951,6093,5538,5208
1978.101289,6114,5532,5203
1977.252485,6143,5491,5294
1976.403539,6144,5539,5342
1975.554451,6097,5614,5246
1974.70522,6226,5561,5333
1973.855848,6219,5578,5366
1973.006333,6143,5597,5325
1972.156676,6130,5529,5377
1971.306877,6207,5552,5275
1970.456935,6176,5678,5228
1969.606851,6185,5473,5368
1968.756625,6133,5563,5356
1967.906257,6290,5625,5272
1967.055746,6161,5541,5248
1966.205093,6203,5509,5332
1965.354297,6177,5579,5339
1964.503359,6200,5506,5386
1963.652278,6210,5559,5293
1962.801054,6214,5521,5316
1961.949688,6220,5524,5320
1961.09818,6170,5593,5345
1960.246529,6136,5540,5300
1959.394735,6186,5545,5277
1958.542798,6154,5548,5318
1957.690719,6238,5581,5305
1956.838497,6176,5559,5314
1955.986132,6195,5543,5326
1955.133625,6252,5494,5335
1954.280974,6165,5624,5339
1953.428181,6187,5620,5308
1952.575244,6158,5562,5330
1951.722165,6259,5536,5257
1950.868943,6157,5577,5343
1950.015578,6200,5534,5275
1949.162069,6112,5568,5326
1948.308418,6112,5558,5272
1947.454624,6140,5603,5318
1946.600686,6106,5633,5307
1945.746605,6320,5588,5372
1944.892381,6127,5638,5341
1944.038014,6185,5533,5305
1943.183504,6259,5522,5417
1942.32885,6197,5561,5306
1941.474053,6205,5588,5283
1940.619113,6149,5574,5303
1939.764029,6192,5587,5348
1938.908802,6165,5571,5326
1938.053432,6144,5583,5310
1937.197918,6201,5536,5272
1936.34226,6158,5551,5257
1935.486459,6184,5531,5259
1934.630514,6257,5569,5311
1933.774426,6218,5522,5316
1932.918195,6198,5515,5332
1932.061819,6219,5622,5359
1931.2053,6143,5535,5308
1930.348637,6266,5506,5245
1929.49183,6153,5601,5344
1928.63488,6165,5547,5327
1927.777786,6168,5563,5307
1926.920548,6169,5600,5261
1926.063166,6162,5569,5286
1925.20564,6150,5587,5360
1924.347971,6198,5507,5319
1923.490157,6211,5630,5299
1922.632199,6279,5640,5326
1921.774098,6184,5595,5277
1920.915852,6264,5636,5265
1920.057462,6160,5566,5287
1919.198928,6313,5569,5325
1918.34025,6243,5579,5242
1917.481428,6197,5603,5322
1916.622461,6329,5587,5388
1915.763351,6334,5551,5377
1914.904096,6242,5610,5358
1914.044696,6315,5636,5380
1913.185153,6283,5632,5294
1912.325465,6217,5658,5393
1911.465633,6181,5564,5379
1910.605656,6274,5639,5350
1909.745535,6302,5659,5324
1908.885269,6241,5576,5386
1908.024859,6299,5529,5412
1907.164304,6283,5663,5361
1906.303605,6251,5583,5413
1905.442761,6307,5656,5350
1904.581772,6226,5632,5418
1903.720639,6346,5661,5389
1902.859361,6311,5625,5351
1901.997938,6292,5656,5386
1901.136371,6307,5692,5356
1900.274658,6225,5765,5487
1899.412801,6304,5657,5368
1898.550799,6256,5599,5455
1897.688652,6282,5613,5348
1896.826361,6309,5633,5387
1895.963924,6264,5632,5374
1895.101342,6257,5699,5437
1894.238615,6229,5680,5371
1893.375744,6366,5695,5457
1892.512727,6352,5674,5414
1891.649565,6336,5637,5373
1890.786258,6279,5600,5294
1889.922805,6356,5674,5345
1889.059208,6302,5749,5438
1888.195465,6321,5707,5442
1887.331577,6351,5663,5460
1886.467544,6361,5661,5410
1885.603365,6304,5685,5386
1884.739041,6290,5701,5396
1883.874572,6402,5630,5449
1883.009957,6304,5692,5412
1882.145197,6513,5679,5395
1881.280291,6255,5601,5419
1880.41524,6289,5647,5414
1879.550043,6324,5585,5441
1878.684701,6354,5719,5406
1877.819213,6324,5676,5335
1876.95358,6364,5607,5374
1876.0878,6292,5766,5398
1875.221875,6370,5695,5449
1874.355805,6355,5681,5470
1873.489588,6277,5618,5475
1872.623226,6289,5697,5400
1871.756718,6380,5618,5455
1870.890064,6256,5699,5482
1870.023264,6400,5734,5447
1869.156318,6258,5711,5443
1868.289226,6313,5799,5498
1867.421989,6361,5670,5433
1866.554605,6417,5717,5440
1865.687075,6309,5617,5467
1864.819399,6307,5770,5414
1863.951577,6340,5617,5479
1863.083609,6373,5683,5422
1862.215495,6380,5694,5505
1861.347234,6324,5648,5417
1860.478828,6371,5708,5440
1859.610275,6364,5734,5408
1858.741575,6340,5678,5383
1857.87273,6318,5721,5516
1857.003738,6326,5678,5441
1856.134599,6337,5646,5494
1855.265314,6396,5741,5472
1854.395883,6301,5699,5443
1853.526305,6377,5737,5378
1852.656581,6354,5746,5486
1851.78671,6420,5626,5419
1850.916692,6383,5651,5459
1850.046528,6323,5721,5423
1849.176218,6362,5678,5477
1848.30576,6334,5757,5474
1847.435156,6273,5765,5450
1846.564405,6326,5663,5497
1845.693508,6390,5723,5393
1844.822463,6325,5594,5388
1843.951272,6416,5732,5407
1843.079934,6406,5719,5469
1842.208448,6391,5738,5393
1841.336816,6336,5775,5503
1840.465037,6324,5671,5421
1839.593111,6296,5696,5390
1838.721038,6377,5752,5410
1837.848818,6446,5661,5425
1836.976451,6395,5713,5422
1836.103937,6358,5735,5455
1835.231275,6429,5762,5463
1834.358467,6366,5664,5491
1833.485511,6361,5705,5408
1832.612408,6377,5701,5413
1831.739157,6339,5563,5385
1830.86576,6381,5712,5454
1829.992215,6357,5735,5500
1829.118522,6474,5673,5409
1828.244682,6281,5695,5457
1827.370695,6375,5727,5455
1826.49656,6380,5707,5475
1825.622278,6341,5703,5381
1824.747848,6459,5745,5461
1823.87327,6437,5810,5454
1822.998545,6411,5786,5484
1822.123673,6368,5745,5380
1821.248652,6368,5708,5409
1820.373484,6437,5677,5436
1819.498169,6422,5726,5462
1818.622705,6369,5692,5433
1817.747094,6393,5739,5423
1816.871334,6338,5745,5487
1815.995427,6371,5671,5388
1815.119372,6332,5721,5450
1814.24317,6380,5710,5483
1813.366819,6437,5735,5496
1812.49032,6345,5700,5401
1811.613673,6327,5809,5501
1810.736878,6446,5744,5418
1809.859935,6424,5691,5495
1808.982844,6339,5702,5412
1808.105605,6397,5725,5297
1807.228218,6496,5619,5409
1806.350682,6451,5765,5497
1805.472998,6462,5848,5493
1804.595166,6434,5683,5423
1803.717185,6352,5780,5537
1802.839057,6419,5729,5485
1801.960779,6405,5781,5396
1801.082354,6439,5747,5486
1800.20378,6460,5839,5467
1799.325057,6422,5880,5432
1798.446186,6384,5762,5472
1797.567167,6340,5701,5459
1796.687999,6424,5670,5450
1795.808682,6451,5767,5482
1794.929216,6443,5833,5577
1794.049602,6509,5719,5507
1793.16984,6460,5781,5502.377736
1792.289928,6500,5730,5497.754691
1791.409868,6556,5787,5493.130864
1790.529659,6526,5800,5488.506256
1789.649301,6377,5702,5483.880865
1788.768794,6472,5807,5479.254692
1787.888139,6546,5776,5474.627737
1787.007334,6491,5751,5470
1786.126381,6473,5769.393777,5561
1785.245278,6492,5787.790665,5522
1784.364027,6448,5806.190664,5563
1783.482626,6492,5824.593776,5536
1782.601077,6478,5843,5528
1781.719378,6436,5769,5605
1780.83753,6449,5790,5469
1779.955533,6560,5820,5572
1779.073387,6508,5734,5432
1778.191091,6403,5854,5536
1777.308646,6472,5804,5525
1776.426052,6456,5759,5549
1775.543308,6489,5824,5496
1774.660416,6556,5878,5524
1773.777373,6500,5760,5527
1772.894182,6428,5844,5610
1772.01084,6520,5861,5662
1771.12735,6532,5832,5539
1770.243709,6557,5791,5555
1769.359919,6661,5876,5535
1768.47598,6464,5856,5521
1767.591891,6529,5823,5537
1766.707652,6526,5809,5577
1765.823264,6578,5863,5534
1764.938725,6521,5851,5576
1764.054037,6467,5766,5559
1763.1692,6569,5927,5581
1762.284212,6557,5810,5601
1761.399075,6491,5886,5651
1760.513787,6474,5820,5606
1759.62835,6647,5876,5618
1758.742763,6506,5851,5625
1757.857025,6547,5856,5597
1756.971138,6559,5868,5580
1756.085101,6684,5845,5565
1755.198913,6421,5942,5533
1754.312575,6592,5881,5584
1753.426088,6641,5918,5595
1752.53945,6516,5851,5674
1751.652661,6541,5848,5538
1750.765723,6549,5821,5560
1749.878634,6538,5847,5668
1748.991395,6518,5852,5587
1748.104006,6526,5857,5588
1747.216466,6553,5874,5676
1746.328776,6522,5820,5623
1745.440935,6579,5886,5590
1744.552944,6507,5793,5523
1743.664802,6463,5832,5540
1742.77651,6573,5857,5650
1741.888067,6551,5818,5562
1740.999473,6564,5841,5560
1740.110729,6490,5824,5575
1739.221834,6583,5856,5605
1738.332789,6466,5770,5594
1737.443592,6437,5832,5625
1736.554245,6583,5875,5539
1735.664747,6600,5891,5575
1734.775098,6547,5885,5635
1733.885299,6583,5858,5536
1732.995348,6599,5905,5609
1732.105247,6492,5788,5620
1731.214994,6501,5864,5648
1730.32459,6550,5928,5568
1729.434036,6577,5847,5598
1728.54333,6454,5852,5549
1727.652473,6621,5850,5572
1726.761465,6518,5816,5640
1725.870306,6562,5792,5518
1724.978996,6589,5809,5538
1724.087534,6595,5916,5590
1723.195921,6541,5860,5534
1722.304157,6569,5929,5558
1721.412242,6591,5839,5570
1720.520175,6599,5864,5624
1719.627956,6519,5807,5529
1718.735586,6616,5850,5563
1717.843065,6485,5803,5485
1716.950392,6487,5778,5537
1716.057568,6689,5902,5623
1715.164592,6630,5928,5538
1714.271465,6517,5868,5592
1713.378185,6521,5854,5662
1712.484755,6628,5888,5592
1711.591172,6568,5952,5613
1710.697438,6593,5917,5672
1709.803551,6564,5896,5648
1708.909514,6530,5824,5542
1708.015324,6516,5836,5597
1707.120982,6656,5875,5647
1706.226489,6525,5871,5610
1705.331843,6629,5877,5617
1704.437046,6654,5900,5655
1703.542096,6591,5905,5657
1702.646994,6527,5810,5620
1701.751741,6530,5799,5571
1700.856335,6683,5865,5603
1699.960777,6590,5924,5622
1699.065067,6608,5907,5592
1698.169205,6553,5935,5598
1697.27319,6622,5853,5634
1696.377023,6497,5914,5655
1695.480704,6567,5917,5603
1694.584233,6650,5807,5622
1693.687609,6649,5968,5631
1692.790833,6585,5954,5583
1691.893904,6650,5892,5572
1690.996823,6505,5842,5632
1690.099589,6609,5934,5590
1689.202203,6592,5901,5624
1688.304664,6679,5956,5656
1687.406972,6532,5981,5706
1686.509128,6621,5936,5577
1685.611132,6652,5914,5636
1684.712982,6601,5965,5711
1683.81468,6641,5927,5712
1682.916225,6670,5965,5643
1682.017617,6667,5839,5606
1681.118856,6618,5967,5727
1680.219943,6610,5909,5654
1679.320876,6605,6001,5661
1678.421657,6685,6025,5654
1677.522284,6616,5922,5668
1676.622759,6701,5992,5672
1675.72308,6656,6005,5680
1674.823249,6685,6025,5622
1673.923264,6697,5960,5717
1673.023126,6644,5916,5641
1672.122835,6749,6007,5642
1671.222391,6754,5994,5664
1670.321793,6715,6105,5732
1669.421042,6815,6004,5746
1668.520138,6748,5993,5662
1667.619081,6599,5972,5686
1666.71787,6724,5957,5774
1665.816505,6737,6046,5652
1664.914988,6813,6016,5694
1664.013316,6657,5913,5704
1663.111492,6662,6029,5722
1662.209513,6720,5994,5700
1661.307381,6569,6032,5652
1660.405096,6685,5933,5629
1659.502657,6680,5990,5709
1658.600064,6693,6054,5794
1657.697317,6736,5998,5823
1656.794417,6683,6054,5654
1655.891362,6759,6007,5785
1654.988154,6642,5966,5696
1654.084793,6726,5995,5709
1653.181277,6692,5970,5766
1652.277607,6747,6085,5736
1651.373783,6822,6013,5736
1650.469806,6736,5983,5711
1649.565674,6857,6005,5787
1648.661388,6780,6027,5754
1647.756948,6726,6016,5774
1646.852354,6831,6024,5859
1645.947606,6754,6010,5760
1645.042704,6683,6036,5733
1644.137647,6839,5931,5807
1643.232436,6684,6028,5700
1642.327071,6764,5983,5689
1641.421552,6776,6121,5674
1640.515878,6714,6123,5643
1639.61005,6757,6015,5702
1638.704067,6708,6000,5733
1637.79793,6688,5957,5753
1636.891638,6784,5953,5716
1635.985192,6750,6010,5803
1635.078591,6682,6097,5794
1634.171835,6772,5931,5728
1633.264925,6730,6073,5760
1632.357861,6652,6009,5742
1631.450641,6715,6114,5713
1630.543267,6711,6055,5749
1629.635738,6823,6020,5762
1628.728054,6626,6051,5725
1627.820215,6743,6207,5740
1626.912222,6695,6008,5791
1626.004073,6791,6113,5755
1625.09577,6761,6131,5795
1624.187311,6775,6038,5738
1623.278698,6728,5998,5755
1622.36993,6856,6079,5748
1621.461006,6836,6199,5728
1620.551927,6668,6078,5728
1619.642693,6791,6132,5795
1618.733304,6798,6096,5804
1617.82376,6694,6190,5870
1616.914061,6756,6115,5851
1616.004206,6776,6170,5794
1615.094196,6750,6105,5801
1614.18403,6748,6101,5836
1613.273709,6772,6125,5802
1612.363233,6827,6131,5841
1611.452601,6793,6069,5866
1610.541814,6785,6109,5717
1609.630871,6785,6130,5821
1608.719772,6797,6078,5825
1607.808518,6865,6042,5834
1606.897109,6808,6129,5855
1605.985543,6837,6143,5857
1605.073822,6729,6046,5863
1604.161945,6813,6183,5827
1603.249913,6795,6123,5912
1602.337724,6889,6112,5955
1601.42538,6800,6163,5798
1600.51288,6840,6101,5902
1599.600224,6851,6160,5855
1598.687412,6857,6179,5897
1597.774444,6846,6209,5777
1596.86132,6895,6186,5928
1595.94804,6828,6074,5903
1595.034604,6927,6174,5975
1594.121012,6921,6149,5979
1593.207263,6897,6209,5911
1592.293359,6935,6235,5898
1591.379298,6801,6222,5995
1590.465081,6892,6211,5978
1589.550708,6982,6254,5973
1588.636178,6936,6288,6029
1587.721492,6954,6261,6063
1586.806649,6999,6245,6027
1585.89165,6953,6218,5913
1584.976495,6965,6250,6068
1584.061183,6969,6188,6076
1583.145715,7076,6385,6062
1582.23009,7100,6414,6050
1581.314308,7011,6395,6023
1580.39837,7121,6450,6074
1579.482275,7206,6395,6084
1578.566024,7132,6415,6186
1577.649615,7348,6441,6149
1576.73305,7315,6443,6192
1575.816328,7257,6530,6284
1574.899449,7362,6584,6322
1573.982414,7288,6559,6329
1573.065221,7368,6534,6287
1572.147871,7403,6589,6242
1571.230365,7226,6563,6330
1570.312701,7327,6601,6322
1569.394881,7390,6624,6318
1568.476903,7183,6474,6216
1567.558768,7319,6482,6247
1566.640476,7208,6495,6246
1565.722027,7286,6564,6268
1564.80342,7258,6508,6307
1563.884656,7165,6483,6156
1562.965735,7211,6439,6110
1562.046657,7051,6395,6135
1561.127421,7113,6368,6154
1560.208028,7094,6480,6023
1559.288477,7083,6320,6017
1558.368769,7105,6337,6015
1557.448904,7019,6270,6116
1556.528881,6946,6302,5955
1555.6087,6965,6291,5961
1554.688362,7034,6214,6025
1553.767866,6955,6200,5924
1552.847212,6933,6325,6011
1551.9264,7060,6249,6031
1551.005431,6984,6117,5920
1550.084304,6930,6137,5887
1549.163019,6936,6209,5976
1548.241577,6876,6279,6004
1547.319976,6994,6182,5914
1546.398218,6916,6218,5835
1545.476301,6986,6195,5930
1544.554227,6936,6175,5809
1543.631994,6958,6223,5886
1542.709604,6950,6152,5918
1541.787055,6924,6161,5886
1540.864348,6806,6114,5930
1539.941483,6881,6211,5863
1539.01846,6879,6116,5884
1538.095278,6940,6173,5859
1537.171938,6896,6299,5902
1536.24844,6942,6234,5808
1535.324784,6859,6144,5830
1534.400969,6873,6131,5869
1533.476996,6948,6142,5884
1532.552864,6952,6225,5863
1531.628574,6852,6150,5870
1530.704125,6898,6149,5881
1529.779517,6913,6059,5775
1528.854751,6833,6093,5870
1527.929827,6939,6165,5887
1527.004744,6784,6144,5821
1526.079502,6755,6098,5895
1525.154101,6771,6081,5850
1524.228541,6923,6076,5883
1523.302823,6844,6117,5809
1522.376946,6904,6131,5894
1521.45091,6861,6145,5898
1520.524715,6851,6068,5822
1519.598361,6879,6125,5835
1518.671848,6846,6172,5838
1517.745176,6753,6124,5923
1516.818345,6799,6102,5899
1515.891354,6911,6109,5889
1514.964205,6776,6124,5797
1514.036897,6786,6111,5834
1513.109429,6907,6150,5800
1512.181802,6803,6119,5833
1511.254016,6838,6150,5846
1510.32607,6878,6162,5875
1509.397965,6900,6194,5871
1508.469701,6865,6121,5803
1507.541278,6885,6123,5875
1506.612694,6810,6186,5832
1505.683952,6783,6175,5851
1504.75505,6816,6156,5812
1503.825988,6885,6150,5807
1502.896767,6755,6134,5759
1501.967386,6763,6159,5795
1501.037845,6890,6193,5882
1500.108145,6841,6125,5775
1499.178285,6833,6091,5802
1498.248265,6804,6066,5860
1497.318085,6880,6177,5870
1496.387746,6848,6093,5849
1495.457246,6868,6157,5814
1494.526587,6860,6003,5821
1493.595768,6868,6102,5837
1492.664788,6906,6201,5867
1491.733649,6914,6201,5752
1490.80235,6907,6124,5872
1489.87089,6857,6113,5868
1488.939271,6813,6171,5852
1488.007491,6939,6104,5739
1487.075551,6908,6201,5864
1486.143451,6924,6154,5898
1485.21119,6876,6189,5781
1484.278769,6889,6179,5870
1483.346188,6926,6196,5878
1482.413447,6886,6214,5829
1481.480545,6912,6191,5835
1480.547482,6944,6180,5875
1479.614259,6848,6204,5888
1478.680876,6987,6299,5893
1477.747332,6988,6243,5957
1476.813627,7055,6146,6020
1475.879762,6962,6180,5873
1474.945736,6961,6274,5971
1474.011549,7109,6289,5955
1473.077202,7033,6180,6048
1472.142694,7008,6285,5980
1471.208025,7088,6307,5980
1470.273195,7076,6306,6088
1469.338204,7137,6280,6122
1468.403053,7136,6268,6084
1467.46774,7119,6372,6058
1466.532266,7091,6392,5970
1465.596632,7078,6405,6094
1464.660836,7070,6395,5986
1463.724879,7077,6233,5963
1462.788761,7051,6299,6105
1461.852482,6981,6302,6084
1460.916042,6996,6275,5913
1459.97944,7130,6270,6018
1459.042677,6963,6298,5936
1458.105753,7120,6255,5962
1457.168667,7027,6365,5941
1456.23142,6973,6389,5945
1455.294012,6980,6390,5946
1454.356442,7079,6306,5928
1453.418711,7142,6284,6055
1452.480818,7067,6374,6030
1451.542763,7113,6399,6093
1450.604547,7219,6402,6132
1449.666169,7113,6305,6162
1448.72763,7124,6392,6078
1447.788928,7179,6360,6191
1446.850065,7260,6485,6063
1445.911041,7190,6331,6205
1444.971854,7232,6508,6161
1444.032506,7107,6514,6194
1443.092995,7149,6507,6282
1442.153323,7237,6526,6356
1441.213489,7398,6514,6408
1440.273492,7361,6478,6336
1439.333334,7536,6623,6474
1438.393014,7573,6692,6345
1437.452531,7569,6763,6474
1436.511886,7676,6940,6620
1435.571079,7745,6933,6681
1434.63011,7998,7019,6847
1433.688979,8062,7011,6894
1432.747685,8135,7112,6928
1431.806229,8216,7217,6998
1430.864611,8206,7169,7085
1429.92283,8293.651546,7280.647407,7228
1428.980886,8381.318212,7392.314072,7152
1428.038781,8469,7504,7221
1427.096512,8549,7624,7146
1426.154081,8482,7506,7075
1425.211488,8482,7555,7034
1424.268732,8353,7541,7067
1423.325813,8233,7501,7079
1422.382732,8072,7323,6962
1421.439487,8001,7120,6819
1420.49608,7856,7179,6762
1419.55251,7699,7000,6646
1418.608778,7565,6899,6471
1417.664882,7471,6742,6429
1416.720824,7341,6600,6358
1415.776602,7294,6588,6192
1414.832218,7212,6557,6162
1413.88767,7207,6441,6094
1412.94296,7149,6435,6090
1411.998086,7081,6355,6016
1411.053049,7160,6471,5956
1410.107849,6928,6362,6013
1409.162486,7063,6282,6093
1408.216959,7031,6371,5976
1407.271269,6981,6297,6036
1406.325416,6966,6368,5966
1405.3794,7039,6227,5941
1404.43322,7057,6344,6062
1403.486876,7050,6326,5978
1402.54037,7066,6343,6020
1401.593699,7066,6467,6045
1400.646865,7117,6362,6023
1399.699868,7204,6342,6094
1398.752707,7205,6533,6057
1397.805382,7176,6474,6176
1396.857893,7410,6471,6126
1395.910241,7369,6666,6250
1394.962425,7354,6674,6379
1394.014445,7564,6590,6321
1393.066301,7508,6624,6367
1392.117994,7619,6634,6532
1391.169522,7834,6856,6567
1390.220887,7846,6900,6745
1389.272088,7837,6805,6759
1388.323124,8012,7076,6852
1387.373996,8056,7114,6872
1386.424705,8144,7180,6807
1385.475249,8139,7134,6807
1384.525629,8092,7241,6760
1383.575845,8057,7245,6775
1382.625896,7974,7177,6741
1381.675784,8023,7185,6709
1380.725506,7892,7098,6611
1379.775065,7669,7096,6587
1378.824459,7689,7021,6465
1377.873689,7565,6899,6494
1376.922754,7514,6901,6363
1375.971655,7416,6776,6339
1375.020391,7364,6752,6375
1374.068962,7339,6708,6278
1373.117369,7421,6602,6244
1372.165612,7381,6566,6222
1371.213689,7337,6609,6266
1370.261602,7335,6632,6268
1369.30935,7351,6498,6188
1368.356933,7275,6643,6268
1367.404352,7209,6523,6241
1366.451605,7331,6631,6243
1365.498694,7224,6456,6213
1364.545617,7253,6616,6220
1363.592376,7212,6565,6147
1362.638969,7152,6388,6181
1361.685398,7224,6463,6219
1360.731661,7150,6638,6075
1359.777759,7163,6592,6153
1358.823692,7258,6492,6166
1357.86946,7180,6575,6202
1356.915063,7177,6453,6065
1355.9605,7177,6428,6137
1355.005772,7181,6511,6151
1354.050878,7258,6456,6200
1353.095819,7147,6488,6100
1352.140595,7155,6453,6069
1351.185205,7302,6436,6191
1350.22965,7168,6456,6036
1349.273929,7185,6445,6067
1348.318042,7101,6435,6124
1347.36199,7244,6305,6108
1346.405772,7110,6433,6097
1345.449389,7143,6493,6009
1344.492839,7095,6458,6080
1343.536124,7104,6424,6079
1342.579243,7200,6361,6011
1341.622196,7144,6387,5978
1340.664984,7152,6292,6033
1339.707605,7105,6361,6093
1338.75006,7085,6287,6074
1337.79235,7121,6352,6075
1336.834473,7208,6450,6013
1335.87643,7029,6447,5939
1334.918222,7098,6336,6049
1333.959846,7080,6350,6080
1333.001305,7031,6408,5970
1332.042598,7036,6407,6073
1331.083724,7076,6342,6058
1330.124684,7073,6331,5979
1329.165477,7070,6392,6039
1328.206104,7104,6381,5986
1327.246565,7086,6305,6085
1326.286859,7033,6355,6017
1325.326987,7013,6334,6067
1324.366948,7102,6287,6003
1323.406743,7019,6289,6001
1322.446371,7044,6342,5949
1321.485832,7028,6357,6055
1320.525127,7008,6270,6135
1319.564255,7091,6380,5959
1318.603216,7098,6374,5997
1317.64201,7081,6294,6039
1316.680638,6981,6329,6055
1315.719099,7106,6354,6047
1314.757392,7166,6421,6056
1313.795519,7035,6295,5887
1312.833479,7134,6304,6008
1311.871271,7097,6344,6073
1310.908897,7092,6342,6211
1309.946356,7225,6362,6096
1308.983647,7150,6346,6049
1308.020771,7103,6471,6165
1307.057728,7194,6489,6047
1306.094518,7134,6393,6205
1305.13114,7128,6550,6006
1304.167595,7242,6472,6166
1303.203883,7287,6452,6163
1302.240003,7025,6460,6053
1301.275956,7048,6372,6158
1300.311741,7250,6387,6029
1299.347359,7155,6354,6020
1298.382809,7021,6281,6000
1297.418092,7105,6429,5967
1296.453207,7107,6398,6025
1295.488154,7097,6324,5988
1294.522934,6971,6354,6037
1293.557545,7096,6269,6039
1292.591989,7054,6297,5955
1291.626265,7002,6323,5901
1290.660374,7006,6337,5982
1289.694314,7035,6272,5969
1288.728086,7054,6220,5970
1287.761691,7046,6208,5993
1286.795127,7063,6255,5914
1285.828396,7001,6273,5908
1284.861496,7011,6229,5952
1283.894428,7004,6244,6000
1282.927192,6961,6237,5918
1281.959787,6965,6294,5904
1280.992215,7005,6252,5854
1280.024474,7056,6173,5952
1279.056565,7008,6250,5896
1278.088487,6926,6249,6011
1277.120241,7012,6266,5941
1276.151827,7032,6203,5867
1275.183244,6999,6256,5890
1274.214492,7066,6224,5906
1273.245572,6962,6267,5881
1272.276484,7001,6295,6026
1271.307226,7034,6116,5911
1270.3378,6942,6242,5960
1269.368206,6956,6188,5847
1268.398442,6959,6198,5888
1267.42851,7076,6307,5896
1266.458409,6938,6230,5858
1265.488139,7085,6207,5861
1264.5177,7024,6232,5891
1263.547092,6937,6152,5915
1262.576316,6957,6134,5956
1261.60537,6985,6198,5820
1260.634255,6983,6252,5943
1259.662971,6939,6264,5958
1258.691518,7035,6272,5831
1257.719896,6947,6192,5898
1256.748104,6904,6285,5863
1255.776143,6873,6228,5898
1254.804013,6970,6204,5895
1253.831714,7051,6203,5843
1252.859245,6988,6194,5851
1251.886607,6963,6218,5932
1250.913799,6970,6213,5801
1249.940822,6889,6161,5861
1248.967675,6985,6186,5915
1247.994359,6932,6266,5813
1247.020873,6962,6188,5876
1246.047217,6912,6125,5893
1245.073392,6930,6165,5910
1244.099397,6885,6166,5898
1243.125233,7031,6205,5812
1242.150898,6823,6198,5918
1241.176394,6896,6137,5824
1240.20172,6986,6171,5737
1239.226875,6877,6203,5766
1238.251861,6951,6206,5879
1237.276677,6827,6118,5894
1236.301323,6933,6173,5840
1235.325799,6969,6195,5856
1234.350104,6903,6127,5785
1233.37424,6894,6186,5840
1232.398205,6955,6067,5810
1231.422,6932,6165,5810
1230.445625,6893,6086,5836
1229.46908,6855,6091,5794
1228.492364,6821,6050,5818
1227.515478,6831,6101,5961
1226.538421,6855,6214,5838
1225.561194,6881,6140,5854
1224.583796,6888,6128,5827
1223.606228,6847,6119,5852
1222.628489,6822,6169,5736
1221.65058,6882,6161,5828
1220.6725,6832,6132,5788
1219.694249,6889,6087,5740
1218.715828,6861,6135,5743
1217.737236,6839,6112,5803
1216.758473,6863,6104,5725
1215.779539,6870,6101,5792
1214.800434,6762,6213,5842
1213.821158,6755,6082,5784
1212.841711,6849,6116,5898
1211.862094,6820,6018,5833
1210.882305,6909,6091,5826
1209.902345,6798,6183,5674
1208.922214,6834,6168,5742
1207.941912,6960,6136,5728
1206.961438,6857,6157,5786
1205.980794,6914,6035,5856
1204.999978,6846,6111,5805
1204.018991,6774,6086,5754
1203.037832,6964,6130,5780
1202.056502,6943,6097,5818
1201.075,6889,6075,5850
1200.093328,6932,6237,5746
1199.111483,6981,6258,5833
1198.129467,6917,6318,5904
1197.147279,6921,6208,5894
1196.16492,7002,6234,5925
1195.182389,7117,6272,5956
1194.199686,7168,6303,5877
1193.216812,6973,6377,5935
1192.233766,7160,6412,6059
1191.250547,7125,6418,6010
1190.267158,7144,6404,6001
1189.283596,7095,6326,6018
1188.299862,7069,6363,5954
1187.315956,7160,6389,6019
1186.331878,7205,6342,5909
1185.347628,7009,6240,6034
1184.363206,6997,6258,5874
1183.378612,7007,6197,5915
1182.393845,6983,6228,5856
1181.408906,6932,6236,5797
1180.423796,6845,6190,5891
1179.438512,6923,6191,5803
1178.453057,6909,6230,5935
1177.467429,6903,6106,5848
1176.481628,6980,6136,5850
1175.495655,6926,6145,5847
1174.50951,6998,6218,5806
1173.523192,6827,6125,5770
1172.536701,6965,6112,5838
1171.550038,6970,6156,5808
1170.563202,6841,6196,5806
1169.576193,6798,6215,5776
1168.589012,7020,6084,5852
1167.601658,6947,6058,5803
1166.614131,6921,6107,5880
1165.626431,6902,6182,5756
1164.638558,6925,6000,5864
1163.650512,6913,6133,5923
1162.662294,6974,6122,5759
1161.673902,6981,6213,5823
1160.685337,6948,6195,5836
1159.696599,6856,6099,5856
1158.707688,6998,6188,5878
1157.718604,6992,6204,5801
1156.729346,6960,6192,5874
1155.739915,7060,6250,5995
1154.750311,6895,6273,5982
1153.760534,7003,6278,6000
1152.770583,7162,6280,5992
1151.780459,7145,6273,5983
1150.790161,7195,6332,6161
1149.79969,7260,6348,6040
1148.809045,7181,6379,6166
1147.818227,7362,6492,6257
1146.827234,7391,6600,6332
1145.836069,7491,6655,6463
1144.844729,7654,6825,6480
1143.853216,7747,6934,6640
1142.861529,7774,7002,6798
1141.869668,8043,7080,6899
1140.877634,8025,7281,7041
1139.885425,7976.412563,7228.773856,7009
1138.893043,7927.816608,7176.538556,7222
1137.900486,7879.212132,7124.294098,7120
1136.907756,7830.599134,7072.040479,7015
1135.914851,7781.977612,7019.777698,6902
1134.921772,7733.347564,6967.505752,6860
1133.928519,7684.708988,6915.224639,6733
1132.935092,7636.061881,6862.934357,6498
1131.941491,7587.406243,6810.634904,6620
1130.947715,7538.74207,6758.326278,6303
1129.953765,7490.069362,6706.008477,6230
1128.959641,7441.388115,6653.681498,6199
1127.965342,7392.698328,6601.34534,6142
1126.970869,7344,6549,6012
1125.976222,7141,6557,5970
1124.9814,7236,6415,5958
1123.986403,7106,6279,5904
1122.991232,7091,6292,5892
1121.995886,6922,6289,5853
1121.000365,7009,6228,5855
1120.00467,6934,6216,5762
1119.0088,6893,6150,5813
1118.012755,6821,6155,5828
1117.016536,6832,6224,5839
1116.020141,6831,6136,5774
1115.023571,6981,6170,5773
1114.026827,6918,6094,5729
1113.029908,6935,6163,5814
1112.032813,6912,6122,5704
1111.035544,6872,6144,5764
1110.038099,6951,6066,5760
1109.040479,6841,6141,5776
1108.042684,6854,6027,5817
1107.044714,6825,6028,5796
1106.046568,6925,6103,5848
1105.048247,6962,6112,5786
1104.049751,6737,6093,5800
1103.051079,6799,6070,5772
1102.052232,6821,6033,5751
1101.053209,6812,6158,5698
1100.054011,6845,6158.888264,5796
1099.054637,6881,6159.776685,5798
1098.055088,6915,6160.665261,5798
1097.055363,6986,6161.553994,5734
1096.055462,6926,6162.442882,5727
1095.055386,6848,6163.331927,5814
1094.055134,6834,6164.221129,5844
1093.054706,6959,6165.110486,5780
1092.054102,6910,6166,5801
1091.053322,6850,6090,5780
1090.052366,6861,6193,5789
1089.051235,6975,6122,5765
1088.049927,6911,6181,5841
1087.048443,6898,6134,5803
1086.046783,6916,6192,5769
1085.044947,7011,6362,5839
1084.042935,7043,6243,5876
1083.040747,7034,6335,5839
1082.038382,7035,6202,5939
1081.035841,7123,6359,5900
1080.033124,7178,6398,5918
1079.03023,7238,6496,6099
1078.02716,7274,6566,5960
1077.023913,7389,6581,6036
1076.02049,7591,6634,6279
1075.016891,7495,6833,6306
1074.013114,7560,6739,6220
1073.009161,7646,6866,6318
1072.005032,7607,6630,6427
1071.000726,7609,6748,6498
1069.996243,7701,6812,6580
1068.991583,7817,6835,6530
1067.986746,7633,6801,6612
1066.981733,7574,6731,6477
1065.976542,7465,6537,6297
1064.971175,7345,6740,6333
1063.96563,7321,6654,6272
1062.959909,7268,6547,6340
1061.95401,7179,6487,6194
1060.947934,7027,6272,6073
1059.941682,6988,6236,5907
1058.935251,7025,6260,5857
1057.928644,6939,6149,5772
1056.92186,6901,6171,5829
1055.914898,6831,6152,5767
1054.907758,6830,6147,5762
1053.900442,6768,5990,5791
1052.892947,6865,5991,5716
1051.885276,6777,6014,5696
1050.877426,6735,6092,5662
1049.8694,6737,6042,5672
1048.861195,6760,6123,5677
1047.852813,6644,5996,5660
1046.844253,6782,5962,5669
1045.835516,6797,6004,5608
1044.8266,6606,5932,5640
1043.817507,6681,6014,5623
1042.808236,6772,6026,5739
1041.798787,6808,6043,5635
1040.78916,6802,5918,5647
1039.779355,6796,5993,5608
1038.769372,6685,5964,5698
1037.759211,6737,5930,5713
1036.748872,6732,5930,5712
1035.738355,6714,5928,5676
1034.72766,6762,5996,5712
1033.716786,6678,5921,5609
1032.705734,6683,5978,5690
1031.694503,6758,5971,5636
1030.683095,6717,5895,5694
1029.671508,6738,5973,5581
1028.659742,6672,5944,5725
1027.647798,6693,5981,5609
1026.635675,6715,6069,5651
1025.623374,6671,5895,5730
1024.610894,6596,5901,5628
1023.598236,6715,5949,5565
1022.585399,6650,5953,5603
1021.572383,6711,6026,5578
1020.559188,6766,5925,5657
1019.545814,6692,6029,5578
1018.532262,6650,5959,5628
1017.518531,6747,6031,5675
1016.504621,6690,5929,5651
1015.490531,6677,5962,5624
1014.476263,6605,5872,5557
1013.461816,6709,5912,5596
1012.447189,6671,5950,5545
1011.432383,6743,5985,5624
1010.417399,6569,5961,5593
1009.402235,6661,6006,5575
1008.386891,6850,5864,5633
1007.371368,6653,5853,5594
1006.355666,6866,5955,5675
1005.339785,6777,5953,5677
1004.323724,6743,6031,5697
1003.307483,6808,6087,5709
1002.291063,6878,5987,5704
1001.274464,6774,6011,5716
1000.257685,6719,5915,5619
999.2407258,6729,6046,5629
998.2235873,6770,5967,5689
997.2062689,6779,5944,5668
996.1887708,6777,5932,5652
995.1710929,6692,6034,5648
994.1532351,6738,5912,5632
993.1351974,6764,5977,5691
992.1169797,6759,5965,5555
991.098582,6726,5933,5640
990.0800042,6707,5953,5674
989.0612464,6662,6010,5667
988.0423085,6768,5980,5561
987.0231904,6707,6022,5660
986.003892,6730,5934,5582
984.9844134,6695,5953,5640
983.9647546,6733,5865,5659
982.9449153,6734,5874,5509
981.9248957,6798,5961,5595
980.9046957,6694,6016,5644
979.8843152,6668,5938,5622
978.8637542,6782,5933,5638
977.8430127,6713,5881,5595
976.8220905,6656,5920,5638
975.8009877,6747,5995,5630
974.7797043,6610,5969,5647
973.7582401,6625,5830,5488
972.7365952,6688,5969,5593
971.7147694,6606,5970,5626
970.6927628,6682,5942,5630
969.6705754,6529,5926,5648
968.6482069,6688,5917,5596
967.6256576,6668,5933,5626
966.6029272,6606,5936,5582
965.5800157,6564,5766,5505
964.5569231,6679,5862,5547
963.5336494,6558,5969,5556
962.5101945,6657,5878,5582
961.4865584,6550,5882,5583
960.462741,6543,5865,5486
959.4387423,6651,5904,5521
958.4145623,6633,5786,5524
957.3902008,6649,5845,5554
956.3656579,6517,5881,5451
955.3409335,6737,5894,5616
954.3160276,6679,5853,5561
953.2909401,6572,5927,5486
952.265671,6622,5864,5562
951.2402203,6560,5760,5539
950.2145878,6604,5784,5488
949.1887736,6481,5757,5514
948.1627777,6646,5855,5589
947.1365999,6590,5777,5467
946.1102402,6551,5915,5532
945.0836986,6627,5852,5550
944.0569751,6596,5843,5447
943.0300696,6589,5893,5475
942.002982,6618,5731,5487
940.9757123,6645,5773,5499
939.9482606,6598,5803,5452
938.9206266,6660,5841,5623
937.8928105,6564,5852,5450
936.8648121,6480,5840,5432
935.8366314,6497,5806,5536
934.8082683,6618,5871,5516
933.7797229,6533,5834,5531
932.750995,6589,5913,5483
931.7220847,6605,5800,5525
930.6929919,6556,5798,5485
929.6637165,6490,5771,5573
928.6342585,6600,5879,5526
927.6046179,6507,5835,5472
926.5747946,6559,5816,5524
925.5447886,6644,5829,5493
924.5145998,6667,5891,5482
923.4842282,6546,5892,5479
922.4536737,6593,5892,5503
921.4229363,6682,5782,5597
920.392016,6573,5849,5528
919.3609127,6617,5911,5568
918.3296264,6650,5905,5571
917.298157,6581,5842,5554
916.2665045,6618,5893,5556
915.2346689,6556,5864,5521
914.20265,6638,5909,5509
913.1704479,6549,5809,5589
912.1380626,6531,5795,5472
911.1054938,6547,5820,5535
910.0727418,6603,5866,5459
909.0398063,6567,5766,5637
908.0066873,6614,5899,5506
906.9733848,6550,5824,5592
905.9398988,6604,5909,5544
904.9062292,6598,5875,5524
903.872376,6547,5845,5560
902.8383391,6528,5763,5527
901.8041185,6720,5918,5417
900.7697141,6508,5863,5477
899.7351259,6623,5831,5456
898.7003538,6619,5818,5442
897.6653979,6590,5742,5485
896.630258,6579,5858,5536
895.5949342,6582,5860,5460
894.5594263,6515,5736,5557
893.5237344,6583,5851,5521
892.4878583,6459,5834,5529
891.4517981,6582,5809,5490
890.4155537,6619,5765,5503
889.3791251,6514,5763,5567
888.3425122,6519,5865,5470
887.305715,6517,5776,5490
886.2687333,6528,5813,5414
885.2315673,6535,5825,5534
884.1942168,6570,5752,5481
883.1566818,6465,5733,5413
882.1189623,6379,5813,5455
881.0810582,6556,5842,5486
880.0429694,6531,5781,5449
879.004696,6437,5782,5492
877.9662379,6596,5779,5416
876.9275949,6495,5778,5452
875.8887672,6486,5729,5481
874.8497547,6545,5749,5457
873.8105572,6515,5816,5360
872.7711748,6377,5686,5496
871.7316074,6520,5754,5476
870.691855,6449,5780,5383
869.6519176,6514,5705,5388
868.611795,6551,5731,5440
867.5714872,6511,5720,5411
866.5309943,6315,5797,5456
865.4903161,6500,5707,5342
864.4494526,6355,5732,5429
863.4084038,6473,5672,5351
862.3671696,6546,5673,5405
861.32575,6431,5656,5436
860.284145,6397,5693,5420
859.2423544,6314,5682,5462
858.2003783,6486,5714,5404
857.1582166,6485,5773,5455
856.1158692,6445,5718,5387
855.0733362,6422,5778,5381
854.0306174,6430,5720,5427
852.9877128,6482,5749,5390
851.9446225,6261,5719,5440
850.9013463,6436,5715,5365
849.8578842,6439,5668,5457
848.8142361,6560,5670,5399
847.770402,6354,5668,5356
846.726382,6412,5749,5343
845.6821758,6362,5706,5309
844.6377835,6395,5704,5405
843.593205,6458,5685,5422
842.5484404,6539,5708,5378
841.5034894,6363,5676,5414
840.4583522,6481,5765,5354
839.4130286,6468,5698,5355
838.3675187,6482,5668,5421
837.3218223,6366,5744,5381
836.2759394,6443,5652,5370
835.22987,6465,5681,5445
834.1836141,6559,5723,5428
833.1371715,6502,5704,5389
832.0905423,6399,5723,5412
831.0437263,6464,5802,5384
829.9967237,6412,5701,5381
828.9495342,6447,5732,5428
827.902158,6407,5764,5342
826.8545948,6490,5656,5428
825.8068447,6464,5777,5433
824.7589077,6353,5724,5445
823.7107836,6614,5679,5405
822.6624725,6495,5709,5477
821.6139743,6523,5809,5404
820.565289,6426,5719,5400
819.5164165,6493,5722,5411
818.4673567,6427,5758,5338
817.4181097,6400,5686,5310
816.3686753,6493,5760,5391
815.3190536,6454,5761,5420
814.2692445,6520,5651,5333
813.2192479,6358,5740,5336
812.1690638,6390,5570,5423
811.1186922,6439,5753,5323
810.068133,6441,5666,5431
809.0173861,6442,5649,5377
807.9664516,6394,5671,5345
806.9153294,6344,5755,5419
805.8640194,6483,5705,5317
804.8125216,6407,5625,5420
803.7608359,6449,5720,5362
802.7089623,6404,5606,5346
801.6569008,6414,5670,5361
800.6046513,6432,5743,5354.802216
799.5522138,6344,5656,5348.603324
798.4995882,6440,5649,5342.403324
797.4467744,6383,5629,5336.202216
796.3937725,6381,5725,5330
795.3405824,6404,5663,5254
794.287204,6281,5599,5318
793.2336373,6329,5667,5332
792.1798823,6370,5526,5244
791.1259389,6375,5610,5328
790.071807,6327,5611,5267
789.0174867,6264,5533,5319
787.9629778,6261,5572,5328
786.9082804,6288,5538,5299
785.8533943,6329,5611,5231
784.7983196,6235,5613,5301
783.7430562,6288,5650,5378
782.687604,6332,5650,5300
781.6319631,6325,5653,5345
780.5761332,6353,5630,5270
779.5201145,6391,5631,5346
778.4639069,6273,5492,5306
777.4075103,6189,5566,5327
776.3509247,6235,5600,5278
775.29415,6308,5667,5243
774.2371862,6232,5597,5224
773.1800332,6294,5606,5204
772.122691,6264,5647,5278
771.0651596,6321,5581,5232
770.0074389,6306,5530,5234
768.9495289,6309,5631,5209
767.8914295,6202,5681,5258
766.8331406,6280,5639,5275
765.7746623,6270,5553,5309
764.7159944,6193,5645,5198
763.657137,6285,5491,5192
762.59809,6233,5628,5238
761.5388533,6386,5509,5252
760.479427,6314,5599,5238
759.4198108,6197,5590,5275
758.3600049,6231,5554,5294
757.3000092,6243,5656,5301
756.2398236,6194,5624,5310
755.179448,6282,5609,5240
754.1188825,6345,5518,5290
753.058127,6313,5591,5224
751.9971814,6309,5569,5296
750.9360457,6346,5544,5207
749.8747198,6236,5528,5332
748.8132038,6322,5620,5261
747.7514974,6297,5529,5271
746.6896009,6309,5684,5347
745.6275139,6280,5641,5224
744.5652366,6298,5616,5303
743.5027689,6306,5572,5231
742.4401107,6192,5540,5285
741.377262,6338,5593,5221
740.3142227,6275,5538,5237
739.2509928,6295,5667,5267
738.1875723,6213,5539,5254
737.123961,6313,5586,5225
736.060159,6255,5599,5218
734.9961663,6286,5583,5272
733.9319826,6236,5589,5241
732.8676081,6190,5536,5277
731.8030427,6261,5541,5249
730.7382863,6386,5609,5290
729.6733389,6265,5586,5255
728.6082004,6279,5631,5223
727.5428708,6294,5517,5192
726.4773501,6185,5468,5204
725.4116381,6276,5644,5345
724.345735,6308,5553,5268
723.2796405,6187,5620,5127
722.2133546,6230,5610,5231
721.1468774,6182,5619,5298
720.0802088,6281,5636,5244
719.0133487,6272,5620,5301
717.946297,6270,5575,5224
716.8790538,6302,5549,5243
715.811619,6214,5600,5277
714.7439925,6314,5552,5254
713.6761743,6335,5538,5306
712.6081643,6282,5654,5303
711.5399626,6246,5539,5295
710.471569,6137,5558,5210
709.4029835,6135,5501,5269
708.3342061,6214,5500,5174
707.2652367,6163,5510,5212
706.1960753,6226,5522,5298
705.1267218,6210,5445,5202
704.0571762,6094,5478,5122
702.9874384,6088,5495,5259
701.9175084,6241,5403,5180
700.8473861,6206,5580,5156
699.7770715,6077,5454,5178
698.7065646,6128,5412,5099
697.6358653,6151,5496,5126
696.5649736,6122,5437,5143
695.4938893,6165,5422,5151
694.4226125,6116,5489,5138
693.3511432,6112,5466,5138
692.2794812,6133,5474,5125
691.2076265,6116,5332,5107
690.1355791,6134,5397,5141
689.063339,6150,5381,5120
687.990906,6012,5445,5198
686.9182802,6059,5429,5082
685.8454614,6152,5423,5189
684.7724497,6056,5426,5126
683.6992451,6170,5387,5134
682.6258473,6026,5384,5095
681.5522565,6135,5398,5160
680.4784725,6010,5347,5113
679.4044954,6147,5387,5123
678.330325,6143,5440,5159
677.2559614,6143,5384,5077
676.1814044,6165,5420,5108
675.106654,6129,5450,5079
674.0317103,6127,5487,5116
672.956573,6122,5405,5121
671.8812423,5996,5464,5179
670.805718,6034,5419,5065
669.7300001,6017,5403,5106
668.6540886,6074,5460,5160
667.5779833,6090,5381,5153
666.5016843,6083,5381,5186
665.4251916,5990,5399,5138
664.348505,6143,5418,5098
663.2716245,6054,5361,5089
662.19455,6082,5375,5105
661.1172816,6077,5361,5149
660.0398192,6173,5435,5092
658.9621627,6099,5481,5105
657.8843121,6057,5428,5096
656.8062674,6086,5454,5119
655.7280284,6083,5446,5095
654.6495951,6062,5421,5089
653.5709676,6029,5382,5101
652.4921457,6041,5476,5107
651.4131294,6097,5471,5108
650.3339187,6129,5411,5100
649.2545135,6027,5499,5114
648.1749137,5985,5298,5059
647.0951194,6080,5462,5066
646.0151304,6103,5451,5078
644.9349467,6047,5431,5153
643.8545684,6043,5386,5082
642.7739952,6100,5335,5076
641.6932273,6023,5433,5049
640.6122644,6015,5402,4999
639.5311067,6104,5398,5091
638.449754,5969,5381,5113
637.3682063,6091,5441,5062
636.2864635,5937,5402,5106
635.2045256,5980,5464,5076
634.1223926,6054,5340,5061
633.0400644,6062,5290,5151
631.9575409,6020,5354,5106
630.8748222,5917,5301,5014
629.7919081,5999,5288,4985
628.7087986,5965,5322,5019
627.6254937,6012,5306,4984
626.5419934,6001,5308,5092
625.4582975,5928,5318,5080
624.374406,6054,5269,5064
623.2903189,5981,5351,5041
622.2060361,5950,5341,5016
621.1215577,5941,5295,5004
620.0368834,5974,5324,5007
618.9520134,5956,5317,5040
617.8669475,6016,5435,5023
616.7816857,5957,5384,4947
615.6962279,5910,5228,5051
614.6105742,5967,5260,4944
613.5247244,5929,5320,4988
612.4386785,5854,5296,4992
611.3524364,5870,5348,5053
610.2659982,5919,5229,5072
609.1793638,5928,5238,5103
608.092533,5885,5321,4989
607.005506,5984,5232,4947
605.9182825,5930,5295,5046
604.8308626,5880,5231,4983
603.7432463,5934,5257,5035
602.6554334,5957,5319,4997
601.567424,5990,5270,5014
600.4792179,5986,5244,4976
599.3908152,5964,5227,4984
598.3022158,5899,5293,4948
597.2134196,5933,5283,5000
596.1244266,5862,5239,4947
595.0352368,5912,5258,5048
593.9458501,5870,5372,4964
592.8562664,5880,5236,4969
591.7664857,5911,5286,5021
590.676508,5853,5313,4887
589.5863331,5829,5260,5013
588.4959612,5968,5267,5021
587.405392,5935,5235,4924
586.3146257,5880,5222,4959
585.223662,5935,5297,4977
584.132501,5830,5259,5003
583.0411426,5884,5320,5016
581.9495868,5834,5255,5009
580.8578335,5994,5329,4988
579.7658827,5910,5175,4979
578.6737344,5822,5239,4925
577.5813884,5847,5196,4931
576.4888447,5898,5296,4960
575.3961034,5854,5150,5044
574.3031643,5893,5255,4958
573.2100273,5800,5228,4860
572.1166925,5857,5247,4884
571.0231598,5938,5302,4977
569.9294292,5849,5257,4930
568.8355005,5895,5196,4930
567.7413738,5871,5233,4867
566.647049,5790,5239,4875
565.5525261,5891,5240,4836
564.4578049,5821,5210,4895
563.3628856,5844,5182,4936
562.2677679,5820,5235,4933
561.1724519,5748,5175,4834
560.0769375,5802,5139,4846
558.9812246,5770,5141,4863
557.8853133,5840,5190,4910
556.7892035,5738,5182,4904
555.6928951,5749,5089,4952
554.596388,5802,5152,4848
553.4996823,5762,5123,4849
552.4027778,5737,5217,4892
551.3056746,5687,5144,4844
550.2083726,5675,5169,4864
549.1108717,5820,5170,4869
548.0131718,5822,5154,4841
546.915273,5710,5134,4932
545.8171752,5756,5216,4922
544.7188784,5671,5135,4890
543.6203824,5763,5201,4821
542.5216873,5811,5160,4879
541.4227929,5813,5154,4928
540.3236993,5798,5159,4919
539.2244064,5705,5216,4929
538.1249141,5659,5229,4870
537.0252225,5781,5176,4882
535.9253314,5703,5119,4882
534.8252408,5727,5137,4941
533.7249506,5753,5176,4820
532.6244609,5654,5177,4911
531.5237715,5693,5101,4913
530.4228824,5717,5064,4792
529.3217936,5707,5156,4829
528.2205049,5605,5128,4865
527.1190165,5698,5102,4867
526.0173282,5733,5087,4821
524.9154399,5703,5139,4876
523.8133516,5670,5123,4829
522.7110633,5732,5112,4790
521.6085749,5789,5154,4900
520.5058864,5636,5069,4782
519.4029978,5686,5127,4832
518.2999088,5661,5139,4755
517.1966197,5686,5154,4926
516.0931301,5784,5038,4828
514.9894402,5784,5157,4816
513.8855499,5648,5122,4857
512.7814591,5785,5136,4846
511.6771678,5593,5082,4801
510.572676,5672,5013,4787
509.4679835,5708,5067,4838
508.3630903,5683,5055,4825
507.2579964,5648,5156,4851
506.1527018,5697,5146,4828
505.0472063,5674,5089,4830
503.94151,5630,4995,4758
502.8356128,5675,5104,4792
501.7295146,5750,5054,4859
500.6232154,5680,5138,4815
499.5167151,5622,4999,4799
498.4100137,5703,5033,4803
497.3031112,5735,5070,4857
496.1960075,5640,4986,4831
495.0887025,5745,5119,4801
493.9811962,5676,5084,4868
492.8734885,5717,5117,4810
491.7655795,5698,5106,4873
490.657469,5714,5108,4871
489.549157,5641,5111,4770
488.4406434,5737,5174,4775
487.3319282,5710,5107,4771
486.2230114,5649,5141,4812
485.1138929,5665,5075,4850
484.0045727,5658,5081,4803
482.8950506,5628,5034,4830
481.7853267,5563,5085,4806
480.6754009,5606,5019,4786
479.5652732,5617,5074,4844
478.4549434,5503,5037,4749
477.3444117,5596,5039,4675
476.2336778,5582,5000,4720
475.1227418,5556,5013,4754
474.0116036,5516,4970,4725
472.9002631,5498,5029,4746
471.7887204,5537,4937,4738
470.6769753,5623,4938,4741
469.5650278,5580,4983,4744
468.4528779,5549,4961,4721
467.3405255,5474,5054,4773
466.2279706,5485,4992,4687
465.1152131,5570,4983,4676
464.0022529,5525,4956,4714
462.8890901,5506,4933,4697
461.7757245,5562,5009,4674
460.6621561,5490,4835,4704
459.5483849,5533,4938,4750
458.4344108,5573,5001,4645
457.3202338,5465,5020,4690
456.2058538,5483,4912,4636
455.0912707,5573,5056,4800
453.9764846,5552,4954,4752
452.8614954,5450,4952,4697
451.7463029,5560,4947,4651
450.6309072,5507,5013,4695
449.5153083,5574,4988,4697
448.399506,5522,4911,4666
447.2835003,5529,4953,4685
446.1672912,5494,4928,4676
445.0508786,5424,4941,4688
443.9342624,5466,4921,4638
442.8174427,5549,4994,4655
441.7004194,5487,4919,4721
440.5831923,5483,4939,4694
439.4657616,5449,5001,4665
438.348127,5451,4951,4647
437.2302887,5427,4881,4614
436.1122464,5470,4901,4644
434.9940002,5398,4875,4612
433.8755501,5458,4983,4666
432.7568959,5450,4976,4606
431.6380376,5357,4883,4685
430.5189751,5487,4894,4690
429.3997085,5431,4826,4637
428.2802377,5432,4927,4584
427.1605626,5375,4882,4621
426.0406832,5372,4856,4595
424.9205993,5330,4871,4557
423.8003111,5426,4868,4640
422.6798183,5375,4800,4609
421.559121,5390,4835,4599
420.4382192,5394,4832,4558
419.3171127,5371,4865,4661
418.1958015,5333,4911,4508
417.0742856,5322,4827,4517
415.9525649,5376,4825,4612
414.8306393,5421,4845,4648
413.7085089,5347,4888,4565
412.5861735,5366,4818,4618
411.4636332,5311,4871,4553
410.3408878,5315,4823,4633
409.2179373,5373,4853,4521
408.0947817,5341,4841,4610
406.9714209,5383,4795,4576
405.8478549,5290,4788,4538
404.7240836,5307,4795,4586
403.6001069,5263,4808,4594
402.4759249,5298,4820,4635
401.3515374,5289,4775,4562
400.2269444,5374,4795,4508
399.1021459,5308,4736,4598
397.9771418,5343,4818,4506
396.851932,5282,4871,4579
395.7265166,5401,4777,4549
394.6008954,5321,4805,4546.310645
393.4750684,5325,4806,4543.620799
392.3490355,5372,4762,4540.93046
391.2227968,5280,4811,4538.23963
390.0963521,5260,4808,4535.548307
388.9697015,5350,4792,4532.856493
387.8428447,5373,4771,4530.164186
386.7157819,5257,4764,4527.471387
385.588513,5322,4787,4524.778095
384.4610378,5371,4788,4522.084311
383.3333564,5338,4864,4519.390033
382.2054687,5226,4744,4516.695263
381.0773746,5232,4774,4514
379.9490741,5383,4849,4543
378.8205672,5305,4720,4559
377.6918537,5282,4797,4582
376.5629338,5289,4721,4601
375.4338072,5285,4774,4447
374.3044739,5254,4756,4513
373.1749339,5276,4782,4529
372.0451872,5228,4749,4493
370.9152337,5263,4712,4525
369.7850733,5224,4751,4553
368.654706,5201,4668,4500
367.5241317,5195,4740,4513
366.3933504,5203,4638,4491
365.2623621,5232,4695,4444
364.1311666,5239,4750,4492
362.999764,5216,4659,4486
361.8681541,5253,4711,4519
360.736337,5226,4699,4467
359.6043126,5177,4682,4469
358.4720807,5253,4688,4523
357.3396415,5180,4610,4427
356.2069948,5212,4660,4473
355.0741405,5197,4726,4512
353.9410787,5181,4687,4383
352.8078093,5142,4713,4423
