#Wave,#Intensity1,#Intensity2
2261.862186,6116,5567
2261.060512,6037,5415
2260.258706,6158,5514
2259.456768,6140,5576
2258.654698,6160,5567
2257.852495,6215,5546
2257.050161,6130,5528
2256.247694,6126,5498
2255.445094,6074,5547
2254.642363,6157,5613
2253.839499,5979,5565
2253.036502,6044,5503
2252.233374,6142,5494
2251.430112,6046,5436
2250.626719,6055,5561
2249.823192,6119,5549
2249.019534,6011,5465
2248.215742,6161,5533
2247.411818,6109,5484
2246.607762,6059,5515
2245.803573,6129,5576
2244.999251,6115,5537
2244.194796,6101,5525
2243.390209,6086,5523
2242.585489,6128,5574
2241.780636,6079,5562
2240.97565,6144,5570
2240.170532,6123,5626
2239.365281,6081,5601
2238.559896,6099,5543
2237.754379,6126,5522
2236.948729,6200,5596
2236.142946,6129,5586
2235.33703,6136,5559
2234.530981,6155,5589
2233.724799,6212,5576
2232.918484,6104,5574
2232.112035,6048,5575
2231.305454,6093,5568
2230.498739,6111,5573
2229.691891,6319,5642
2228.88491,6192,5566
2228.077796,6217,5611
2227.270548,6171,5643
2226.463167,6129,5586
2225.655653,6155,5560
2224.848005,6209,5647
2224.040224,6221,5645
2223.23231,6191,5603
2222.424262,6172,5622
2221.616081,6181,5570
2220.807766,6167,5538
2219.999318,6158,5643
2219.190736,6231,5632
2218.38202,6227,5590
2217.573171,6221,5633
2216.764188,6308,5617
2215.955072,6344,5646
2215.145822,6236,5632
2214.336438,6166,5704
2213.52692,6185,5713
2212.717269,6299,5672
2211.907484,6325,5709
2211.097565,6241,5684
2210.287512,6220,5658
2209.477325,6175,5704
2208.667005,6239,5668
2207.85655,6191,5537
2207.045961,6241,5725
2206.235239,6221,5653
2205.424382,6273,5609
2204.613392,6337,5690
2203.802267,6236,5668
2202.991008,6269,5690
2202.179615,6192,5726
2201.368088,6201,5677
2200.556426,6263,5766
2199.744631,6251,5723
2198.932701,6357,5692
2198.120637,6286,5691
2197.308438,6259,5674
2196.496105,6313,5724
2195.683638,6347,5617
2194.871037,6280,5738
2194.058301,6315,5693
2193.24543,6354,5705
2192.432425,6236,5733
2191.619286,6279,5801
2190.806012,6262,5753
2189.992604,6333,5647
2189.179061,6320,5677
2188.365383,6282,5731
2187.55157,6268,5682
2186.737623,6316,5802
2185.923542,6248,5707
2185.109325,6310,5672
2184.294974,6294,5675
2183.480488,6230,5681
2182.665867,6329,5755
2181.851112,6373,5669
2181.036221,6291,5736
2180.221196,6262,5701
2179.406035,6309,5652
2178.59074,6358,5668
2177.77531,6292,5644
2176.959744,6289,5667
2176.144044,6244,5722
2175.328208,6335,5757
2174.512238,6264,5734
2173.696132,6336,5737
2172.879892,6260,5584
2172.063516,6181,5700
2171.247004,6427,5706
2170.430358,6265,5658
2169.613576,6310,5736
2168.796659,6230,5689
2167.979607,6333,5681
2167.162419,6263,5714
2166.345096,6271,5654
2165.527638,6372,5678
2164.710044,6348,5831
2163.892314,6347,5731
2163.07445,6333,5786
2162.256449,6237,5730
2161.438313,6287,5669
2160.620042,6300,5700
2159.801635,6379,5684
2158.983092,6336,5766
2158.164414,6322,5738
2157.345599,6353,5699
2156.52665,6386,5688
2155.707564,6318,5757
2154.888343,6329,5650
2154.068986,6345,5770
2153.249493,6368,5766
2152.429864,6307,5757
2151.610099,6391,5783
2150.790198,6424,5706
2149.970162,6358,5685
2149.149989,6326,5789
2148.329681,6434,5787
2147.509236,6316,5794
2146.688655,6244,5797
2145.867938,6466,5787
2145.047086,6338,5804
2144.226097,6412,5649
2143.404971,6358,5709
2142.58371,6415,5832
2141.762312,6384,5761
2140.940778,6403,5805
2140.119108,6379,5769
2139.297302,6466,5793
2138.475359,6360,5810
2137.653279,6325,5789
2136.831064,6356,5787
2136.008712,6361,5761
2135.186223,6448,5760
2134.363598,6422,5883
2133.540837,6428,5733
2132.717938,6332,5849
2131.894904,6368,5855
2131.071732,6377,5735
2130.248425,6463,5816
2129.42498,6416,5819
2128.601399,6492,5785
2127.777681,6467,5775
2126.953826,6447,5796
2126.129834,6438,5757
2125.305706,6435,5779
2124.481441,6406,5833
2123.657039,6491,5812
2122.8325,6416,5831
2122.007824,6392,5861
2121.183011,6464,5878
2120.358061,6418,5858
2119.532975,6445,5839
2118.707751,6399,5793
2117.88239,6408,5912
2117.056892,6470,5810
2116.231257,6456,5839
2115.405484,6449,5849
2114.579575,6421,5850
2113.753528,6451,5909
2112.927344,6463,5926
2112.101023,6493,5868
2111.274565,6529,5910
2110.447969,6614,5877
2109.621236,6454,5793
2108.794365,6437,5879
2107.967357,6512,5803
2107.140212,6523,5885
2106.312929,6540,5918
2105.485509,6531,5948
2104.657951,6604,5843
2103.830255,6538,5866
2103.002422,6459,5961
2102.174452,6474,5866
2101.346344,6577,5835
2100.518098,6484,5924
2099.689714,6591,5958
2098.861193,6575,5977
2098.032533,6582,5933
2097.203736,6577,5909
2096.374802,6535,5856
2095.545729,6492,5996
2094.716519,6609,5932
2093.88717,6629,6030
2093.057684,6688,5975
2092.22806,6615,5819
2091.398297,6542,5971
2090.568397,6581,5917
2089.738359,6560,5850
2088.908182,6515,5873
2088.077868,6543,6017
2087.247415,6543,5905
2086.416824,6659,5960
2085.586095,6584,5924
2084.755228,6569,5977
2083.924222,6545,5868
2083.093078,6520,5974
2082.261796,6575,5959
2081.430376,6624,5968
2080.598817,6649,5963
2079.76712,6668,5777
2078.935284,6574,6041
2078.10331,6565,5925
2077.271197,6634,5929
2076.438946,6690,5912
2075.606556,6667,5890
2074.774028,6614,5992
2073.941361,6591,5891
2073.108556,6543,5943
2072.275612,6568,5906
2071.442529,6661,5999
2070.609307,6670,5896
2069.775947,6545,5976
2068.942448,6574,6008
2068.10881,6611,6022
2067.275033,6605,5904
2066.441117,6595.502373,6016
2065.607063,6586.003165,5977
2064.772869,6576.502374,5967
2063.938537,6567,5985
2063.104066,6638,6043
2062.269455,6566,5908
2061.434706,6619,5917
2060.599817,6533,5950
2059.764789,6704,6012
2058.929623,6609,5927
2058.094317,6657,5989
2057.258872,6600,6054
2056.423287,6686,5938
2055.587564,6657,5942
2054.751701,6600,5983
2053.915698,6581,6014
2053.079557,6642,5967
2052.243276,6641,5985
2051.406856,6679,5911
2050.570296,6641,5997
2049.733597,6647,5943
2048.896758,6540,6006
2048.05978,6680,5979
2047.222662,6703,6002
2046.385405,6696,5991
2045.548008,6694,5997
2044.710471,6703,5955
2043.872795,6634,5943
2043.034979,6592,5964
2042.197023,6713,6070
2041.358928,6690,5964
2040.520692,6757,6020
2039.682317,6610,6022
2038.843802,6689,5986
2038.005148,6626,6032
2037.166353,6699,5973
2036.327418,6673,5903
2035.488344,6846,6082
2034.649129,6764,6072
2033.809775,6726,6084
2032.97028,6733,5958
2032.130646,6603,6096
2031.290871,6678,5943
2030.450956,6695,6050
2029.610901,6730,6103
2028.770705,6646,6062
2027.93037,6741,5985
2027.089894,6704,6044
2026.249278,6754,5938
2025.408521,6711,6051
2024.567625,6669,6031
2023.726588,6667,6069
2022.88541,6727,5959
2022.044092,6703,6002
2021.202634,6687,6073
2020.361035,6835,6105
2019.519295,6790,6069
2018.677415,6700,6104
2017.835394,6824,5975
2016.993233,6670,6066
2016.150931,6773,6061
2015.308489,6707,5916
2014.465905,6749,6078
2013.623181,6708,6008
2012.780317,6806,6094
2011.937311,6801,6084
2011.094165,6855,6067
2010.250877,6807,6149
2009.407449,6716,6096
2008.56388,6834,6018
2007.72017,6820,6157
2006.876319,6881,6105
2006.032327,6903,6055
2005.188194,6829,6070
2004.34392,6903,6146
2003.499505,6787,6110
2002.654948,6806,6112
2001.810251,6801,6048
2000.965412,6768,6099
2000.120432,6877,6140
1999.275311,6848,6178
1998.430049,6863,6169
1997.584645,6778,6161
1996.7391,6857,6139
1995.893414,6844,6187
1995.047586,6907,6171
1994.201617,6916,6161
1993.355506,6952,6190
1992.509254,6874,6192
1991.66286,6854,6173
1990.816325,6928,6189
1989.969648,6830,6154
1989.122829,6851,6255
1988.275869,6937,6148
1987.428768,6888,6276
1986.581524,6852,6254
1985.734139,6907,6139
1984.886612,6852,6198
1984.038943,6880,6185
1983.191133,6959,6221
1982.34318,6889,6289
1981.495086,6952,6071
1980.64685,6868,6123
1979.798472,6928,6271
1978.949951,6960,6232
1978.101289,7028,6216
1977.252485,6990,6123
1976.403539,6965,6230
1975.554451,6991,6177
1974.70522,6912,6221
1973.855848,6907,6266
1973.006333,6892,6271
1972.156676,6956,6213
1971.306877,6928,6208
1970.456935,7046,6238
1969.606851,6953,6245
1968.756625,7035,6221
1967.906257,7037,6233
1967.055746,6997,6276
1966.205093,6928,6196
1965.354297,7058,6263
1964.503359,7013,6265
1963.652278,6939,6282.848171
1962.801054,6965,6300.699332
1961.949688,6985,6318.553483
1961.09818,6965,6336.410625
1960.246529,7015,6354.270758
1959.394735,7020,6372.133883
1958.542798,7022,6390
1957.690719,6969,6248
1956.838497,7033,6244
1955.986132,6995,6244
1955.133625,6966,6251
1954.280974,6971,6253
1953.428181,7083,6181
1952.575244,6899,6275
1951.722165,6978,6323
1950.868943,6963,6288
1950.015578,6906,6234
1949.162069,6968,6330
1948.308418,7039,6168
1947.454624,6967,6349
1946.600686,7054,6411
1945.746605,7057,6308
1944.892381,6914,6327
1944.038014,7047,6274
1943.183504,6953,6325
1942.32885,7098,6253
1941.474053,7130,6317
1940.619113,7127,6371
1939.764029,6983,6265
1938.908802,6954,6194
1938.053432,6927,6220
1937.197918,6991,6272
1936.34226,7124,6257
1935.486459,7045,6367
1934.630514,6951,6294
1933.774426,7035,6404
1932.918195,7076,6305
1932.061819,7046,6301
1931.2053,7061,6283
1930.348637,7042,6348
1929.49183,7038,6395
1928.63488,7115,6357
1927.777786,7036,6314
1926.920548,7095,6308
1926.063166,7072,6328
1925.20564,7100,6396
1924.347971,7146,6290
1923.490157,7115,6416
1922.632199,7020,6335
1921.774098,6971,6278
1920.915852,7094,6247
1920.057462,7004,6315
1919.198928,7059,6312
1918.34025,7186,6302
1917.481428,7055,6275
1916.622461,7104,6361
1915.763351,7160,6345
1914.904096,7073,6319
1914.044696,7147,6326
1913.185153,7133,6380
1912.325465,7064,6348
1911.465633,7195,6469
1910.605656,7172,6357
1909.745535,7208,6372
1908.885269,7159,6427
1908.024859,7099,6297
1907.164304,7115,6384
1906.303605,7018,6430
1905.442761,7206,6367
1904.581772,7157,6397
1903.720639,7074,6369
1902.859361,7029,6378
1901.997938,7100,6455
1901.136371,7029,6383
1900.274658,7096,6477
1899.412801,7191,6437
1898.550799,7154,6474
1897.688652,7175,6471
1896.826361,7173,6420
1895.963924,7235,6465
1895.101342,7194,6387
1894.238615,7163,6344
1893.375744,7162,6532
1892.512727,7149,6478
1891.649565,7207,6365
1890.786258,7163,6368
1889.922805,7313,6457
1889.059208,7170,6389
1888.195465,7077,6554
1887.331577,7306,6527
1886.467544,7207,6436
1885.603365,7213,6421
1884.739041,7218,6491
1883.874572,7295,6445
1883.009957,7266,6387
1882.145197,7251,6503
1881.280291,7362,6491
1880.41524,7305,6455
1879.550043,7195,6468
1878.684701,7243,6502
1877.819213,7194,6582
1876.95358,7326,6551
1876.0878,7280,6642
1875.221875,7401,6481
1874.355805,7235,6473
1873.489588,7320,6538
1872.623226,7219,6520
1871.756718,7401,6542
1870.890064,7194,6528
1870.023264,7357,6518
1869.156318,7300,6435
1868.289226,7272,6521
1867.421989,7237,6387
1866.554605,7214,6617
1865.687075,7264,6559
1864.819399,7211,6638
1863.951577,7335,6537
1863.083609,7245,6558
1862.215495,7275,6519
1861.347234,7266,6576
1860.478828,7291,6520
1859.610275,7343,6582
1858.741575,7303,6466
1857.87273,7285,6580
1857.003738,7186,6602
1856.134599,7351,6501
1855.265314,7374,6566
1854.395883,7273,6567
1853.526305,7408,6538
1852.656581,7414,6589
1851.78671,7322,6600
1850.916692,7321,6591
1850.046528,7388,6635
1849.176218,7358,6506
1848.30576,7345,6494
1847.435156,7380,6678
1846.564405,7372,6630
1845.693508,7352,6565
1844.822463,7397,6575.196561
1843.951272,7285,6585.394842
1843.079934,7422,6595.594841
1842.208448,7435,6605.796561
1841.336816,7346,6616
1840.465037,7384,6589
1839.593111,7392,6547
1838.721038,7389,6567
1837.848818,7397,6642
1836.976451,7343,6547
1836.103937,7265,6639
1835.231275,7444,6558
1834.358467,7342,6585
1833.485511,7412,6606
1832.612408,7412,6640
1831.739157,7306,6579
1830.86576,7475,6649
1829.992215,7347,6613
1829.118522,7471,6647
1828.244682,7398,6508
1827.370695,7434,6440
1826.49656,7381,6673
1825.622278,7375,6574
1824.747848,7475,6669
1823.87327,7496,6650
1822.998545,7281,6583
1822.123673,7362,6681
1821.248652,7459,6588
1820.373484,7427,6588
1819.498169,7501,6620
1818.622705,7470,6643
1817.747094,7413,6643
1816.871334,7528,6573
1815.995427,7313,6549
1815.119372,7369,6614
1814.24317,7335,6595
1813.366819,7416,6649
1812.49032,7470,6692
1811.613673,7430,6712
1810.736878,7431,6669
1809.859935,7469,6727
1808.982844,7450,6640
1808.105605,7397,6638
1807.228218,7469,6690
1806.350682,7294,6717
1805.472998,7524,6605
1804.595166,7475,6713
1803.717185,7549,6688
1802.839057,7453,6815
1801.960779,7432,6681
1801.082354,7421,6717
1800.20378,7582,6782
1799.325057,7534,6655
1798.446186,7556,6780
1797.567167,7470,6754
1796.687999,7383,6724
1795.808682,7468,6698
1794.929216,7556,6707
1794.049602,7707,6696
1793.16984,7547,6745
1792.289928,7485,6710
1791.409868,7446,6679
1790.529659,7540,6656
1789.649301,7481,6681
1788.768794,7525,6668
1787.888139,7576,6736
1787.007334,7593,6747
1786.126381,7546,6668
1785.245278,7577,6798
1784.364027,7574,6816
1783.482626,7625,6776
1782.601077,7727,6829
1781.719378,7543,6776
1780.83753,7595,6806
1779.955533,7660,6821
1779.073387,7504,6809
1778.191091,7659,6825
1777.308646,7577,6813
1776.426052,7628,6836
1775.543308,7644,6751
1774.660416,7589,6837
1773.777373,7613,6846
1772.894182,7656,6900
1772.01084,7792,6895
1771.12735,7706,6852
1770.243709,7762,6829
1769.359919,7638,6778
1768.47598,7552,6750
1767.591891,7677,6916
1766.707652,7708,6821
1765.823264,7777,6872
1764.938725,7672,6851
1764.054037,7600,6769
1763.1692,7694,6861
1762.284212,7601,6748
1761.399075,7601,6871
1760.513787,7707,6817
1759.62835,7637,6932
1758.742763,7672,6790
1757.857025,7701,6773
1756.971138,7829,6907
1756.085101,7684,6905
1755.198913,7772,6812
1754.312575,7722,6786
1753.426088,7765,6866
1752.53945,7704,6868
1751.652661,7647,6783
1750.765723,7702,6781
1749.878634,7710,6872
1748.991395,7642,6938
1748.104006,7737,6818
1747.216466,7740,6828
1746.328776,7770,6832
1745.440935,7649,6724
1744.552944,7662,6893
1743.664802,7594,6876
1742.77651,7743,6919
1741.888067,7787,6879
1740.999473,7662,6798
1740.110729,7767,6818
1739.221834,7830,6855
1738.332789,7673,6834
1737.443592,7701,6777
1736.554245,7869,6901
1735.664747,7790,6889
1734.775098,7722,6856
1733.885299,7782,6861
1732.995348,7691,6820
1732.105247,7723,6846
1731.214994,7622,6944
1730.32459,7741,6906
1729.434036,7701,6871
1728.54333,7674,6838
1727.652473,7781,7030
1726.761465,7710,6818
1725.870306,7680,6882
1724.978996,7728,6923
1724.087534,7700,6896
1723.195921,7753,6807
1722.304157,7688,6982
1721.412242,7680,6882
1720.520175,7636,7017
1719.627956,7795,6834
1718.735586,7623,6830
1717.843065,7634,6971
1716.950392,7627,6893
1716.057568,7703,6986
1715.164592,7860,6890
1714.271465,7821,6859
1713.378185,7780,6813
1712.484755,7728,6978
1711.591172,7809,6887
1710.697438,7647,6869
1709.803551,7859,6954
1708.909514,7660,6830
1708.015324,7886,6883
1707.120982,7805,6917
1706.226489,7778,6956
1705.331843,7844,6976
1704.437046,7814,6984
1703.542096,7775,6980
1702.646994,7599,6974
1701.751741,7818,7051
1700.856335,7923,6943
1699.960777,7777,7013
1699.065067,7809,7032
1698.169205,7814,7020
1697.27319,7700,7006
1696.377023,7895,7011
1695.480704,7845,7043
1694.584233,7931,7041
1693.687609,7961,7101
1692.790833,7769,6994
1691.893904,7743,7033
1690.996823,7833,7038
1690.099589,7918,7097
1689.202203,7964,6966
1688.304664,7848,7025
1687.406972,7936,7090
1686.509128,7935,7018
1685.611132,7805,7070
1684.712982,7870,7187
1683.81468,7967,7051
1682.916225,8012,7184
1682.017617,7983,7027
1681.118856,7966,7074
1680.219943,7928,7076
1679.320876,7963,7087
1678.421657,7974,7115
1677.522284,8022,7067
1676.622759,7952,7144
1675.72308,7958,7136
1674.823249,8012,7130
1673.923264,7917,7041
1673.023126,8001,7107
1672.122835,8036,7114
1671.222391,8070,7207
1670.321793,8006,7104
1669.421042,8012,7140
1668.520138,8032,7095
1667.619081,8028,7169
1666.71787,7918,7174
1665.816505,8067,7161
1664.914988,8068,7159
1664.013316,7980,7151
1663.111492,8036,7193
1662.209513,7951,7176
1661.307381,7957,7151
1660.405096,8111,7211
1659.502657,7992,7297
1658.600064,7935,7150
1657.697317,8104,7150
1656.794417,8086,7153
1655.891362,7902,7192
1654.988154,8098,7240
1654.084793,8009,7345
1653.181277,8045,7212
1652.277607,7979,7192
1651.373783,8116,7223
1650.469806,8102,7213
1649.565674,8051,7219
1648.661388,8114,7211
1647.756948,8086,7261
1646.852354,7992,7219
1645.947606,7984,7103
1645.042704,8052,7182
1644.137647,8124,7214
1643.232436,7961,7326
1642.327071,8040,7235
1641.421552,8036,7267
1640.515878,8091,7077
1639.61005,8083,7175
1638.704067,8178,7183
1637.79793,7987,7236
1636.891638,8097,7137
1635.985192,8218,7212
1635.078591,8123,7214
1634.171835,8126,7278
1633.264925,8062,7187
1632.357861,8149,7211
1631.450641,8121,7158
1630.543267,8135,7272
1629.635738,8139,7136
1628.728054,8118,7273
1627.820215,8092,7240
1626.912222,8072,7098
1626.004073,8138,7272
1625.09577,8237,7293
1624.187311,8186,7341
1623.278698,8102,7227
1622.36993,8182,7244
1621.461006,8102,7229
1620.551927,8101,7305
1619.642693,8103,7222
1618.733304,8197,7318
1617.82376,8189,7374
1616.914061,8171,7331
1616.004206,8182,7263
1615.094196,8204,7327
1614.18403,8306,7304
1613.273709,8221,7368
1612.363233,8277,7414
1611.452601,8278,7358
1610.541814,8168,7296
1609.630871,8168,7295
1608.719772,8157,7413
1607.808518,8251,7399
1606.897109,8304,7436
1605.985543,8288,7411
1605.073822,8232,7387
1604.161945,8304,7386
1603.249913,8211,7352
1602.337724,8319,7428
1601.42538,8173,7353
1600.51288,8412,7504
1599.600224,8268,7465
1598.687412,8238,7333
1597.774444,8311,7491
1596.86132,8185,7461
1595.94804,8297,7379
1595.034604,8470,7398.996582
1594.121012,8333,7418.996582
1593.207263,8434,7439
1592.293359,8398,7452
1591.379298,8396,7389
1590.465081,8442,7384
1589.550708,8429,7512
1588.636178,8519,7601
1587.721492,8613,7525
1586.806649,8409,7622
1585.89165,8437,7538
1584.976495,8675,7587
1584.061183,8520,7647
1583.145715,8593,7781
1582.23009,8601,7714
1581.314308,8544,7685
1580.39837,8582,7811
1579.482275,8744,7761
1578.566024,8663,7785
1577.649615,8939,7876
1576.73305,8810,7833
1575.816328,8920,7894
1574.899449,8880,7938
1573.982414,8774,7927
1573.065221,8878,7935
1572.147871,8903,8027
1571.230365,8834,7927
1570.312701,8914,7897
1569.394881,8813,7926
1568.476903,8712,7844
1567.558768,8758,7836
1566.640476,8650,7882
1565.722027,8798,7769
1564.80342,8780,7813
1563.884656,8505,7694
1562.965735,8608,7655
1562.046657,8580,7634
1561.127421,8482,7626
1560.208028,8560,7690
1559.288477,8529,7553
1558.368769,8570,7713
1557.448904,8485,7609
1556.528881,8515,7599
1555.6087,8401,7614
1554.688362,8441,7469
1553.767866,8460,7623
1552.847212,8481,7675
1551.9264,8488,7557
1551.005431,8366,7501
1550.084304,8274,7542
1549.163019,8501,7419
1548.241577,8392,7633
1547.319976,8527,7528
1546.398218,8386,7467
1545.476301,8380,7498
1544.554227,8419,7514
1543.631994,8399,7479
1542.709604,8471,7503
1541.787055,8424,7482
1540.864348,8342,7464
1539.941483,8371,7492
1539.01846,8320,7388
1538.095278,8399,7348
1537.171938,8392,7515
1536.24844,8321,7492
1535.324784,8365,7499
1534.400969,8440,7499
1533.476996,8476,7526
1532.552864,8432,7529
1531.628574,8371,7385
1530.704125,8394.244019,7492
1529.779517,8417.492024,7453
1528.854751,8440.744018,7462
1527.929827,8464,7550
1527.004744,8313,7407
1526.079502,8306,7492
1525.154101,8261,7441
1524.228541,8446,7496
1523.302823,8423,7373
1522.376946,8449,7382
1521.45091,8297,7451
1520.524715,8370,7504
1519.598361,8376,7397
1518.671848,8357,7473
1517.745176,8443,7436
1516.818345,8350,7544
1515.891354,8399,7446
1514.964205,8348,7431
1514.036897,8501,7371
1513.109429,8395,7420
1512.181802,8357,7444
1511.254016,8449,7526
1510.32607,8471,7503
1509.397965,8361,7548
1508.469701,8408,7493
1507.541278,8402,7467
1506.612694,8458,7505
1505.683952,8371,7436
1504.75505,8501,7474
1503.825988,8425,7456
1502.896767,8365,7459
1501.967386,8441,7452
1501.037845,8305,7518
1500.108145,8438,7540
1499.178285,8455,7449
1498.248265,8460,7440
1497.318085,8402,7445
1496.387746,8412,7475
1495.457246,8476,7513
1494.526587,8440,7420
1493.595768,8398,7515
1492.664788,8375,7524
1491.733649,8447,7615
1490.80235,8453,7501
1489.87089,8602,7620
1488.939271,8499,7547
1488.007491,8361,7587
1487.075551,8474,7549
1486.143451,8479,7378
1485.21119,8434,7630
1484.278769,8552,7595
1483.346188,8540,7527
1482.413447,8592,7595
1481.480545,8578,7540
1480.547482,8465,7602
1479.614259,8536,7613
1478.680876,8636,7657
1477.747332,8513,7619
1476.813627,8681,7797
1475.879762,8696,7728
1474.945736,8686,7727
1474.011549,8541,7693
1473.077202,8683,7669
1472.142694,8901,7802
1471.208025,8671,7807
1470.273195,8640,7788
1469.338204,8774,7830
1468.403053,8708,7734
1467.46774,8610,7722
1466.532266,8671,7719
1465.596632,8586,7690
1464.660836,8651,7853
1463.724879,8470,7743
1462.788761,8626,7737
1461.852482,8652,7692
1460.916042,8752,7695
1459.97944,8673,7721
1459.042677,8716,7692
1458.105753,8643,7714
1457.168667,8642,7792
1456.23142,8722,7878
1455.294012,8841,7764
1454.356442,8683,7710
1453.418711,8726,7864
1452.480818,8780,7695
1451.542763,8764,7945
1450.604547,8802,7814
1449.666169,8854,7875
1448.72763,8742,7853
1447.788928,8882,7951
1446.850065,8836,7855
1445.911041,8763,7971
1444.971854,8903,7976
1444.032506,8940,8018
1443.092995,9127,8201
1442.153323,9221,8173
1441.213489,9264,8220
1440.273492,9208,8281
1439.333334,9261,8318
1438.393014,9278,8360
1437.452531,9420,8461
1436.511886,9501,8429
1435.571079,9544,8634
1434.63011,9600,8649
1433.688979,9759,8677
1432.747685,9969,8680
1431.806229,9926,8835
1430.864611,9879,8989
1429.92283,10193,8995
1428.980886,9982,9048
1428.038781,10057,8998
1427.096512,10009,9021
1426.154081,10050,8925
1425.211488,10126,8972
1424.268732,9807,8983
1423.325813,9792,8848
1422.382732,9690,8630
1421.439487,9413,8521
1420.49608,9360,8408
1419.55251,9277,8428
1418.608778,9141,8311
1417.664882,9062,8198
1416.720824,8952,7985
1415.776602,8903,8036
1414.832218,8944,7973
1413.88767,8944.005773,7874
1412.94296,8944.011547,7797
1411.998086,8944.017322,7896
1411.053049,8944.023098,7814
1410.107849,8944.028875,7737
1409.162486,8944.034653,7863
1408.216959,8944.040432,7757
1407.271269,8944.046212,7806
1406.325416,8944.051993,7893
1405.3794,8944.057775,7838
1404.43322,8721,7817
1403.486876,8827,7829
1402.54037,8780,7914
1401.593699,8861,7859
1400.646865,8989,7893
1399.699868,9041,7804
1398.752707,8998,8066
1397.805382,8994,7984
1396.857893,9120,8099
1395.910241,9086,8248
1394.962425,9272,8098
1394.014445,9340,8222
1393.066301,9426,8518
1392.117994,9441,8416
1391.169522,9698,8643
1390.220887,9851,8785
1389.272088,9849,8898
1388.323124,9944,8841
1387.373996,9877,8929
1386.424705,9958,8902
1385.475249,9918,8798
1384.525629,9959,8919
1383.575845,9668,8788
1382.625896,9723,8748
1381.675784,9665,8648
1380.725506,9601,8521
1379.775065,9397,8570
1378.824459,9442,8397
1377.873689,9543,8369
1376.922754,9373,8311
1375.971655,9221,8374
1375.020391,9200,8293
1374.068962,9188,8254
1373.117369,9121,8153
1372.165612,9196,8194
1371.213689,9207,8085
1370.261602,9160,8221
1369.30935,9185,8211
1368.356933,9128,8305
1367.404352,9132,8119
1366.451605,9151,8230
1365.498694,9160,8171
1364.545617,9078,8166
1363.592376,9238,8149
1362.638969,9064,8009
1361.685398,9226,8199
1360.731661,9012,8168
1359.777759,9020,8125
1358.823692,9200,8080
1357.86946,9062,8122
1356.915063,9033,7955
1355.9605,9005,8006
1355.005772,9106,7979
1354.050878,9201,8022
1353.095819,9144,8040
1352.140595,9010,8061
1351.185205,8938,8003
1350.22965,8966,7992
1349.273929,9054,8133
1348.318042,9063,7993
1347.36199,9006,7986
1346.405772,8948,8030
1345.449389,8992,7910
1344.492839,8947,7991
1343.536124,8826,7896
1342.579243,8926,7908
1341.622196,8949,7891
1340.664984,8860,7965
1339.707605,8898,8029
1338.75006,8928,8007
1337.79235,8876,7909
1336.834473,9015,8071
1335.87643,8865,7854
1334.918222,8927,7983
1333.959846,8935,7957
1333.001305,8741,7870
1332.042598,9096,7975
1331.083724,8833,7957
1330.124684,9064,7906
1329.165477,8916,7828
1328.206104,8813,7860
1327.246565,8849,7734
1326.286859,8838,7913
1325.326987,8914,8057
1324.366948,8895,8007
1323.406743,8891,7914
1322.446371,8925,7872
1321.485832,8897,7851
1320.525127,8941,7922
1319.564255,8942,7883
1318.603216,8904,8062
1317.64201,8792,7968
1316.680638,8894,7862
1315.719099,8996,7830
1314.757392,8942,8103
1313.795519,8932,7866
1312.833479,8923,7955
1311.871271,8989,7948
1310.908897,8911,7943
1309.946356,8920,8011
1308.983647,9039,7956
1308.020771,9095,8060
1307.057728,8962,8122
1306.094518,9125,8085
1305.13114,9101,8048
1304.167595,8994,8006
1303.203883,8983,8056
1302.240003,8959,8052
1301.275956,9138,8050
1300.311741,8980,7986
1299.347359,9071,8032
1298.382809,8852,7937
1297.418092,8889,7898
1296.453207,8969,7889
1295.488154,8883,8042
1294.522934,8937,7978
1293.557545,8894,7776
1292.591989,8964,7992
1291.626265,8954,7855
1290.660374,8896,7887
1289.694314,8878,7819
1288.728086,8937,7982
1287.761691,8909,7860
1286.795127,8779,7874
1285.828396,8841,7831
1284.861496,9053,7996
1283.894428,8878,7954
1282.927192,8942,7858
1281.959787,8812,7966
1280.992215,8981,7966
1280.024474,8832,7934
1279.056565,8974,7943
1278.088487,8871,7965
1277.120241,8882,7966
1276.151827,8860,7966
1275.183244,8876,7950
1274.214492,8821,7791
1273.245572,8855,7807
1272.276484,8821,7965
1271.307226,8925,7914
1270.3378,8840,7914
1269.368206,8795,7875
1268.398442,8971,7843
1267.42851,9131,7978
1266.458409,8829,7839
1265.488139,8877,7924
1264.5177,8878,7809
1263.547092,8823,7789
1262.576316,8959,7878
1261.60537,8838,7838
1260.634255,8992,7884
1259.662971,8917,7888
1258.691518,8786,7894
1257.719896,8852,7938
1256.748104,8795,7900
1255.776143,8837,7799
1254.804013,8857,7996
1253.831714,9040,7769
1252.859245,8839,7837
1251.886607,8965,7907
1250.913799,8832,7781
1249.940822,8956,7934
1248.967675,8714,7847
1247.994359,8760,7794
1247.020873,8842,7806
1246.047217,8780,7844
1245.073392,8885,7832
1244.099397,8790,7814
1243.125233,8747,7824
1242.150898,8782,7800
1241.176394,8755,7811
1240.20172,8699,7788
1239.226875,8838,7833
1238.251861,8807,7791
1237.276677,8842,7790
1236.301323,8803,7837
1235.325799,8761,7792
1234.350104,8733,7639
1233.37424,8734,7824
1232.398205,8688,7800
1231.422,8744,7865
1230.445625,8761,7771
1229.46908,8856,7817
1228.492364,8692,7680
1227.515478,8703,7792
1226.538421,8781,7768
1225.561194,8748,7829
1224.583796,8738,7605
1223.606228,8897,7790
1222.628489,8718,7655
1221.65058,8650,7831
1220.6725,8753,7687
1219.694249,8682,7773
1218.715828,8768,7663
1217.737236,8670,7673
1216.758473,8776,7730
1215.779539,8676,7645
1214.800434,8725,7736
1213.821158,8689,7799
1212.841711,8763,7692
1211.862094,8693,7707
1210.882305,8639,7800
1209.902345,8698,7736
1208.922214,8814,7674
1207.941912,8726,7759
1206.961438,8770,7871
1205.980794,8713,7753
1204.999978,8794,7780
1204.018991,8750,7788
1203.037832,8754,7736
1202.056502,8921,7889
1201.075,8762,7822
1200.093328,8846,7788
1199.111483,8696,7781
1198.129467,8733,7837
1197.147279,8894,7824
1196.16492,9023,7991
1195.182389,9099,7838
1194.199686,8977,7979
1193.216812,8957,8037
1192.233766,9014,8101
1191.250547,8965,7962
1190.267158,9128,8088
1189.283596,9128,8048
1188.299862,8954,8056
1187.315956,9081,8001
1186.331878,8942,8077
1185.347628,8991,7961
1184.363206,9004,8079
1183.378612,8934,7940
1182.393845,8991,7913
1181.408906,8793,7907
1180.423796,8852,7857
1179.438512,9021,7906
1178.453057,8919,7857
1177.467429,8848,7781
1176.481628,8761,7896
1175.495655,8778,7776
1174.50951,8914,7738
1173.523192,8887,7962
1172.536701,8851,7755
1171.550038,8740,7766
1170.563202,8777,7861
1169.576193,8814,7861
1168.589012,8955,7880
1167.601658,8961,7835
1166.614131,9020,7817
1165.626431,8987,7881
1164.638558,8778,7856
1163.650512,8888,7806
1162.662294,8984,7855
1161.673902,8915,7893
1160.685337,8959,7949
1159.696599,8895,8013
1158.707688,8941,7972
1157.718604,8838,7865
1156.729346,9072,7994
1155.739915,9038,7918
1154.750311,9050,7971
1153.760534,9162,8109
1152.770583,9136,8031
1151.780459,9133,7980
1150.790161,9337,8265
1149.79969,9236,8178
1148.809045,9414,8324
1147.818227,9515,8516
1146.827234,9537,8402
1145.836069,9842,8613
1144.844729,9953,8722
1143.853216,10104,8861
1142.861529,10007,8924
1141.869668,10158,9107
1140.877634,10265,9108
1139.885425,10270,9210
1138.893043,10359,9362
1137.900486,10302,9278
1136.907756,10130,9258
1135.914851,10088,9139
1134.921772,10030,9007
1133.928519,9822,8951
1132.935092,9770,8683
1131.941491,9669,8644
1130.947715,9541,8516
1129.953765,9449,8394
1128.959641,9392,8229
1127.965342,9184,8299
1126.970869,9148,8106
1125.976222,9184,8096
1124.9814,9017,7993
1123.986403,9100,7939
1122.991232,8920,7869
1121.995886,8897,7895
1121.000365,8898,7987
1120.00467,8921,7995
1119.0088,8930,7884
1118.012755,8815,7847
1117.016536,8902,7802
1116.020141,8857,7901
1115.023571,8783,7940
1114.026827,8859,7810
1113.029908,8879,7839
1112.032813,8888,7821
1111.035544,8826,7743
1110.038099,8789,7787
1109.040479,8851,7903
1108.042684,8892,7775
1107.044714,8806,7886
1106.046568,8785,7836
1105.048247,8846,7825
1104.049751,8918,7837
1103.051079,8886,7782
1102.052232,8735,7798
1101.053209,8871,7906
1100.054011,8959,7915
1099.054637,8823,7992
1098.055088,8904,7839
1097.055363,8942,7870
1096.055462,8973,7955
1095.055386,8901,7910
1094.055134,8894,7902
1093.054706,8917,7898
1092.054102,9000,8015
1091.053322,8875,8014
1090.052366,8991,7971
1089.051235,8971,7890
1088.049927,8943,8001
1087.048443,9012,8017
1086.046783,9052,7959
1085.044947,9190,8080
1084.042935,9186,8153
1083.040747,9263,8067
1082.038382,9219,8076
1081.035841,9369,8360
1080.033124,9361,8309
1079.03023,9534,8450
1078.02716,9593,8441
1077.023913,9582,8597
1076.02049,9626,8524
1075.016891,9684,8620
1074.013114,9756,8611
1073.009161,9765,8677
1072.005032,9640,8651
1071.000726,9775,8713
1069.996243,9710,8663
1068.991583,9598,8743
1067.986746,9454,8729
1066.981733,9317,8599
1065.976542,9353,8500
1064.971175,9349,8272
1063.96563,9367,8309
1062.959909,9159,8286
1061.95401,9002,8240
1060.947934,9039,8041
1059.941682,9006,7939
1058.935251,8819,8008
1057.928644,8882,7979
1056.92186,8962,8003
1055.914898,8867,7807
1054.907758,8881,7894
1053.900442,8914,7716
1052.892947,8762,7922
1051.885276,8779,7762
1050.877426,8722,7787
1049.8694,8864,7780
1048.861195,8760,7809
1047.852813,8761,7756
1046.844253,8727,7584
1045.835516,8768,7693
1044.8266,8769,7838
1043.817507,8686,7704
1042.808236,8706,7702
1041.798787,8708,7788
1040.78916,8768,7693
1039.779355,8797,7766
1038.769372,8716,7749
1037.759211,8832,7827
1036.748872,8711,7611
1035.738355,8703,7686
1034.72766,8662,7767
1033.716786,8744,7660
1032.705734,8805,7699
1031.694503,8740,7758
1030.683095,8816,7730
1029.671508,8742,7740
1028.659742,8728,7821
1027.647798,8597,7744
1026.635675,8814,7720
1025.623374,8822,7738
1024.610894,8537,7739
1023.598236,8713,7643
1022.585399,8659,7729
1021.572383,8697,7766
1020.559188,8691,7697
1019.545814,8650,7758
1018.532262,8684,7664
1017.518531,8649,7679
1016.504621,8724,7721
1015.490531,8736,7738
1014.476263,8690,7770
1013.461816,8858,7677
1012.447189,8560,7788
1011.432383,8696,7730
1010.417399,8836,7751
1009.402235,8829,7756
1008.386891,8868,7707
1007.371368,8796,7896
1006.355666,8870,7823
1005.339785,8694,7806
1004.323724,8816,7664
1003.307483,8819,7843
1002.291063,8935,7696
1001.274464,8818,7769
1000.257685,8775,7784
999.2407258,8752,7743
998.2235873,8705,7721
997.2062689,8686,7822
996.1887708,8761,7907
995.1710929,8774,7802
994.1532351,8830,7838
993.1351974,8797,7750
992.1169797,8795,7826
991.098582,8737,7759
990.0800042,8767,7758
989.0612464,8827,7748
988.0423085,8809,7720
987.0231904,8775,7665
986.003892,8776,7768
984.9844134,8844,7717
983.9647546,8822,7673
982.9449153,8763,7860
981.9248957,8881,7707
980.9046957,8815,7701
979.8843152,8748,7795
978.8637542,8719,7696
977.8430127,8742,7774
976.8220905,8722,7662
975.8009877,8713,7715
974.7797043,8778,7758
973.7582401,8665,7882
972.7365952,8762,7769
971.7147694,8754,7786
970.6927628,8690,7731
969.6705754,8714,7613
968.6482069,8715,7778
967.6256576,8726,7708
966.6029272,8692,7697
965.5800157,8785,7712
964.5569231,8669,7654
963.5336494,8737,7671
962.5101945,8617,7686
961.4865584,8656,7691
960.462741,8599,7653
959.4387423,8643,7698
958.4145623,8767,7642
957.3902008,8605,7632
956.3656579,8698,7578
955.3409335,8691,7542
954.3160276,8620,7585
953.2909401,8641,7531
952.265671,8564,7602
951.2402203,8642,7744
950.2145878,8641,7612
949.1887736,8614,7612
948.1627777,8541,7694
947.1365999,8534,7580
946.1102402,8716,7669
945.0836986,8721,7655
944.0569751,8633,7695
943.0300696,8615,7657
942.002982,8677,7578
940.9757123,8532,7599
939.9482606,8636,7704
938.9206266,8624,7658
937.8928105,8670,7686
936.8648121,8689,7752
935.8366314,8673,7699
934.8082683,8655,7683
933.7797229,8570,7598
932.750995,8621,7668
931.7220847,8692,7653
930.6929919,8673,7627
929.6637165,8553,7653
928.6342585,8536,7706
927.6046179,8687,7647
926.5747946,8549,7675
925.5447886,8598,7689
924.5145998,8648,7673
923.4842282,8699,7657
922.4536737,8798,7639
921.4229363,8694,7696
920.392016,8707,7764
919.3609127,8709,7722
918.3296264,8719,7656
917.298157,8687,7843
916.2665045,8598,7746
915.2346689,8702,7736
914.20265,8783,7644
913.1704479,8728,7668
912.1380626,8714,7736
911.1054938,8619,7661
910.0727418,8679,7680
909.0398063,8736,7686
908.0066873,8676,7634
906.9733848,8682,7671
905.9398988,8810,7796
904.9062292,8655,7568
903.872376,8762,7819
902.8383391,8653,7712
901.8041185,8808,7707
900.7697141,8683,7589
899.7351259,8670,7625
898.7003538,8737,7754
897.6653979,8807,7737
896.630258,8695,7711
895.5949342,8688,7685
894.5594263,8546,7575
893.5237344,8770,7701
892.4878583,8699,7745
891.4517981,8699,7658
890.4155537,8587,7714
889.3791251,8738,7636
888.3425122,8682,7660
887.305715,8777,7650
886.2687333,8618,7582
885.2315673,8822,7638
884.1942168,8695,7618
883.1566818,8690,7636
882.1189623,8690,7708
881.0810582,8725,7543
880.0429694,8668,7652
879.004696,8691,7685
877.9662379,8681,7553
876.9275949,8580,7494
875.8887672,8468,7520
874.8497547,8570,7512
873.8105572,8515,7692
872.7711748,8604,7641
871.7316074,8558,7592
870.691855,8541,7515
869.6519176,8598,7584
868.611795,8619,7590
867.5714872,8481,7653
866.5309943,8476,7476
865.4903161,8540,7622
864.4494526,8581,7516
863.4084038,8513,7519
862.3671696,8616,7524
861.32575,8553,7601
860.284145,8502,7468
859.2423544,8541,7526
858.2003783,8510,7565
857.1582166,8507,7579
856.1158692,8586,7591
855.0733362,8493,7463
854.0306174,8531,7527
852.9877128,8597,7561
851.9446225,8521,7463
850.9013463,8493,7577
849.8578842,8438,7535
848.8142361,8654,7573
847.770402,8493,7555
846.726382,8600,7553
845.6821758,8525,7548
844.6377835,8487,7541
843.593205,8450,7621
842.5484404,8643,7526
841.5034894,8515,7566
840.4583522,8630,7690
839.4130286,8585,7626
838.3675187,8637,7535
837.3218223,8454,7534
836.2759394,8590,7606
835.22987,8607,7576
834.1836141,8610,7661
833.1371715,8558,7434
832.0905423,8700,7568
831.0437263,8548,7459
829.9967237,8670,7610
828.9495342,8533,7627
827.902158,8752,7632
826.8545948,8666,7568
825.8068447,8562,7624
824.7589077,8696,7641
823.7107836,8613,7643
822.6624725,8701,7639
821.6139743,8691,7700
820.565289,8600,7584
819.5164165,8625,7617
818.4673567,8632,7568
817.4181097,8620,7646
816.3686753,8670,7450
815.3190536,8701,7610
814.2692445,8630,7655
813.2192479,8579,7565
812.1690638,8568,7533
811.1186922,8674,7522
810.068133,8527,7585
809.0173861,8586,7590
807.9664516,8566,7588
806.9153294,8583,7579
805.8640194,8528,7548
804.8125216,8634,7546
803.7608359,8521,7608
802.7089623,8565,7504
801.6569008,8544,7584
800.6046513,8522,7495
799.5522138,8586,7620
798.4995882,8454,7460
797.4467744,8369,7565
796.3937725,8527,7615
795.3405824,8511,7555
794.287204,8424,7445
793.2336373,8510,7543
792.1798823,8464,7510
791.1259389,8504,7466
790.071807,8336,7468
789.0174867,8412,7336
787.9629778,8450,7506
786.9082804,8497,7363
785.8533943,8591,7535
784.7983196,8455,7522
783.7430562,8458,7427
782.687604,8398,7432
781.6319631,8468,7428
780.5761332,8336,7510
779.5201145,8404,7420
778.4639069,8358,7422
777.4075103,8409,7369
776.3509247,8490,7462
775.29415,8410,7525
774.2371862,8397,7478
773.1800332,8450,7436
772.122691,8439,7417
771.0651596,8371,7440
770.0074389,8546,7462
768.9495289,8416,7407
767.8914295,8440,7481
766.8331406,8325,7489
765.7746623,8389,7433
764.7159944,8429,7347
763.657137,8361,7516
762.59809,8440,7487
761.5388533,8372,7444
760.479427,8417,7406
759.4198108,8270,7392
758.3600049,8498,7429
757.3000092,8443,7499
756.2398236,8483,7384
755.179448,8536,7474
754.1188825,8555,7411
753.058127,8359,7441
751.9971814,8521,7493
750.9360457,8550,7460
749.8747198,8364,7523
748.8132038,8439,7414
747.7514974,8445,7494
746.6896009,8443,7505
745.6275139,8346,7458
744.5652366,8508,7513
743.5027689,8458,7417
742.4401107,8423,7405
741.377262,8507,7389
740.3142227,8517,7425
739.2509928,8434,7473
738.1875723,8390,7504
737.123961,8546,7547
736.060159,8461,7477
734.9961663,8514,7471
733.9319826,8558,7490
732.8676081,8627,7440
731.8030427,8464,7589
730.7382863,8295,7424
729.6733389,8460,7429
728.6082004,8444,7506
727.5428708,8433,7498
726.4773501,8350,7451
725.4116381,8584,7417
724.345735,8325,7445
723.2796405,8540,7362
722.2133546,8425,7448
721.1468774,8525,7496
720.0802088,8382,7476
719.0133487,8505,7474
717.946297,8456,7524
716.8790538,8488,7284
715.811619,8409,7386
714.7439925,8325,7464
713.6761743,8344,7465
712.6081643,8355,7423
711.5399626,8400,7367
710.471569,8325,7418
709.4029835,8406,7402
708.3342061,8350,7343
707.2652367,8370,7410
706.1960753,8303,7236
705.1267218,8227,7317
704.0571762,8323,7241
702.9874384,8344,7318
701.9175084,8369,7358
700.8473861,8202,7345
699.7770715,8256,7323
698.7065646,8267,7298
697.6358653,8131,7163
696.5649736,8199,7242
695.4938893,8202,7300
694.4226125,8080,7337
693.3511432,8172,7286
692.2794812,8199,7348
691.2076265,8164,7232
690.1355791,8174,7303
689.063339,8196,7316
687.990906,8240,7236
686.9182802,8240,7277
685.8454614,8199,7303
684.7724497,8243,7276
683.6992451,8249,7245
682.6258473,8223,7310
681.5522565,8260,7326
680.4784725,8240,7321
679.4044954,8279,7325
678.330325,8264,7276
677.2559614,8228,7222
676.1814044,8325,7343
675.106654,8244,7229
674.0317103,8221,7279
672.956573,8267,7196
671.8812423,8255,7304
670.805718,8209,7287
669.7300001,8301,7372
668.6540886,8256,7270
667.5779833,8179,7257
666.5016843,8231,7115
665.4251916,8335,7330
664.348505,8316,7289
663.2716245,8297,7327
662.19455,8224,7298
661.1172816,8243,7377
660.0398192,8232,7281
658.9621627,8287,7354
657.8843121,8279,7263
656.8062674,8248,7392
655.7280284,8201,7322
654.6495951,8323,7265
653.5709676,8302,7309
652.4921457,8398,7316
651.4131294,8300,7254
650.3339187,8238,7258
649.2545135,8190,7370
648.1749137,8163,7308
647.0951194,8250,7329
646.0151304,8296,7283
644.9349467,8283,7307
643.8545684,8127,7252
642.7739952,8152,7329
641.6932273,8107,7310
640.6122644,8314,7184
639.5311067,8348,7293
638.449754,8091,7209
637.3682063,8082,7223
636.2864635,8207,7248
635.2045256,8190,7239
634.1223926,8193,7190
633.0400644,8177,7102
631.9575409,8175,7177
630.8748222,8087,7240
629.7919081,8224,7279
628.7087986,8218,7157
627.6254937,8110,7298
626.5419934,8065,7231
625.4582975,8112,7160
624.374406,8119,7128
623.2903189,8118,7159
622.2060361,8136,7123
621.1215577,8032,7173
620.0368834,8068,7152
618.9520134,7989,7190
617.8669475,8035,7214
616.7816857,8053,7107
615.6962279,8102,7095
614.6105742,8135,7107
613.5247244,7919,7079
612.4386785,8092,7034
611.3524364,8162,7105
610.2659982,8009,7162
609.1793638,8081,7154
608.092533,8141,7076
607.005506,7978,7165
605.9182825,8041,7093
604.8308626,8103,7125
603.7432463,8000,7102
602.6554334,8085,7081
601.567424,8021,7183
600.4792179,8019,7161
599.3908152,8067,7115
598.3022158,8138,7106
597.2134196,7974,7015
596.1244266,8022,7155
595.0352368,8126,7186
593.9458501,8042,7198
592.8562664,8069,7078
591.7664857,7982,7145
590.676508,8033,7102
589.5863331,8099,7046
588.4959612,8077,7102
587.405392,8044,7148
586.3146257,7999,7039
585.223662,8078,7080
584.132501,7897,7162
583.0411426,8104,7076
581.9495868,8053,7221
580.8578335,8114,7086
579.7658827,7944,7072
578.6737344,8035,7063
577.5813884,7927,7015
576.4888447,8076,7109
575.3961034,8053,7050
574.3031643,8039,7003
573.2100273,8075,7104
572.1166925,7910,7072
571.0231598,8007,7036
569.9294292,7845,7135
568.8355005,7928,7009
567.7413738,8018,6948
566.647049,8003,6967
565.5525261,7900,7000
564.4578049,7936,7095
563.3628856,7932,7024
562.2677679,7928,6993
561.1724519,7881,6980
560.0769375,7829,7016
558.9812246,7940,7041
557.8853133,7882,7002
556.7892035,7834,6926
555.6928951,7828,6957
554.596388,7849,6927
553.4996823,7982,7003
552.4027778,7865,6989
551.3056746,7890,7021
550.2083726,7841,6883
549.1108717,7880,6935
548.0131718,7791,6966
546.915273,7947,6945
545.8171752,7869,7001
544.7188784,7833,6962
543.6203824,7814,6949
542.5216873,7873,7001
541.4227929,7805,6966
540.3236993,7889,7055
539.2244064,7878,6887
538.1249141,7821,6878
537.0252225,7620,6914
535.9253314,7739,6925
534.8252408,7834,6962
533.7249506,7817,6895
532.6244609,7829,6943
531.5237715,7769,6903
530.4228824,7891,6937
529.3217936,7842,6866
528.2205049,7945,6965
527.1190165,7795,6916
526.0173282,7782,6860
524.9154399,7876,7000
523.8133516,7831,6868
522.7110633,7777,6926
521.6085749,7838,6988
520.5058864,7790,6833
519.4029978,7858,6936
518.2999088,7904,6882
517.1966197,7765,6867
516.0931301,7897,6823
514.9894402,7796,6824
513.8855499,7615,6934
512.7814591,7798,6965
511.6771678,7868,6976
510.572676,7814,6893
509.4679835,7767,6983
508.3630903,7659,6851
507.2579964,7778,6930
506.1527018,7770,6913
505.0472063,7806,6927
503.94151,7751,6947
502.8356128,7716,6801
501.7295146,7778,6915
500.6232154,7765,6874
499.5167151,7664,6876
498.4100137,7699,6836
497.3031112,7741,6915
496.1960075,7747,6882
495.0887025,7683,6845
493.9811962,7667,6800
492.8734885,7682,6923
491.7655795,7659,6713
490.657469,7697,6901
489.549157,7757,6800
488.4406434,7740,6915
487.3319282,7676,6793
486.2230114,7685,6828
485.1138929,7619,6735
484.0045727,7661,6770
482.8950506,7610,6792
481.7853267,7739,6862
480.6754009,7614,6827
479.5652732,7597,6679
478.4549434,7663,6740
477.3444117,7537,6796
476.2336778,7587,6671
475.1227418,7536,6722
474.0116036,7605,6748
472.9002631,7566,6805
471.7887204,7690,6719
470.6769753,7626,6806
469.5650278,7554,6844
468.4528779,7582,6675
467.3405255,7583,6642
466.2279706,7528,6751
465.1152131,7704,6758
464.0022529,7533,6623
462.8890901,7511,6722
461.7757245,7642,6853
460.6621561,7506,6673
459.5483849,7566,6746
458.4344108,7487,6745
457.3202338,7578,6777
456.2058538,7487,6753
455.0912707,7614,6663
453.9764846,7602,6772
452.8614954,7562,6753
451.7463029,7536,6726
450.6309072,7554,6663
449.5153083,7553,6680
448.399506,7552,6745
447.2835003,7596,6583
446.1672912,7492,6694
445.0508786,7581,6826
443.9342624,7575,6637
442.8174427,7526,6752
441.7004194,7639,6724
440.5831923,7455,6695
439.4657616,7467,6695
438.348127,7462,6633
437.2302887,7367,6751
436.1122464,7554,6633
434.9940002,7535,6586
433.8755501,7542,6623
432.7568959,7496,6596
431.6380376,7403,6538
430.5189751,7411,6513
429.3997085,7455,6607
428.2802377,7436,6653
427.1605626,7409,6505
426.0406832,7445,6513
424.9205993,7373,6578
423.8003111,7353,6550
422.6798183,7354,6521
421.559121,7417,6625
420.4382192,7321,6603
419.3171127,7419,6509
418.1958015,7309,6603
417.0742856,7322,6528
415.9525649,7291,6515
414.8306393,7374,6444
413.7085089,7398,6502
412.5861735,7314,6532
411.4636332,7339,6495
410.3408878,7327,6488
409.2179373,7268,6488
408.0947817,7317,6436
406.9714209,7302,6538
405.8478549,7387,6471
404.7240836,7244,6533
403.6001069,7316,6513
402.4759249,7304,6397
401.3515374,7317,6379
400.2269444,7133,6406
399.1021459,7230,6404
397.9771418,7293,6395
396.851932,7250,6488
395.7265166,7298,6384
394.6008954,7241,6420
393.4750684,7250,6506
392.3490355,7244,6424
391.2227968,7312,6408
390.0963521,7360,6418
388.9697015,7367,6416
387.8428447,7257,6466
386.7157819,7313,6419
385.588513,7388,6442
384.4610378,7180,6453
383.3333564,7255,6510
382.2054687,7316,6458
381.0773746,7219,6469
379.9490741,7212,6483
378.8205672,7223,6391
377.6918537,7293,6446
376.5629338,7216,6468
375.4338072,7261,6450
374.3044739,7217,6334
373.1749339,7163,6354
372.0451872,7180,6473
370.9152337,7062,6339
369.7850733,7136,6390
368.654706,7147,6373
367.5241317,7129,6383
366.3933504,7123,6372
365.2623621,7102,6378
364.1311666,7047,6311
362.999764,7101,6301
361.8681541,7032,6244
360.736337,7062,6281
359.6043126,7056,6323
358.4720807,7079,6246
357.3396415,6986,6326
356.2069948,7007,6216
355.0741405,6998,6174
353.9410787,7003,6195
352.8078093,7040,6226
