#Wave,#Intensity1,#Intensity2,#Intensity3
2261.862186,6540,5562,5133
2261.060512,6649,5622,5166
2260.258706,6635,5627,5219
2259.456768,6627,5646,5200
2258.654698,6594,5720,5268
2257.852495,6680,5664,5237
2257.050161,6565,5600,5286
2256.247694,6593,5699,5271
2255.445094,6490,5588,5149
2254.642363,6703,5678,5207
2253.839499,6568,5578,5150
2253.036502,6621,5601,5107
2252.233374,6614,5596,5105
2251.430112,6646,5631,5245
2250.626719,6564,5554,5235
2249.823192,6505,5542,5134
2249.019534,6627,5628,5154
2248.215742,6613,5660,5221
2247.411818,6581,5598,5203
2246.607762,6600,5610,5228
2245.803573,6623,5674,5216
2244.999251,6554,5597,5219
2244.194796,6669,5658,5218.400198
2243.390209,6551,5622,5217.800297
2242.585489,6585,5717,5217.200297
2241.780636,6622,5616,5216.600198
2240.97565,6656,5711,5216
2240.170532,6726,5680,5292
2239.365281,6552,5710,5178
2238.559896,6643,5661,5213
2237.754379,6654,5678,5189
2236.948729,6567,5615,5256
2236.142946,6621,5638,5209
2235.33703,6632,5738,5201
2234.530981,6648,5702,5298
2233.724799,6665,5609,5373
2232.918484,6650,5641,5206
2232.112035,6561,5669,5183
2231.305454,6639,5658,5235
2230.498739,6701,5690,5279
2229.691891,6605,5717,5263
2228.88491,6655,5634,5241
2228.077796,6631,5745,5231
2227.270548,6718,5668,5189
2226.463167,6704,5752,5255
2225.655653,6698,5739,5215
2224.848005,6619,5736,5309
2224.040224,6771,5689,5217
2223.23231,6664,5694,5226
2222.424262,6821,5704,5251
2221.616081,6667,5716,5236
2220.807766,6791,5710,5255
2219.999318,6713,5739,5247
2219.190736,6655,5711,5285
2218.38202,6672,5672,5307
2217.573171,6712,5817,5225
2216.764188,6786,5791,5208
2215.955072,6730,5797,5226
2215.145822,6687,5693,5268
2214.336438,6716,5676,5262
2213.52692,6701,5701,5299
2212.717269,6623,5694,5265
2211.907484,6822,5729,5254
2211.097565,6798,5702,5283
2210.287512,6786,5721,5320
2209.477325,6792,5706,5237
2208.667005,6827,5765,5277
2207.85655,6697,5655,5332
2207.045961,6736,5750,5289
2206.235239,6670,5762,5313
2205.424382,6775,5731,5246
2204.613392,6730,5807,5400
2203.802267,6842,5762,5339
2202.991008,6780,5751,5310
2202.179615,6809,5809,5303
2201.368088,6832,5728,5227
2200.556426,6844,5783,5314
2199.744631,6723,5727,5306
2198.932701,6813,5680,5360
2198.120637,6735,5761,5400
2197.308438,6913,5661,5362
2196.496105,6818,5746,5294
2195.683638,6786,5791,5299
2194.871037,6691,5773,5286
2194.058301,6782,5693,5314
2193.24543,6797,5760,5343
2192.432425,6744,5804,5342
2191.619286,6808,5777,5353
2190.806012,6758,5794,5299
2189.992604,6746,5794,5210
2189.179061,6819,5783,5331
2188.365383,6770,5744,5321
2187.55157,6757,5757,5326
2186.737623,6787,5831,5287
2185.923542,6713,5738,5283
2185.109325,6740,5728,5345
2184.294974,6751,5709,5309
2183.480488,6737,5713,5213
2182.665867,6690,5784,5340
2181.851112,6745,5648,5280
2181.036221,6741,5713,5281
2180.221196,6800,5777,5285
2179.406035,6746,5684,5366
2178.59074,6761,5720,5238
2177.77531,6731,5674,5285
2176.959744,6716,5754,5348
2176.144044,6764,5724,5287
2175.328208,6768,5705,5381
2174.512238,6568,5745,5384
2173.696132,6773,5707,5274
2172.879892,6656,5749,5249
2172.063516,6774,5709,5323
2171.247004,6821,5660,5218
2170.430358,6778,5714,5316
2169.613576,6701,5844,5306
2168.796659,6737,5796,5322
2167.979607,6774,5693,5338
2167.162419,6871,5661,5411
2166.345096,6893,5696,5308
2165.527638,6764,5744,5274
2164.710044,6726,5761,5300
2163.892314,6691,5818,5292
2163.07445,6850,5753,5345
2162.256449,6757,5773,5335
2161.438313,6736,5739,5307
2160.620042,6794,5752.324496,5286
2159.801635,6744,5765.651201,5297
2158.983092,6790,5778.980114,5313
2158.164414,6821,5792.311236,5237
2157.345599,6875,5805.644568,5310
2156.52665,6868,5818.98011,5297
2155.707564,6854,5832.317862,5285
2154.888343,6863,5845.657825,5311
2154.068986,6846,5859,5291
2153.249493,6730,5721,5303
2152.429864,6804,5750,5353
2151.610099,6830,5833,5415
2150.790198,6832,5815,5290
2149.970162,6819.604112,5900,5289.000332
2149.149989,6807.206168,5797,5288.000497
2148.329681,6794.806169,5813,5287.000497
2147.509236,6782.404113,5760,5286.000332
2146.688655,6770,5762,5285
2145.867938,6868,5773,5356
2145.047086,6789,5876,5284
2144.226097,6826,5633,5312
2143.404971,6732,5724,5316
2142.58371,6776,5814,5275
2141.762312,6823,5823,5339
2140.940778,6876,5763,5329
2140.119108,6904,5827,5281
2139.297302,6946,5779,5308
2138.475359,6762,5715,5410
2137.653279,6749,5783,5314
2136.831064,6858,5779,5371
2136.008712,6861,5727,5322
2135.186223,6838,5774,5328
2134.363598,6838,5822,5363
2133.540837,6839,5810,5424
2132.717938,6875,5770,5317
2131.894904,6900,5751,5324
2131.071732,6873,5817,5360
2130.248425,6762,5793,5429
2129.42498,6890,5780,5374
2128.601399,6856,5796,5333
2127.777681,6864,5851,5383
2126.953826,6885,5861,5326
2126.129834,6923,5870,5316
2125.305706,6900,5780,5281
2124.481441,6930,5740,5350
2123.657039,6955,5727,5300
2122.8325,6865,5752,5347
2122.007824,6878,5777,5381
2121.183011,6865,5814,5433
2120.358061,6857,5808,5375
2119.532975,6863,5744,5335
2118.707751,6827,5662,5395
2117.88239,6914,5726,5390
2117.056892,6921,5831,5371
2116.231257,6885,5947,5335
2115.405484,6898,5882,5373
2114.579575,6887,5775,5419
2113.753528,6883,5834,5358
2112.927344,6903,5885,5292
2112.101023,6941,5786,5415
2111.274565,6841,5840,5312
2110.447969,6989,5780,5370
2109.621236,6942,5868,5396
2108.794365,6922,5841,5343
2107.967357,6861,5876,5415
2107.140212,6872,5768,5316
2106.312929,6958,5849,5400
2105.485509,6959,5854,5407
2104.657951,6969,5882,5395
2103.830255,7024,5931,5442
2103.002422,7004,5888,5494
2102.174452,6844,5860,5412
2101.346344,6924,5768,5384
2100.518098,6891,5792,5420
2099.689714,7085,5853,5417
2098.861193,6949,5881,5482
2098.032533,6902,5927,5433
2097.203736,6910,5905,5461
2096.374802,7067,5880,5464
2095.545729,6999,5846,5466
2094.716519,6997,5837,5489
2093.88717,6957,5841,5467
2093.057684,7040,5860,5394
2092.22806,6918,5881,5410
2091.398297,6999,5806,5431
2090.568397,7025,5883,5414
2089.738359,6926,5872,5489
2088.908182,6891,5858,5388
2088.077868,7011,5889,5392
2087.247415,7067,5837,5424
2086.416824,6952,5808,5402
2085.586095,7036,5977,5416
2084.755228,7089,5881,5405
2083.924222,6957,5928,5402
2083.093078,6977,5812,5423
2082.261796,7042,5876,5415
2081.430376,7101,5948,5390
2080.598817,7032,5906,5445
2079.76712,6924,5891,5417
2078.935284,7000,5856,5476
2078.10331,6928,5832,5429
2077.271197,6988,5950,5408
2076.438946,7055,5943,5471
2075.606556,6920,5914,5469
2074.774028,7026,5864,5465
2073.941361,6961,5885,5340
2073.108556,6946,5795,5428
2072.275612,6958,5939,5455
2071.442529,7001,5840,5435
2070.609307,7034,5844,5449
2069.775947,6982,5912,5443
2068.942448,7023,5957,5317
2068.10881,7042,5848,5367
2067.275033,6916,5921,5428
2066.441117,7063,5836,5471
2065.607063,7120,5823,5421
2064.772869,6992,5921,5497
2063.938537,6945,5939,5393
2063.104066,7051,5957,5431
2062.269455,7157,5864,5449
2061.434706,6998,5872,5416
2060.599817,7032,5952,5330
2059.764789,6942,5911,5412
2058.929623,7012,5968,5471
2058.094317,7054,5857,5535
2057.258872,7013,5982,5397
2056.423287,6990,5857,5463
2055.587564,6931,5898,5446
2054.751701,6982,5924,5382
2053.915698,6947,5869,5424
2053.079557,6972,5894,5463
2052.243276,6921,5902,5484
2051.406856,6986,5987,5456
2050.570296,7007,5917,5438
2049.733597,6980,5906,5375
2048.896758,7063,5963,5425
2048.05978,7083,5973,5462
2047.222662,7117,5965,5363
2046.385405,6988,5873,5414
2045.548008,6867,5896,5499
2044.710471,6977,5887,5425
2043.872795,7078,5855,5438
2043.034979,7048,5961,5413
2042.197023,7069,5909,5522
2041.358928,7142,6006,5385
2040.520692,7046,5891,5543
2039.682317,6954,5951,5389
2038.843802,7033,5872,5488
2038.005148,7093,5821,5422
2037.166353,7023,5869,5560
2036.327418,7065,5933,5421
2035.488344,7001,5987,5325
2034.649129,7085,5881,5415
2033.809775,7100,6023,5392
2032.97028,7087,5893,5491
2032.130646,7005,5849,5507
2031.290871,6951,5954,5493
2030.450956,7109,5930,5477
2029.610901,6963,5894,5476
2028.770705,7052,6019,5545
2027.93037,7085,5916,5426
2027.089894,7065,5973,5595
2026.249278,7095,5975,5423
2025.408521,7089,5947,5488
2024.567625,7125,5909,5520
2023.726588,7121,5941,5440
2022.88541,7044,5935,5509
2022.044092,7153,5943,5537
2021.202634,7183,5945,5455
2020.361035,6979,5979,5568
2019.519295,6992,6018,5443
2018.677415,7162,6042,5506
2017.835394,7027,5962,5525
2016.993233,7085,6011,5568
2016.150931,7094,6042,5483
2015.308489,7056,5948,5525
2014.465905,7145,6032,5493
2013.623181,7114,5984,5521
2012.780317,7036,5927,5445
2011.937311,7180,5965,5531
2011.094165,7150,6053,5559
2010.250877,7236,5973,5560
2009.407449,7045,6012,5533
2008.56388,7085,6069,5496
2007.72017,7210,5974,5612
2006.876319,7136,6093,5539
2006.032327,7053,5981,5525
2005.188194,7206,5988,5512
2004.34392,7232,5956,5561
2003.499505,7119,6069,5572
2002.654948,7285,6008,5524
2001.810251,7144,5981,5579
2000.965412,7074,5956,5551
2000.120432,7261,6040,5575
1999.275311,7201,5975,5524
1998.430049,7186,5996,5536
1997.584645,7183,5925,5534
1996.7391,7211,6047,5534
1995.893414,7126,6044,5530
1995.047586,7191,6048,5516
1994.201617,7136,5925,5544
1993.355506,7197,6025,5580
1992.509254,7234,6056,5607
1991.66286,7278,6007,5553
1990.816325,7292,6081,5549
1989.969648,7179,6050,5489
1989.122829,7229,5981,5559
1988.275869,7239,6047,5558
1987.428768,7265,6147,5553
1986.581524,7148,6034,5605
1985.734139,7246,6029,5560
1984.886612,7225,6044,5568
1984.038943,7232,6035,5585
1983.191133,7103,6151,5609
1982.34318,7251,6087,5523
1981.495086,7190,6077,5608
1980.64685,7211,6096,5578
1979.798472,7185,6103,5446
1978.949951,7326,5999,5611
1978.101289,7187,6052,5576
1977.252485,7236,6158,5656
1976.403539,7284,6088,5604
1975.554451,7259,6120,5672
1974.70522,7171,6130,5605
1973.855848,7291,6084,5632
1973.006333,7247,6048,5583
1972.156676,7256,6064,5626
1971.306877,7235,6079,5598
1970.456935,7337,6122,5688
1969.606851,7272,6012,5565
1968.756625,7278,6130,5619
1967.906257,7327,6064,5634
1967.055746,7238,5997,5632
1966.205093,7232,6030,5625
1965.354297,7287,6071,5593
1964.503359,7382,6127,5611
1963.652278,7303,6050,5626
1962.801054,7369,6098,5601
1961.949688,7279,6122,5586
1961.09818,7305,6062,5629
1960.246529,7211,6089,5610
1959.394735,7364,6113,5641
1958.542798,7342,6065,5601
1957.690719,7319,6041,5527
1956.838497,7180,6098,5759
1955.986132,7296,6049,5663
1955.133625,7329,6043,5613
1954.280974,7224,6014,5617
1953.428181,7442,6067,5613
1952.575244,7243,6079,5674
1951.722165,7299,6091,5671
1950.868943,7268,6091,5600
1950.015578,7386,6119,5565
1949.162069,7318,6099,5569
1948.308418,7257,6088,5632
1947.454624,7265,6091.998994,5609
1946.600686,7176,6095.998659,5673
1945.746605,7334,6099.998994,5607
1944.892381,7265,6104,5582
1944.038014,7282,6209,5666
1943.183504,7212,6081,5600
1942.32885,7290,6076,5587
1941.474053,7267,6117,5708
1940.619113,7291,6042,5635
1939.764029,7290,6096,5594
1938.908802,7234,5983,5538
1938.053432,7267,5994,5617
1937.197918,7290,6145,5607
1936.34226,7271,6008,5587
1935.486459,7362,6185,5665
1934.630514,7441,6100,5653
1933.774426,7291,6106,5684
1932.918195,7300,6037,5692
1932.061819,7369,6161,5599
1931.2053,7385,6179,5636
1930.348637,7266,6049,5563
1929.49183,7384,6180,5709
1928.63488,7244,6097,5734
1927.777786,7348,6054,5688
1926.920548,7344,6101,5674
1926.063166,7341,6012,5734
1925.20564,7305,6097,5560
1924.347971,7295,6165,5733
1923.490157,7360,6163,5612
1922.632199,7408,6134,5593
1921.774098,7309,6105,5585
1920.915852,7400,6174,5610
1920.057462,7419,6047,5665
1919.198928,7291,6202,5628
1918.34025,7292,6058,5657
1917.481428,7332,6138,5695
1916.622461,7423,6116,5610
1915.763351,7347,6169,5642
1914.904096,7403,6123,5683
1914.044696,7421,6199,5723
1913.185153,7436,6127,5687
1912.325465,7414,6155,5686
1911.465633,7441,6169,5648
1910.605656,7431,6077,5635
1909.745535,7479,6196,5710
1908.885269,7334,6210,5738
1908.024859,7437,6194,5709
1907.164304,7405,6135,5696
1906.303605,7307,6138,5763
1905.442761,7460,6263,5636
1904.581772,7420,6144,5703
1903.720639,7392,6162,5645
1902.859361,7384,6188,5743
1901.997938,7380,6257,5700
1901.136371,7332,6260,5732
1900.274658,7520,6251,5713
1899.412801,7326,6167,5707
1898.550799,7459,6222,5685
1897.688652,7475,6305,5753
1896.826361,7513,6192,5790
1895.963924,7487,6201,5757
1895.101342,7377,6152,5804
1894.238615,7362,6332,5677
1893.375744,7492,6214,5731
1892.512727,7401,6209,5831
1891.649565,7359,6221,5691
1890.786258,7358,6233,5803
1889.922805,7478,6353,5681
1889.059208,7503,6212,5705
1888.195465,7522,6238,5803
1887.331577,7423,6192,5823
1886.467544,7559,6168,5708
1885.603365,7498,6239,5778
1884.739041,7565,6303,5834
1883.874572,7403,6210,5775
1883.009957,7538,6171,5732
1882.145197,7561,6216,5768
1881.280291,7560.750147,6223.745437,5778
1880.41524,7560.500252,6231.492177,5772
1879.550043,7560.250315,6239.240221,5792
1878.684701,7560.000337,6246.989568,5757
1877.819213,7559.750315,6254.74022,5793
1876.95358,7559.500252,6262.492175,5792
1876.0878,7559.250147,6270.245435,5812
1875.221875,7559,6278,5776
1874.355805,7473,6337,5753
1873.489588,7507,6243,5731
1872.623226,7524,6252,5774
1871.756718,7626,6178,5799
1870.890064,7575,6309,5805
1870.023264,7600,6394,5869
1869.156318,7505,6344,5792
1868.289226,7579,6275,5753
1867.421989,7484,6284,5709
1866.554605,7457,6298,5803
1865.687075,7495,6313,5781
1864.819399,7568,6331,5886
1863.951577,7573,6254,5743
1863.083609,7485,6375,5722
1862.215495,7589,6353,5777
1861.347234,7484,6218,5760
1860.478828,7534,6323,5797
1859.610275,7595,6368,5773
1858.741575,7511,6337,5823
1857.87273,7585,6254,5863
1857.003738,7641,6141,5801
1856.134599,7571,6136,5791
1855.265314,7508,6281,5847
1854.395883,7517,6292,5724
1853.526305,7549,6315,5781
1852.656581,7530,6251,5762
1851.78671,7633,6367,5854
1850.916692,7563,6304,5731
1850.046528,7515,6293,5823
1849.176218,7443,6273,5790
1848.30576,7480,6373,5821
1847.435156,7616,6289,5885
1846.564405,7599,6308,5864
1845.693508,7563,6197,5785
1844.822463,7624,6179,5765
1843.951272,7515,6261,5868
1843.079934,7500,6299,5864
1842.208448,7677,6289,5803
1841.336816,7526,6350,5897
1840.465037,7570,6263,5732
1839.593111,7561,6283,5796
1838.721038,7582,6233,5710
1837.848818,7572,6227,5796
1836.976451,7531,6347,5738
1836.103937,7707,6334,5677
1835.231275,7609,6279,5869
1834.358467,7652,6282,5818
1833.485511,7699,6275,5921
1832.612408,7643,6315,5862
1831.739157,7528,6275,5820
1830.86576,7693,6261,5888
1829.992215,7589,6271,5921
1829.118522,7656,6325,5736
1828.244682,7621,6334,5731
1827.370695,7591,6252,5772
1826.49656,7517,6327,5852
1825.622278,7634,6328,5734
1824.747848,7597,6249,5870
1823.87327,7630.994262,6276.328721,5770
1822.998545,7664.994262,6303.662054,5838
1822.123673,7699,6331,5790
1821.248652,7599,6443,5782
1820.373484,7608,6254,5777
1819.498169,7594,6271.993923,5784
1818.622705,7635,6289.990884,5775
1817.747094,7578,6307.990884,5879
1816.871334,7632,6325.993922,5844
1815.995427,7688,6344,5888
1815.119372,7588,6332,5784
1814.24317,7610,6367,5834
1813.366819,7459,6293,5787
1812.49032,7490,6284,5700
1811.613673,7656,6424,5847
1810.736878,7630,6259,5918
1809.859935,7645,6414,5866
1808.982844,7609,6375,5815
1808.105605,7614,6385,5804
1807.228218,7654,6270,5874
1806.350682,7737,6310,5830
1805.472998,7709,6426,5818
1804.595166,7559,6373,5894
1803.717185,7609,6421,5916
1802.839057,7720,6363,5851
1801.960779,7677,6407,5775
1801.082354,7695,6306,5806
1800.20378,7737,6324,5959
1799.325057,7609,6392,5839
1798.446186,7697,6490,5984
1797.567167,7728,6348,5869
1796.687999,7681,6357,5836
1795.808682,7694,6365,5849
1794.929216,7658,6423,5869
1794.049602,7558,6380,5937
1793.16984,7702,6341,5906
1792.289928,7631,6501,5958
1791.409868,7830,6388,5885
1790.529659,7749,6365,5902
1789.649301,7638,6324,5839
1788.768794,7839,6364,5917
1787.888139,7748,6356,5933
1787.007334,7779,6441,5908
1786.126381,7703,6540,5897
1785.245278,7697,6413,5903
1784.364027,7606,6428,5839
1783.482626,7711,6417,5892
1782.601077,7775,6421,5954
1781.719378,7729,6448,5858
1780.83753,7830,6358,5944
1779.955533,7716,6419,5961
1779.073387,7733,6414,5900
1778.191091,7823,6414,5902
1777.308646,7772,6431,5931
1776.426052,7800,6479,5975
1775.543308,7692,6387,6024
1774.660416,7656,6423,5936
1773.777373,7871,6400,5902
1772.894182,7728,6397,6067
1772.01084,7708,6506,6031
1771.12735,7791,6397,5946
1770.243709,7845,6397,5934
1769.359919,7824,6563,5991
1768.47598,7694,6477,5879
1767.591891,7838,6485,5879
1766.707652,7761,6539,6034
1765.823264,7722,6464,5937
1764.938725,7816,6519,5863
1764.054037,7874,6451,5951
1763.1692,7863,6485,5980
1762.284212,7773,6388,5925
1761.399075,7817,6449,5930
1760.513787,7756,6477,5930
1759.62835,7748,6499,5893
1758.742763,7805,6495,5990
1757.857025,7802,6479,5875
1756.971138,7776,6420,5888
1756.085101,7692,6469,5937
1755.198913,7776,6488,5945
1754.312575,7744,6489,5931
1753.426088,7724,6534,6038
1752.53945,7799,6433,5980
1751.652661,7723,6428,5925
1750.765723,7780,6479,5885
1749.878634,7858,6502,5921
1748.991395,7838,6433,5967
1748.104006,7849,6520,5969
1747.216466,7827,6529,5920
1746.328776,7924,6463,5979
1745.440935,7791,6403,5887
1744.552944,7917,6493,5911
1743.664802,7821,6400,5941
1742.77651,7787,6501,6000
1741.888067,7835,6485,6015
1740.999473,7872,6411,5957
1740.110729,7766,6429,5908
1739.221834,7742,6499,5944
1738.332789,7846,6491,5945
1737.443592,7690,6395,5975
1736.554245,7806,6488,6013
1735.664747,7860,6516,6024
1734.775098,7828,6523,5945
1733.885299,7805,6499,5934
1732.995348,7763,6440,6036
1732.105247,7865,6376,5995
1731.214994,7737,6502,5894
1730.32459,7674,6513,5921
1729.434036,7881,6436,6044
1728.54333,7786,6552,5981
1727.652473,7838,6447,6018
1726.761465,7733,6405,5969
1725.870306,7752,6407,5919
1724.978996,7824,6536,5965
1724.087534,7817,6514,5966
1723.195921,7782,6465,5975
1722.304157,7908,6539,5995
1721.412242,7725,6391,5985
1720.520175,7823,6416,5974
1719.627956,7922,6491,5949
1718.735586,7735,6575,6028
1717.843065,7723,6392,5919
1716.950392,7760,6519,5967
1716.057568,7843,6632,6119
1715.164592,7793,6515,5913
1714.271465,7862,6474,5931
1713.378185,7851,6489,5940
1712.484755,7827,6481,5984
1711.591172,7809,6633,6046
1710.697438,7916,6497,6093
1709.803551,7868,6515,5995
1708.909514,7714,6460,6085
1708.015324,7828,6438,6007
1707.120982,7867,6451,5982
1706.226489,7853,6462,6014
1705.331843,7937,6513,5944
1704.437046,7761,6536,5998
1703.542096,7959,6524,5945
1702.646994,7860,6479,5997
1701.751741,7852,6475,6060
1700.856335,7940,6517,6012
1699.960777,7829,6400,6047
1699.065067,7863,6586,6015
1698.169205,7883,6600,6032
1697.27319,7908,6599,5906
1696.377023,7996,6485,6033
1695.480704,8024,6553,6089
1694.584233,7910,6632,6056
1693.687609,7859,6542,6000
1692.790833,7826,6571,5983
1691.893904,7980,6582,6062
1690.996823,7891,6588,5925
1690.099589,7896,6473,5966
1689.202203,7896,6587,5983
1688.304664,7928,6614,6125
1687.406972,7875,6639,6033
1686.509128,7841,6479,6111
1685.611132,7913,6584,5946
1684.712982,7914,6598,6057
1683.81468,7966,6586,6046
1682.916225,7826,6663,6085
1682.017617,7879,6651,6117
1681.118856,7859,6646,6058
1680.219943,7854,6543,6106
1679.320876,7914,6628,6059
1678.421657,8012,6578,6104
1677.522284,8034,6623,6036
1676.622759,7977,6636,6156
1675.72308,8039,6609,6015
1674.823249,8081,6665,6094
1673.923264,8031,6627,6149
1673.023126,8028,6549,6041
1672.122835,8086,6632,6093
1671.222391,7982,6766,6227
1670.321793,8003,6588,6147
1669.421042,8035,6595,6188
1668.520138,7983,6694,6106
1667.619081,7895,6524,6120
1666.71787,7925,6570,6097
1665.816505,7972,6662,6114
1664.914988,7989,6599,6128
1664.013316,8111,6638,6068
1663.111492,8032,6688,6055
1662.209513,8009,6753,6180
1661.307381,7980,6627,6110
1660.405096,8065,6590,6102
1659.502657,8150,6751,6130
1658.600064,7941,6671,6138
1657.697317,8127,6691,6125
1656.794417,7932,6668,6148
1655.891362,8019,6646,6128
1654.988154,8059,6599,6119
1654.084793,8156,6662,6103
1653.181277,8068,6673,6024
1652.277607,8105,6765,6131
1651.373783,8046,6726,6116
1650.469806,8089,6635,6121
1649.565674,8037,6655.657864,6132
1648.661388,8037,6676.319248,6121
1647.756948,8085,6696.984152,6135
1646.852354,8169,6717.652579,6265
1645.947606,8106,6738.324528,6095
1645.042704,8025,6759,6075
1644.137647,8121,6719,6188
1643.232436,7961,6677,6170
1642.327071,8055,6615,6082
1641.421552,8208,6650,6155
1640.515878,8003,6648,6131
1639.61005,8100,6616,6090
1638.704067,7951,6730,6137
1637.79793,8018,6668,6202
1636.891638,8032,6614,6136
1635.985192,8098,6720,6228
1635.078591,8147,6615,6142
1634.171835,8037,6698,6167
1633.264925,7959,6651,6042
1632.357861,8041,6610,6057
1631.450641,8130,6741,6126
1630.543267,8096,6607,6189
1629.635738,8036,6610,6119
1628.728054,8142,6607,6080
1627.820215,8078,6648,6158
1626.912222,8034,6639,6239
1626.004073,8108,6660,6124
1625.09577,8095,6596,6190
1624.187311,8116,6668,6189
1623.278698,8054,6673,6186
1622.36993,8211,6674,6185
1621.461006,8047,6650,6103
1620.551927,8106,6732,6324
1619.642693,8217,6672,6107
1618.733304,8063,6764,6092
1617.82376,8175,6667,6186
1616.914061,8164,6685,6125
1616.004206,8097,6624,6125
1615.094196,8119,6690,6174
1614.18403,8056,6730,6169
1613.273709,8024,6749,6160
1612.363233,8208,6763,6188
1611.452601,7982,6697,6171
1610.541814,8141,6726,6161
1609.630871,8025,6645,6178
1608.719772,8025,6682,6198
1607.808518,8033,6689,6109
1606.897109,8151,6632,6136
1605.985543,8117,6644,6082
1605.073822,8036,6676,6101
1604.161945,8144,6641,6130
1603.249913,8141,6615,6261
1602.337724,8145,6733,6172
1601.42538,8161,6827,6154
1600.51288,8132,6740,6252
1599.600224,8281,6748,6165
1598.687412,8176,6767,6169
1597.774444,8156,6788,6179
1596.86132,8108,6734,6280
1595.94804,8170,6780,6242
1595.034604,8278,6815,6332
1594.121012,8301,6829,6270
1593.207263,8239,6743,6328
1592.293359,8137,6767,6272
1591.379298,8244,6829,6236
1590.465081,8299,6806,6311
1589.550708,8251,6914,6295
1588.636178,8296,6759,6254
1587.721492,8328,6841,6322
1586.806649,8341,6986,6247
1585.89165,8307,6974,6369
1584.976495,8387,6906,6304
1584.061183,8537,6909,6396
1583.145715,8538,7056,6474
1582.23009,8690,7089,6364
1581.314308,8657,7016,6559
1580.39837,8750,7028,6544
1579.482275,8791,7170,6597
1578.566024,8952,7265,6661
1577.649615,8892,7355,6714
1576.73305,8943,7313,6672
1575.816328,8928,7396,6771
1574.899449,9048,7394,6789
1573.982414,8992,7417,6727
1573.065221,9128,7422,6814
1572.147871,9110,7629,6761
1571.230365,9049,7484,6765
1570.312701,9175,7516,6819
1569.394881,9013,7528,6755
1568.476903,9021,7403,6652
1567.558768,8922,7477,6666
1566.640476,8924,7333,6595
1565.722027,8874,7254,6538
1564.80342,8952,7222,6587
1563.884656,8808,7196,6563
1562.965735,8718,7152,6528
1562.046657,8666,7121,6478
1561.127421,8698,7070,6476
1560.208028,8581,7035,6434
1559.288477,8657,7098,6390
1558.368769,8699,7056,6431
1557.448904,8489,7019,6458
1556.528881,8526,6969,6497
1555.6087,8447,6926,6401
1554.688362,8461,6911,6351
1553.767866,8396,6989,6391
1552.847212,8531,6907,6246
1551.9264,8463,6933,6369
1551.005431,8311,6958,6358
1550.084304,8399,6977,6367
1549.163019,8430,6924,6302
1548.241577,8391,6900,6300
1547.319976,8307,6913,6298
1546.398218,8426,6907,6378
1545.476301,8276,6834,6335
1544.554227,8229,6970,6277
1543.631994,8457,6947,6281
1542.709604,8331,6904,6260
1541.787055,8327,6917,6318
1540.864348,8315,6890,6256
1539.941483,8145,6761,6352
1539.01846,8305,6700,6309
1538.095278,8290,6883,6275
1537.171938,8221,6916,6236
1536.24844,8131,6795,6246
1535.324784,8349,6899,6240
1534.400969,8187,6831,6247
1533.476996,8262,6861,6276
1532.552864,8292,6952,6334
1531.628574,8186,6735,6244
1530.704125,8170,6789,6240
1529.779517,8226,6750,6290
1528.854751,8210,6790,6307
1527.929827,8249,6774,6264
1527.004744,8233,6778,6238
1526.079502,8362,6855,6378
1525.154101,8274,6712,6265
1524.228541,8289,6844,6198
1523.302823,8187,6726,6185
1522.376946,8250,6734,6104
1521.45091,8282,6821,6249
1520.524715,8295,6766,6244
1519.598361,8301,6729,6288
1518.671848,8144,6822,6285
1517.745176,8244,6775,6253
1516.818345,8230,6698,6350
1515.891354,8194,6756,6180
1514.964205,8281,6755,6269
1514.036897,8316,6806,6292
1513.109429,8173,6816,6232
1512.181802,8273,6864,6274
1511.254016,8213,6889,6281
1510.32607,8269,6735,6313
1509.397965,8273,6761,6238
1508.469701,8183,6837,6280
1507.541278,8265,6789,6288
1506.612694,8261,6883,6306
1505.683952,8269,6749,6350
1504.75505,8266,6769,6260
1503.825988,8236,6723,6382
1502.896767,8252,6809,6204
1501.967386,8158,6852,6311
1501.037845,8287,6826,6315
1500.108145,8321,6753,6280
1499.178285,8249,6785,6248
1498.248265,8245,6814,6328
1497.318085,8160,6795,6292
1496.387746,8264,6780,6260
1495.457246,8282,6789,6261
1494.526587,8225,6818,6315
1493.595768,8285,6939,6370
1492.664788,8241,6856,6321
1491.733649,8216,6752,6295
1490.80235,8143,6726,6321
1489.87089,8363,6857,6232
1488.939271,8379,6892,6330
1488.007491,8299,6968,6387
1487.075551,8324,6795,6302
1486.143451,8396,6880,6249
1485.21119,8376,6902,6387
1484.278769,8312,6863,6292
1483.346188,8404,7062,6301
1482.413447,8292,6902,6402
1481.480545,8361,6898,6424
1480.547482,8346,6960,6426
1479.614259,8362,6864,6393
1478.680876,8336,6877,6416
1477.747332,8423,6860,6409
1476.813627,8491,6837,6400
1475.879762,8385,7028,6375
1474.945736,8461,7013,6386
1474.011549,8540,6949,6446
1473.077202,8411,7003,6445
1472.142694,8408,7035,6585
1471.208025,8473,7090,6435
1470.273195,8581,7009,6423
1469.338204,8507,7118,6482
1468.403053,8595,7052,6475
1467.46774,8436,7051,6560
1466.532266,8540,7083,6391
1465.596632,8504,6942,6497
1464.660836,8493,7004,6503
1463.724879,8418,7024,6398
1462.788761,8508,6989,6447
1461.852482,8445,7137,6344
1460.916042,8561,7122,6398
1459.97944,8517,7022,6464
1459.042677,8543,7060,6440
1458.105753,8532,7033,6481
1457.168667,8522,7082,6426
1456.23142,8566,7062,6561
1455.294012,8554,7039,6494
1454.356442,8634,7048,6489
1453.418711,8565,7073,6483
1452.480818,8543,7122,6506
1451.542763,8564,7036,6498
1450.604547,8482,7124,6491
1449.666169,8534,7082,6562
1448.72763,8614,7105,6542
1447.788928,8668,7097,6442
1446.850065,8726,6974,6559
1445.911041,8590,7059,6517
1444.971854,8757,7117,6709
1444.032506,8588,7213,6488
1443.092995,8778,7190,6665
1442.153323,8892,7216,6575
1441.213489,8960,7115,6593
1440.273492,8832,7149,6668
1439.333334,8969,7233,6697
1438.393014,8999,7333,6786
1437.452531,9160,7265,6811
1436.511886,9210,7397,6797
1435.571079,9331,7463,6936
1434.63011,9562,7462,7015
1433.688979,9438,7534,6961
1432.747685,9794,7656,7179
1431.806229,9922,7906,7252
1430.864611,10095,7867,7461
1429.92283,10239,8085,7466
1428.980886,10337,8201,7399
1428.038781,10571,8392,7587
1427.096512,10561,8388,7591
1426.154081,10593,8444,7584
1425.211488,10601,8603,7607
1424.268732,10568,8595,7599
1423.325813,10591,8618,7630
1422.382732,10445,8574,7558
1421.439487,10361,8434,7608
1420.49608,10238,8430,7550
1419.55251,10116,8305,7474
1418.608778,9973,8123,7315
1417.664882,10039,7909,7272
1416.720824,9718,7748,7129
1415.776602,9412,7498,6955
1414.832218,9467,7433,6912
1413.88767,9306,7373,6828
1412.94296,9047,7240,6706
1411.998086,9031,7276,6650
1411.053049,8913,7191,6677
1410.107849,8798,7072,6615
1409.162486,8938,7124,6501
1408.216959,8669,7044,6623
1407.271269,8548,7026,6462
1406.325416,8595,7058,6460
1405.3794,8679,6995,6433
1404.43322,8712,6981,6535
1403.486876,8645,7062,6527
1402.54037,8633.752915,7074.996632,6578
1401.593699,8622.503887,7087.995508,6523
1400.646865,8611.252915,7100.996631,6684
1399.699868,8600,7114,6548
1398.752707,8772,7212,6610
1397.805382,8799,7179,6608
1396.857893,8918,7173,6679
1395.910241,9200,7279,6646
1394.962425,9254,7405,6739
1394.014445,9374,7473,6744
1393.066301,9546,7587,6930
1392.117994,9638,7639,7138
1391.169522,10029,7756,7147
1390.220887,10017,7982,7327
1389.272088,10090,8019,7328
1388.323124,10279,8092,7374
1387.373996,10315,8260,7456
1386.424705,10284,8280,7496
1385.475249,10263,8345,7442
1384.525629,10330,8431,7560
1383.575845,10205,8397,7459
1382.625896,10226,8452,7453
1381.675784,9958,8305,7420
1380.725506,9856,8143,7385
1379.775065,9782,8135,7358
1378.824459,9734,7928,7404
1377.873689,9648,7742,7286
1376.922754,9401,7705,7181
1375.971655,9420,7608,7285
1375.020391,9376,7623,7240
1374.068962,9234,7498,7110
1373.117369,9253,7652,7061
1372.165612,9081,7446,7013
1371.213689,9201,7510,6996
1370.261602,9103,7349,7005
1369.30935,9052,7343,6764
1368.356933,9016,7499,6834
1367.404352,8919,7361,6734
1366.451605,8938,7376,6868
1365.498694,9020,7294,6888
1364.545617,9077,7244,6869
1363.592376,9033,7213,6857
1362.638969,8762,7296,6745
1361.685398,8885,7385,6819
1360.731661,8917,7262,6745
1359.777759,8850,7276,6694
1358.823692,8860,7284,6764
1357.86946,8859,7229,6683
1356.915063,8800,7141,6680
1355.9605,8825,7305,6626
1355.005772,8697,7174,6690
1354.050878,8675,7293,6675
1353.095819,8785,7274,6706
1352.140595,8814,7163,6583
1351.185205,8687,7142,6625
1350.22965,8762,7223,6582
1349.273929,8809,7130,6719
1348.318042,8784,7068,6648
1347.36199,8803,7174,6526
1346.405772,8603,7159,6548
1345.449389,8728,7081,6549
1344.492839,8692,7119,6548
1343.536124,8773,7031,6643
1342.579243,8840,6997,6545
1341.622196,8724,7070,6497
1340.664984,8670,7150,6489
1339.707605,8679,7060,6522
1338.75006,8697,7037,6561
1337.79235,8605,6994,6522
1336.834473,8636,7044,6508
1335.87643,8556,7093,6487
1334.918222,8583,6922,6525
1333.959846,8656,7030,6523
1333.001305,8618,7068,6499
1332.042598,8595,7084,6454
1331.083724,8560,7021,6607
1330.124684,8544,7001,6568
1329.165477,8553,7028,6544
1328.206104,8599,7037,6616
1327.246565,8561.849451,7043.996964,6482
1326.286859,8524.692457,7050.995143,6524
1325.326987,8487.529016,7057.994535,6482
1324.366948,8450.359128,7064.995142,6446
1323.406743,8413.182789,7071.996963,6479
1322.446371,8376,7079,6479
1321.485832,8650,7081,6384
1320.525127,8666,7014,6550
1319.564255,8616,7028,6441
1318.603216,8583,7120,6384
1317.64201,8516,7009,6583
1316.680638,8517,7016,6543
1315.719099,8447,7000,6500
1314.757392,8644,7135,6601
1313.795519,8564,6968,6498
1312.833479,8651,7037,6573
1311.871271,8548,7133,6567
1310.908897,8728,7205,6685
1309.946356,8701,7100,6546
1308.983647,8657,7246,6609
1308.020771,8723,7156,6606
1307.057728,8721,7275,6659
1306.094518,8710,7151,6673
1305.13114,8655,7161,6709
1304.167595,8922,7264,6529
1303.203883,8899,7231,6702
1302.240003,8770,7187,6647
1301.275956,8818,7181,6676
1300.311741,8750,7125,6627
1299.347359,8825,7152,6743
1298.382809,8678,7093,6489
1297.418092,8713,7152,6622
1296.453207,8726,7109,6541
1295.488154,8566,7144,6575
1294.522934,8649,7019,6605
1293.557545,8670,7097,6607
1292.591989,8461,7116,6418
1291.626265,8548,7057,6474
1290.660374,8524,7107,6470
1289.694314,8687,7131,6506
1288.728086,8650,7054,6532
1287.761691,8507,7046,6541
1286.795127,8518,7199,6530
1285.828396,8492,7089,6451
1284.861496,8631,7043,6536
1283.894428,8497,7123,6444
1282.927192,8549,7096,6521
1281.959787,8491,7084,6494
1280.992215,8455,6978,6455
1280.024474,8590,7001,6495
1279.056565,8709,7093,6485
1278.088487,8490,7041,6580
1277.120241,8641,7043,6595
1276.151827,8590,7057,6523
1275.183244,8606,6974,6429
1274.214492,8475,7045,6512
1273.245572,8546,7095,6514
1272.276484,8514,6962,6470
1271.307226,8551,7132,6494
1270.3378,8592,7047,6442
1269.368206,8483,7034,6588
1268.398442,8555,7136,6466
1267.42851,8552,7054,6520
1266.458409,8582,6963,6421
1265.488139,8584,7101,6540
1264.5177,8558,6988,6535
1263.547092,8461,7014,6434
1262.576316,8455,7044,6536
1261.60537,8407,6902,6520
1260.634255,8649,7102,6503
1259.662971,8638,7054,6535
1258.691518,8520,7024,6464
1257.719896,8487,7128,6322
1256.748104,8494,6947,6527
1255.776143,8463,6998,6513
1254.804013,8507,7031,6484
1253.831714,8504,7131,6541
1252.859245,8570,7062,6532
1251.886607,8499,7037,6384
1250.913799,8360,7097,6518
1249.940822,8522,7070,6469
1248.967675,8509,7022,6515
1247.994359,8452,7103,6432
1247.020873,8588,7005,6458
1246.047217,8436,7084,6534
1245.073392,8488,7017,6472
1244.099397,8430,7049,6481
1243.125233,8524,7140,6543
1242.150898,8381,6996,6561
1241.176394,8491,6989,6401
1240.20172,8500,7008,6434
1239.226875,8450,7091,6389
1238.251861,8558,7067,6377
1237.276677,8432,7010,6384
1236.301323,8575,7067,6455
1235.325799,8494,6921,6427
1234.350104,8470,7047,6371
1233.37424,8491,6980,6453
1232.398205,8369,6872,6476
1231.422,8458,6927,6392
1230.445625,8423,7062,6315
1229.46908,8405,6993,6452
1228.492364,8428,6896,6513
1227.515478,8362,7026,6376
1226.538421,8454,6922,6537
1225.561194,8425,6951,6444
1224.583796,8516,6897,6420
1223.606228,8387,6948,6480
1222.628489,8473,6897,6306
1221.65058,8522,6890,6363
1220.6725,8317,6852,6409
1219.694249,8430,7020,6473
1218.715828,8477,6940,6353
1217.737236,8470,6935,6415
1216.758473,8406,6869,6407
1215.779539,8463,6929,6363
1214.800434,8483,7061,6406
1213.821158,8507,7026,6432
1212.841711,8410,7059,6352
1211.862094,8307,6939,6402
1210.882305,8496,6847,6454
1209.902345,8383,7024,6296
1208.922214,8355,7027,6371
1207.941912,8331,7013,6533
1206.961438,8442,7014,6480
1205.980794,8587,6997,6356
1204.999978,8458,6963,6405
1204.018991,8390,6922,6456
1203.037832,8489,6939,6515
1202.056502,8428,6954,6403
1201.075,8428,7103,6503
1200.093328,8617,7019,6601
1199.111483,8661,7017,6543
1198.129467,8681,7055,6513
1197.147279,8827,7072,6495
1196.16492,8833,7241,6586
1195.182389,8769,7100,6642
1194.199686,8814,7161,6511
1193.216812,8900,7224,6787
1192.233766,8863,7362,6762
1191.250547,8900,7208,6688
1190.267158,8914,7223,6599
1189.283596,8798,7249,6706
1188.299862,8852,7220,6657
1187.315956,8763,7273,6655
1186.331878,8708,7269,6560
1185.347628,8705,7222,6557
1184.363206,8754,7235,6559
1183.378612,8659,7075,6571
1182.393845,8738,7177,6565
1181.408906,8599,7056,6446
1180.423796,8692,7092,6492
1179.438512,8609,7061,6508
1178.453057,8675,7049,6421
1177.467429,8554,6970,6477
1176.481628,8575,7082,6550
1175.495655,8614,6942,6532.152229
1174.50951,8502,7028,6514.301335
1173.523192,8448,7044,6496.447318
1172.536701,8516,7005,6478.590177
1171.550038,8505,6990,6460.72991
1170.563202,8604,6967,6442.866518
1169.576193,8608,6969,6425
1168.589012,8680,7044,6534
1167.601658,8493,7034,6514
1166.614131,8718,7012,6411
1165.626431,8564,7001,6469
1164.638558,8554,7045,6612
1163.650512,8558,7061,6339
1162.662294,8639,7101,6529
1161.673902,8621,7105,6430
1160.685337,8581,7134,6615
1159.696599,8695,7014,6497
1158.707688,8736,7069,6581
1157.718604,8622,7158,6602
1156.729346,8664,7188,6650
1155.739915,8800,7131,6575
1154.750311,8782,7060,6498
1153.760534,8819,7136,6556
1152.770583,8836,7190,6673
1151.780459,8996,7170,6683
1150.790161,9057,7255,6823
1149.79969,9190,7298,6729
1148.809045,9156,7180,6830
1147.818227,9201,7272,6794
1146.827234,9426,7472,7054
1145.836069,9708,7571,7143
1144.844729,9966,7653,7244
1143.853216,10123,7708,7303
1142.861529,10339,7939,7379
1141.869668,10622,8120,7535
1140.877634,10737,8292,7568
1139.885425,10709,8495,7581
1138.893043,10764,8829,7782
1137.900486,10762,8967,7850
1136.907756,10693,9150,7865
1135.914851,10674,9053,7977
1134.921772,10663,9104,7897
1133.928519,10514,8879,7787
1132.935092,10302,8601,7731
1131.941491,10349,8359,7568
1130.947715,10132,8044,7510
1129.953765,9882,7798,7348
1128.959641,9508,7580,7028
1127.965342,9301,7584,6990
1126.970869,9317,7373,6798
1125.976222,9141,7254,6726
1124.9814,9067,7269,6674
1123.986403,8851,7196,6631
1122.991232,8819.133492,7174.126473,6644
1121.995886,8787.261391,7152.249108,6549
1121.000365,8755.383697,7130.367904,6478
1120.00467,8723.500409,7108.482859,6609
1119.0088,8691.611524,7086.593973,6466
1118.012755,8659.717042,7064.701245,6549
1117.016536,8627.816962,7042.804674,6490
1116.020141,8595.911281,7020.904259,6448
1115.023571,8564,6999,6520
1114.026827,8538,7079,6545
1113.029908,8475,7077,6529
1112.032813,8397,6908,6500
1111.035544,8552,7081,6500
1110.038099,8588,6970,6433
1109.040479,8495,7023,6384
1108.042684,8641,6982,6379
1107.044714,8464,7018,6395
1106.046568,8523,7091,6426
1105.048247,8515,7060,6479
1104.049751,8448,6949,6408
1103.051079,8600,7026,6387
1102.052232,8500,6980,6383
1101.053209,8632,6933,6493
1100.054011,8533,6966,6473
1099.054637,8390,7064,6466
1098.055088,8646,7157,6468
1097.055363,8535,7014,6474
1096.055462,8460,7046,6494
1095.055386,8511,7063,6568
1094.055134,8667,7038,6489
1093.054706,8610,7202,6531
1092.054102,8702,7134,6508
1091.053322,8522,7058,6525
1090.052366,8604,7197,6560
1089.051235,8537,7046,6596
1088.049927,8686,7098,6598
1087.048443,8639,7219,6528
1086.046783,8711,7114,6589
1085.044947,8676,7110,6582
1084.042935,8839,7229,6703
1083.040747,9209,7102,6746
1082.038382,9133,7407,6616
1081.035841,9288,7334,6796
1080.033124,9312,7376,6718
1079.03023,9493,7567,6762
1078.02716,9561,7479,6887
1077.023913,9777,7683,7041
1076.02049,9802,7826,6935
1075.016891,9846,7933,7020
1074.013114,9850,7889,7120
1073.009161,9936,8118,7234
1072.005032,9849,8327,7371
1071.000726,9906,8343,7477
1069.996243,9734,8430,7339
1068.991583,9887,8356,7371
1067.986746,9865,8352,7316
1066.981733,9672,8243,7228
1065.976542,9652,8064,7351
1064.971175,9513,7893,7166
1063.96563,9402,7859,7111
1062.959909,9225,7618,7008
1061.95401,9139,7477,6932
1060.947934,9095,7406,6861
1059.941682,8990,7356,6765
1058.935251,8891,7140,6586
1057.928644,8861,7130,6730
1056.92186,8690,7139,6670
1055.914898,8597,7100,6539
1054.907758,8700,7114,6602
1053.900442,8598,7113,6498
1052.892947,8599,6981,6495
1051.885276,8562,6967,6366
1050.877426,8409,6929,6504
1049.8694,8426,6938,6545
1048.861195,8478,6953,6462
1047.852813,8339,6951,6377
1046.844253,8459,6973,6397
1045.835516,8305,6906,6402
1044.8266,8392,6952,6370
1043.817507,8454,6908,6362
1042.808236,8316,6901,6442
1041.798787,8292,6852,6446
1040.78916,8342,7024,6427
1039.779355,8296,6954,6408
1038.769372,8392,6887,6414
1037.759211,8368,6916,6403
1036.748872,8353,6857,6379
1035.738355,8417,6960,6364
1034.72766,8249,6897,6324
1033.716786,8309,6918,6410
1032.705734,8256,6883,6321
1031.694503,8318,6846,6371
1030.683095,8384,6939,6387
1029.671508,8360,6916,6306
1028.659742,8315,6849,6303
1027.647798,8266,6909,6300
1026.635675,8358,6930,6303
1025.623374,8390,6868,6419
1024.610894,8265,6850,6382
1023.598236,8277,6848,6313
1022.585399,8299,6838,6412
1021.572383,8333,6779,6395
1020.559188,8319,6813,6400
1019.545814,8371,6965,6342
1018.532262,8253,6879,6407
1017.518531,8415,6916,6328
1016.504621,8343,6919,6349
1015.490531,8304,7004,6357
1014.476263,8299,6783,6421
1013.461816,8419,6863,6287
1012.447189,8354,6952,6420
1011.432383,8365,6950,6337
1010.417399,8425,6889,6282
1009.402235,8406,6856,6403
1008.386891,8404,7029,6422
1007.371368,8453,6905,6426
1006.355666,8449,6909,6428
1005.339785,8415,7073,6417
1004.323724,8586,6992,6421
1003.307483,8469,7045,6414
1002.291063,8541,7067,6457
1001.274464,8478,7008,6440
1000.257685,8411,7050,6431
999.2407258,8426,6951,6398
998.2235873,8339,6925,6473
997.2062689,8472,6843,6373
996.1887708,8444,6938,6337
995.1710929,8284,7042,6387
994.1532351,8354,6895,6424
993.1351974,8351,6954,6389
992.1169797,8346,6852,6436
991.098582,8354,6926,6337
990.0800042,8342,6921,6448
989.0612464,8415,6903,6422
988.0423085,8413,6994,6334
987.0231904,8318,6975,6419
986.003892,8282,6880,6436
984.9844134,8398,7012,6336
983.9647546,8356,6970,6365
982.9449153,8354,6827,6328
981.9248957,8323,6896,6385
980.9046957,8372,6950,6407
979.8843152,8272,7055,6345
978.8637542,8366,6779,6324
977.8430127,8328,6907,6371
976.8220905,8420,6789,6384
975.8009877,8382,6844,6343
974.7797043,8340,6881,6295
973.7582401,8285,6879,6314
972.7365952,8368,6851,6346
971.7147694,8314,6823,6379
970.6927628,8334,6794,6305
969.6705754,8319,6960,6268
968.6482069,8330,6868,6293
967.6256576,8275,6863,6369
966.6029272,8269,6857,6353
965.5800157,8212,6840,6382
964.5569231,8280,6828,6393
963.5336494,8317,6844,6339
962.5101945,8191,6915,6359
961.4865584,8422,6821,6342
960.462741,8289,6817,6298
959.4387423,8378,6849,6372
958.4145623,8158,6793,6246
957.3902008,8225,6748,6251
956.3656579,8225,6737,6265
955.3409335,8157,6753,6337
954.3160276,8208,6825,6359
953.2909401,8240,6845,6246
952.265671,8139,6745,6237
951.2402203,8158,6777,6354
950.2145878,8147,6841,6295
949.1887736,8278,6749,6283
948.1627777,8295,6809,6254
947.1365999,8161,6748,6259
946.1102402,8243,6777,6361
945.0836986,8217,6803,6287
944.0569751,8167,6853,6241
943.0300696,8281,6793,6139
942.002982,8159,6692,6282
940.9757123,8242,6778,6271
939.9482606,8194,6697,6195
938.9206266,8172,6870,6355
937.8928105,8212,6748,6317
936.8648121,8148,6857,6180
935.8366314,8338,6731,6234
934.8082683,8207,6766,6311
933.7797229,8217,6799,6286
932.750995,8178,6814,6286
931.7220847,8309,6880,6306
930.6929919,8194,6857,6184
929.6637165,8290,6755,6239
928.6342585,8320,6834,6256
927.6046179,8246,6781,6415
926.5747946,8094,6822,6343
925.5447886,8242,6830,6235
924.5145998,8253,6843,6267
923.4842282,8189,6824,6255
922.4536737,8164,6829,6302
921.4229363,8293,6884,6289
920.392016,8337,6914,6252
919.3609127,8284,6917,6364
918.3296264,8255,6896,6360
917.298157,8320,6856,6468
916.2665045,8341,6932,6272
915.2346689,8290,6890,6276
914.20265,8284,6922,6339
913.1704479,8221,6822,6272
912.1380626,8282,6871,6425
911.1054938,8170,6956,6409
910.0727418,8277,6888,6331
909.0398063,8262,6902,6330
908.0066873,8253,6905,6415
906.9733848,8160,6768,6312
905.9398988,8278,6920,6300
904.9062292,8234,6823,6206
903.872376,8366,6825,6233
902.8383391,8250,6851,6387
901.8041185,8278,6788,6380
900.7697141,8335,6793,6331
899.7351259,8264,6787,6294
898.7003538,8304,6848,6398
897.6653979,8206,6872,6273
896.630258,8262,6842,6316
895.5949342,8192,6835,6311
894.5594263,8178,6763,6256
893.5237344,8238,6828,6331
892.4878583,8298,6763,6333
891.4517981,8174,6690,6274
890.4155537,8196,6814,6282
889.3791251,8222,6700,6250
888.3425122,8198,6759,6241
887.305715,8141,6801,6206
886.2687333,8229,6819,6291
885.2315673,8185,6842,6313
884.1942168,8225,6789,6328
883.1566818,8122,6762,6273
882.1189623,8199,6773,6275
881.0810582,8128,6743.210601,6239
880.0429694,8046,6713.415903,6222
879.004696,8199,6683.615904,6253
877.9662379,8040,6653.810603,6244
876.9275949,8119,6624,6264
875.8887672,8127,6721,6228
874.8497547,8163,6672,6257
873.8105572,8130,6669,6262
872.7711748,8076,6698,6180
871.7316074,8001,6719,6182
870.691855,8093,6727,6206
869.6519176,8132,6717,6231
868.611795,8071,6704,6206
867.5714872,8076,6742,6184
866.5309943,8162,6696,6221
865.4903161,8178,6637,6159
864.4494526,8162,6738,6169
863.4084038,8098,6649,6107
862.3671696,8059,6735,6150
861.32575,7948,6706,6212
860.284145,8080,6635,6197
859.2423544,8047,6740,6220
858.2003783,8091,6782,6218
857.1582166,8113,6667,6166
856.1158692,8108,6671,6212
855.0733362,8066,6639,6139
854.0306174,8010,6714,6215
852.9877128,8070,6642,6163
851.9446225,8045,6752,6136
850.9013463,8041,6687,6182
849.8578842,7998,6703,6131
848.8142361,8155,6619,6164
847.770402,8032,6613,6206
846.726382,8085,6723,6091
845.6821758,8006,6746,6169
844.6377835,8148,6700,6165
843.593205,8124,6786,6298
842.5484404,8067,6767,6180
841.5034894,8056,6754,6210
840.4583522,7993,6773,6266
839.4130286,8215,6786,6204
838.3675187,8185,6657,6175
837.3218223,8239,6728,6115
836.2759394,8058,6703,6264
835.22987,8061,6718,6217
834.1836141,8170,6716,6162
833.1371715,8011,6796,6139
832.0905423,8304,6724,6283
831.0437263,8084,6686,6282
829.9967237,8118,6696,6221
828.9495342,8199,6730,6159
827.902158,8078,6717,6211
826.8545948,8044,6617,6182
825.8068447,8032,6677,6167
824.7589077,8068,6700,6232
823.7107836,8051,6676,6146
822.6624725,8031,6724,6215
821.6139743,8119,6732,6165
820.565289,8232,6817,6275
819.5164165,8079,6604,6186
818.4673567,8052,6667,6276
817.4181097,8111,6623,6229
816.3686753,8170,6705,6178
815.3190536,8059,6657,6204
814.2692445,8018,6663,6225
813.2192479,7998,6728,6139
812.1690638,8025,6683,6141
811.1186922,8018,6680,6239
810.068133,8189,6687,6254
809.0173861,7980,6597,6188
807.9664516,8133,6642,6149
806.9153294,8142,6745,6245
805.8640194,7969,6736,6153
804.8125216,8084,6651,6146
803.7608359,8108,6688,6149
802.7089623,8112,6693,6227
801.6569008,7983,6635,6153
800.6046513,8057,6751,6143
799.5522138,8095,6730,6110
798.4995882,8014,6601,6193
797.4467744,8064,6671,6002
796.3937725,7988,6659,6135
795.3405824,7987,6680,6141
794.287204,8085,6532,6135
793.2336373,7964,6525,6173
792.1798823,7956,6503,6120
791.1259389,8068,6648,6236
790.071807,8043,6628,6169
789.0174867,7927,6725,6105
787.9629778,7907,6507,6190
786.9082804,7809,6529,6082
785.8533943,7996,6515,6101
784.7983196,7920,6626,6051
783.7430562,7965,6498,6088
782.687604,7998,6558,6125
781.6319631,7955,6521,6027
780.5761332,7901,6585,6180
779.5201145,7882,6686,6101
778.4639069,7880,6493,6131
777.4075103,8009,6608,5989
776.3509247,7947,6484,6074
775.29415,7909,6581,6091
774.2371862,8012,6538,6122
773.1800332,7869,6476,5991
772.122691,7894,6581,6042
771.0651596,7822,6539,6033
770.0074389,7889,6615,6017
768.9495289,7855,6543,6089
767.8914295,7828,6532,6099
766.8331406,7956,6598,6101
765.7746623,7855,6508,6012
764.7159944,7802,6604,6044
763.657137,7890,6592,6064
762.59809,7851,6511,6090
761.5388533,7819,6434,6089
760.479427,7868,6611,6064
759.4198108,7851,6538,6059
758.3600049,7983,6563,6066
757.3000092,7974,6594,6054
756.2398236,7849,6516,6108
755.179448,7943,6617,6059
754.1188825,7961,6505,6059
753.058127,7815,6496,6046
751.9971814,7962,6596,6080
750.9360457,7804,6579,6047
749.8747198,7777,6583,6059
748.8132038,7933,6613,6029
747.7514974,7856,6536,6124
746.6896009,7993,6528,6097
745.6275139,7910,6492,6097
744.5652366,7892,6588,6081
743.5027689,7940,6567,6049
742.4401107,7978,6568,6062
741.377262,8024,6601,6010
740.3142227,7891,6507,6112
739.2509928,7816,6530,6055
738.1875723,7968,6564,6137
737.123961,7832,6548,6049
736.060159,7975,6634,6119
734.9961663,7884,6497,6072
733.9319826,7878,6592,6117
732.8676081,7919,6496,6138
731.8030427,7903,6634,6039
730.7382863,7856,6589,6095
729.6733389,7876,6595,6112
728.6082004,7915,6565,6101
727.5428708,7832,6466,6031
726.4773501,7895,6577,6055
725.4116381,7848,6515,6021
724.345735,7876,6514,6048
723.2796405,7774,6553,6029
722.2133546,7960,6531,6134
721.1468774,7905,6605,6037
720.0802088,7842,6562,6016
719.0133487,7916,6498,6027
717.946297,7863,6479,6070
716.8790538,7883,6513,5990
715.811619,7852,6530,6061
714.7439925,7930,6624,6168
713.6761743,7766,6577,6040
712.6081643,7839,6566,6031
711.5399626,7927,6618,6084
710.471569,7875,6489,6017
709.4029835,7801,6316,6029
708.3342061,7797,6543,6125
707.2652367,7664,6479,6031
706.1960753,7767,6435,5893
705.1267218,7740,6418,5962
704.0571762,7706,6491,5925
702.9874384,7685,6428,5943
701.9175084,7732,6332,5902
700.8473861,7747,6465,5980
699.7770715,7667,6344,5903
698.7065646,7736,6345,5956
697.6358653,7615,6418,5873
696.5649736,7541,6425,5966
695.4938893,7587,6403,5937
694.4226125,7659,6466,5844
693.3511432,7718,6386,5907
692.2794812,7610,6394,5890
691.2076265,7777,6336,5936
690.1355791,7613,6287,5964
689.063339,7665,6268,5963
687.990906,7615,6348,5961
686.9182802,7799,6412,6026
685.8454614,7646,6443,5931
684.7724497,7620,6358,5900
683.6992451,7567,6409,5984
682.6258473,7647,6314,5935
681.5522565,7692,6336.791798,5907
680.4784725,7625,6359.587695,5929
679.4044954,7606,6382.387694,5940
678.330325,7590,6405.191796,5856
677.2559614,7556,6428,5850
676.1814044,7673,6379,5903
675.106654,7733,6369,5903
674.0317103,7524,6344,5862
672.956573,7709,6423,5960
671.8812423,7784,6444,5910
670.805718,7615,6326,5890
669.7300001,7627,6439,5971
668.6540886,7712,6413,5924
667.5779833,7688,6344,5980
666.5016843,7623,6335,5965
665.4251916,7656,6435,5919
664.348505,7759,6475,5890
663.2716245,7683,6443,6021
662.19455,7734,6361,5912
661.1172816,7655,6471,5986
660.0398192,7619,6427,6016
658.9621627,7698,6357,5955
657.8843121,7704,6376,5942
656.8062674,7635,6373,5900
655.7280284,7666,6397,5912
654.6495951,7669,6362,6006
653.5709676,7600,6367,5893
652.4921457,7635,6426,5948
651.4131294,7709,6377,5933
650.3339187,7698,6402,5981
649.2545135,7637,6531,5954
648.1749137,7683,6377,5940
647.0951194,7647,6356,5891
646.0151304,7604,6355,5992
644.9349467,7635,6336,5884
643.8545684,7703,6329,5856
642.7739952,7517,6346,5979
641.6932273,7649,6355,5910
640.6122644,7658,6305,5793
639.5311067,7508,6166,5905
638.449754,7570,6217,5954
637.3682063,7619,6372,5835
636.2864635,7551,6268,5984
635.2045256,7482,6265,5883
634.1223926,7588,6307,5854
633.0400644,7490,6264,5868
631.9575409,7606,6338,5950
630.8748222,7638,6234,5794
629.7919081,7452,6223,5875
628.7087986,7562,6344,5811
627.6254937,7635,6284,5769
626.5419934,7579,6297,5840
625.4582975,7518,6216,5789
624.374406,7537,6195,5814
623.2903189,7479,6242,5831
622.2060361,7496,6283,5857
621.1215577,7567,6242,5834
620.0368834,7612,6240,5807
618.9520134,7456,6217,5842
617.8669475,7541,6287,5776
616.7816857,7469,6189,5811
615.6962279,7379,6266,5855
614.6105742,7452,6225,5808
613.5247244,7418,6210,5828
612.4386785,7346,6245,5767
611.3524364,7471,6246,5897
610.2659982,7440,6210,5780
609.1793638,7375,6245,5726
608.092533,7496,6155,5798
607.005506,7533,6194,5856
605.9182825,7529,6241,5709
604.8308626,7375,6221,5794
603.7432463,7394,6297,5728
602.6554334,7474,6241,5802
601.567424,7516,6178,5900
600.4792179,7502,6222,5755
599.3908152,7414,6259,5852
598.3022158,7542,6283,5792
597.2134196,7446,6109,5800
596.1244266,7544,6263,5811
595.0352368,7370,6186,5731
593.9458501,7475,6221,5786
592.8562664,7526,6236,5783
591.7664857,7478,6300,5834
590.676508,7563,6336,5866
589.5863331,7558,6190,5743
588.4959612,7486,6216,5771
587.405392,7474,6162,5783
586.3146257,7287,6219,5746
585.223662,7475,6210,5748
584.132501,7321,6221,5720
583.0411426,7440,6115,5783
581.9495868,7444,6214,5690
580.8578335,7463,6181,5728
579.7658827,7261,6190,5839
578.6737344,7452,6096,5796
577.5813884,7541,6263,5732
576.4888447,7348,6235,5733
575.3961034,7337,6148,5716
574.3031643,7443,6205,5670
573.2100273,7334,6126,5746
572.1166925,7389,6188,5835
571.0231598,7351,6134,5728
569.9294292,7416,6112,5773
568.8355005,7311,6188,5712
567.7413738,7390,6139,5767
566.647049,7437,6099,5801
565.5525261,7377,6151,5735
564.4578049,7322,6115,5691
563.3628856,7355,6237,5596
562.2677679,7298,6126,5665
561.1724519,7306,6116,5673
560.0769375,7287,6026,5680
558.9812246,7330,6163,5749
557.8853133,7368,6092,5773
556.7892035,7357,6093,5636
555.6928951,7232,6107,5610
554.596388,7278,6054,5730
553.4996823,7216,6053,5679
552.4027778,7239,6043,5702
551.3056746,7131,6079,5664
550.2083726,7195,5983,5549
549.1108717,7258,6062,5620
548.0131718,7095,6089,5638
546.915273,7280,6119,5640
545.8171752,7256,6089,5685
544.7188784,7262,6030,5657
543.6203824,7202,6152,5648
542.5216873,7206,6105,5624
541.4227929,7343,6015,5597
540.3236993,7307,6166,5761
539.2244064,7247,6080,5602
538.1249141,7408,6029,5727
537.0252225,7318,6076,5593
535.9253314,7229,6071,5615
534.8252408,7393,5987,5711
533.7249506,7245,6041,5623
532.6244609,7208,5993,5611
531.5237715,7240,5983,5608
530.4228824,7252,5979,5681
529.3217936,7222,6066,5637
528.2205049,7247,6015,5685
527.1190165,7233,6015.571118,5685
526.0173282,7202,6016.142339,5571
524.9154399,7208,6016.713664,5606
523.8133516,7215,6017.285092,5631
522.7110633,7167,6017.856624,5614
521.6085749,7171,6018.42826,5616
520.5058864,7087,6019,5618
519.4029978,7252,6046,5642
518.2999088,7203,6058,5690
517.1966197,7176,6047,5633
516.0931301,7239,6074,5612
514.9894402,7240,6016,5668
513.8855499,7130,5997,5679
512.7814591,7204,5928,5589
511.6771678,7266,6031,5628
510.572676,7198,5898,5629
509.4679835,7223,5987,5585
508.3630903,7146,6045,5626
507.2579964,7149,5995,5657
506.1527018,7144,6040,5597
505.0472063,7254,5977,5578
503.94151,7195,5998,5552
502.8356128,7116,6081,5582
501.7295146,7222,6011,5552
500.6232154,7095,5989,5652
499.5167151,7262,6009,5623
498.4100137,7166,5976,5614
497.3031112,7176,5941,5566
496.1960075,7154,5964,5570
495.0887025,7070,6012,5551
493.9811962,7078,5940,5577
492.8734885,7244,5942,5567
491.7655795,7133,6059,5563
490.657469,7188,5985,5596
489.549157,7166,5957,5500
488.4406434,7248,6102,5578
487.3319282,7182,6030,5569
486.2230114,7185,5985,5532
485.1138929,7231,6030,5616
484.0045727,7226,6011,5613
482.8950506,7077,5907,5602
481.7853267,7107,6047,5543
480.6754009,7070,5915,5575
479.5652732,7044,5952,5558
478.4549434,7046,5903,5536
477.3444117,7025,5897,5532
476.2336778,7064,5886,5590
475.1227418,7008,5969,5517
474.0116036,6926,5926,5476
472.9002631,7029,5929,5418
471.7887204,7014,5800,5504
470.6769753,6880,5823,5415
469.5650278,7048,5873,5473
468.4528779,7009,5903,5448
467.3405255,6942,5794,5440
466.2279706,6953,5886,5437
465.1152131,7049,5875,5506
464.0022529,6891,5858,5474
462.8890901,6955,5931,5504
461.7757245,6962,5821,5363
460.6621561,6965,5822,5450
459.5483849,7047,5931,5508
458.4344108,6944,5890,5416
457.3202338,6917,5837,5373
456.2058538,6984,5888,5456
455.0912707,6987,5845,5445
453.9764846,6864,5848,5430
452.8614954,6897,5803,5460
451.7463029,6980,5783,5420
450.6309072,6886,5876,5486
449.5153083,6908,5802,5449
448.399506,6946,5839,5404
447.2835003,6995,5804,5463
446.1672912,6948,5931,5435
445.0508786,6990,5879,5408
443.9342624,6908,5803,5463
442.8174427,6892,5829,5508
441.7004194,6933,5813,5451
440.5831923,6931,5830,5433
439.4657616,6842,5810,5453
438.348127,6922,5857,5465
437.2302887,6954,5706,5410
436.1122464,6969,5665,5379
434.9940002,6851,5827,5330
433.8755501,6878,5739,5422
432.7568959,6906,5674,5409
431.6380376,6952,5784,5386
430.5189751,6930,5709,5431
429.3997085,6825,5728,5343
428.2802377,6722,5812,5397
427.1605626,6753,5730,5380
426.0406832,6816,5751,5402
424.9205993,6790,5630,5319
423.8003111,6790,5743,5369
422.6798183,6758,5664,5308
421.559121,6805,5614,5291
420.4382192,6718,5635,5328
419.3171127,6744,5765,5339
418.1958015,6776,5607,5272
417.0742856,6722,5622,5247
415.9525649,6767,5589,5311
414.8306393,6710,5627,5243
413.7085089,6739,5657,5234
412.5861735,6754,5674,5259
411.4636332,6652,5684,5278
410.3408878,6755,5664,5299
409.2179373,6729,5624,5244
408.0947817,6767,5621,5200
406.9714209,6654,5729,5295
405.8478549,6811,5609,5249
404.7240836,6730,5675,5291
403.6001069,6621,5686,5299
402.4759249,6682,5546,5276
401.3515374,6667,5597,5220
400.2269444,6767,5570,5222
399.1021459,6826,5649,5257
397.9771418,6708,5622,5273
396.851932,6682,5604,5237
395.7265166,6802,5581,5348
394.6008954,6626,5676,5248
393.4750684,6680,5549,5226
392.3490355,6672,5603,5223
391.2227968,6693,5571,5244
390.0963521,6684,5637,5296
388.9697015,6585,5630,5288
387.8428447,6688,5609,5287
386.7157819,6649,5630,5299
385.588513,6599,5620,5239
384.4610378,6606,5507,5248
383.3333564,6738,5586,5289
382.2054687,6578,5687,5221
381.0773746,6657,5667,5306
379.9490741,6670,5647,5248
378.8205672,6680,5582,5282
377.6918537,6622,5631,5275
376.5629338,6512,5580,5234
375.4338072,6638,5661,5220
374.3044739,6741,5655,5321
373.1749339,6538,5620,5250
372.0451872,6584,5478,5222
370.9152337,6542,5588,5213
369.7850733,6497,5530,5284
368.654706,6530,5511,5161
367.5241317,6590,5597,5185
366.3933504,6569,5540,5210
365.2623621,6574,5544,5239
364.1311666,6473,5524,5177
362.999764,6547,5531,5191
361.8681541,6489,5519,5137
360.736337,6507,5502,5170
359.6043126,6430,5366,5136
358.4720807,6525,5498,5151
357.3396415,6444,5594,5082
356.2069948,6447,5462,5157
355.0741405,6457,5481,5104
353.9410787,6376,5458,5094
352.8078093,6416,5452,5108
