Ramanshift[cm-1],Intensity
-93.47115107,14308.8
-87.69374369,12989.8
-81.9253076,12939
-76.16582701,13026.6
-70.41528615,12973.2
-64.67366933,12750
-58.94096086,12679.6
-53.21714512,12902.8
-47.50220652,12981
-41.79612954,13038.6
-36.09889866,13597.6
-30.41049843,13660.6
-24.73091343,13242
-19.0601283,13386.2
-13.39812769,13045.4
-7.744896327,12833.6
-2.100418946,12610.4
3.535319659,13354.2
9.162334658,12678
14.78064118,13061.2
20.39025432,12674.8
25.99118913,12745.4
31.58346061,13236.2
37.16708375,13020.2
42.74207347,12594.6
48.30844468,12761
53.86621222,12549.8
59.41539093,12250.4
64.95599558,12166.4
70.48804091,12489
76.01154164,12610
81.52651243,12102.6
87.03296792,12630.2
92.5309227,12938.2
98.02039134,12240.4
103.5013884,12537
108.9739282,12451
114.4380255,12357
119.8936944,12555.2
125.3409495,13511
130.779805,12321.8
136.2102753,12109
141.6323747,12112.6
147.0461174,12788.8
152.4515176,12375.2
157.8485895,12246.2
163.2373472,12086.6
168.6178049,12574.8
173.9899766,12703.8
179.3538764,12355.6
184.7095182,12328.6
190.0569161,12595
195.396084,12789.2
200.7270358,12139.6
206.0497854,12194.8
211.3643466,11940.8
216.6707333,12371.6
221.9689593,11935.6
227.2590382,12057.8
232.5409839,12152
237.8148101,11966.8
243.0805303,12165.4
248.3381582,12134.4
253.5877075,11964.6
258.8291917,12175.8
264.0626244,12086.2
269.288019,12322.8
274.5053891,12574.8
279.7147481,12146.6
284.9161094,12013.2
290.1094865,12422
295.2948927,13693
300.4723414,16489
305.6418459,19256.2
310.8034194,21843.4
315.9570752,23929.4
321.1028267,24298.8
326.2406869,24399.2
331.370669,24797.4
336.4927863,25070.8
341.6070517,25419
346.7134786,25476
351.8120798,25781.8
356.9028684,25468.8
361.9858576,25366.4
367.0610602,25888.4
372.1284892,25355.6
377.1881577,25683.6
382.2400784,25471.8
387.2842644,25661.2
392.3207284,26102.2
397.3494833,25659.4
402.370542,25838.6
407.3839172,25453.4
412.3896217,25311
417.3876683,24905.4
422.3780697,24977.2
427.3608386,24902.8
432.3359876,25216
437.3035295,25241.2
442.2634769,25324.8
447.2158423,24463.8
452.1606383,24482
457.0978776,24644.6
462.0275727,24090
466.9497361,24632
471.8643802,23950.8
476.7715176,24615.2
481.6711608,24598.2
486.5633221,24844.8
491.448014,24747.6
496.3252488,24541
501.195039,24534.8
506.0573969,24781.6
510.9123349,24342
515.7598651,23750.6
520.6,24148.6
525.4327518,23999.6
530.2581327,24069
535.076155,23507
539.8868309,23923.2
544.6901726,23973.6
549.4861922,23540.4
554.2749019,24449.8
559.0563139,23567.6
563.8304402,23359
568.597293,24453.2
573.3568844,24162.2
578.1092263,23594.8
582.8543308,23969.8
587.5922101,23976.4
592.322876,23571.6
597.0463405,23638.2
601.7626157,24054
606.4717135,23414.2
611.1736458,23606
615.8684246,23477.4
620.5560617,23599.4
625.2365691,23433.4
629.9099585,23842.4
634.5762419,24047.6
639.2354312,23375.2
643.887538,23594.8
648.5325743,23279.2
653.1705518,23152
657.8014823,23375.4
662.4253775,22645.2
667.0422493,23076.2
671.6521092,22968.2
676.2549691,23185.6
680.8508407,23054.4
685.4397355,23017.4
690.0216654,23187.2
694.5966419,22866.6
699.1646767,23383.4
703.7257814,23068.2
708.2799676,23146
712.827247,23388.4
717.367631,23053.2
721.9011314,23236.4
726.4277595,22401.6
730.9475271,22988.6
735.4604456,22864
739.9665264,23393
744.4657813,22824.2
748.9582215,22788.2
753.4438587,22139.8
757.9227042,22007.8
762.3947696,22445.2
766.8600662,21862.2
771.3186056,23278
775.770399,22208.8
780.215458,22536
784.6537939,21812.6
789.0854181,21732.4
793.510342,21643.6
797.9285769,22147.6
802.3401342,21556.2
806.7450253,21576.6
811.1432614,21527.2
815.5348538,21383.4
819.9198139,20967.4
824.2981531,21338
828.6698824,21358.2
833.0350133,21221.6
837.393557,20934.2
841.7455248,21367.6
846.0909278,20969.8
850.4297774,20808
854.7620848,20926.6
859.0878611,21255.4
863.4071176,20694.4
867.7198655,21283.4
872.026116,21529.6
876.3258802,21834.4
880.6191693,21277.4
884.9059946,21312.8
889.186367,21798.4
893.4602979,20467.6
897.7277982,20523.4
901.9888793,20897.2
906.2435521,21329.8
910.4918277,20642.6
914.7337174,20666.6
918.9692321,20490
923.1983831,21192.6
927.4211813,20710.4
931.6376378,21427.2
935.8477637,20840.8
940.0515701,20928.4
944.249068,21206
948.4402684,20336.6
952.6251825,21050.4
956.8038212,20746.8
960.9761955,21370.8
965.1423166,20873.2
969.3021953,20902.8
973.4558427,21065.8
977.6032699,20624
981.7444877,20916.4
985.8795072,20813
990.0083394,20852.4
994.1309953,20523.4
998.2474857,20968.4
1002.357822,20036.4
1006.462014,20828
1010.560075,20455
1014.652013,20810.4
1018.737841,21154
1022.81757,20557
1026.891209,20472.8
1030.958771,20279.6
1035.020266,20743
1039.075705,20397.4
1043.1251,20122
1047.16846,20369.2
1051.205797,20346.6
1055.237121,20103.2
1059.262444,20129.8
1063.281777,19914.2
1067.295131,20195
1071.302515,21484.6
1075.303942,20962
1079.299422,21922.8
1083.288966,21444.4
1087.272585,21037
1091.250289,20688
1095.222091,20559.6
1099.187999,20123.2
1103.148026,20360
1107.102183,20151
1111.050479,20387
1114.992927,20412
1118.929536,20268.6
1122.860318,20771.8
1126.785283,20093.2
1130.704443,20228.4
1134.617808,21241.8
1138.52539,21406.6
1142.427198,21285.4
1146.323244,21273
1150.213538,20706
1154.098093,20874
1157.976917,20236.4
1161.850023,20107.4
1165.717421,20527.2
1169.579121,20229
1173.435135,20387.2
1177.285474,19582.4
1181.130148,19867.8
1184.969169,20199.4
1188.802547,20249.6
1192.630292,19830.4
1196.452416,19539.4
1200.26893,19666.2
1204.079844,19210
1207.88517,18848.2
1211.684917,19639.2
1215.479098,19145.2
1219.267722,20720.6
1223.050801,19327.8
1226.828346,19291.2
1230.600366,19446.2
1234.366874,19449
1238.12788,19264.2
1241.883395,19268
1245.633429,19480.8
1249.377994,19589.6
1253.1171,18801
1256.850759,19267.8
1260.578981,19173.8
1264.301776,19380.6
1268.019157,19251.4
1271.731133,18919.6
1275.437715,18711.4
1279.138915,19222.4
1282.834743,19516.2
1286.52521,19050.6
1290.210328,18951.4
1293.890106,19060.4
1297.564555,19583.2
1301.233688,18976.6
1304.897514,19229.8
1308.556044,19328
1312.209289,19370.8
1315.857261,18807.8
1319.499969,18884.8
1323.137425,19759.2
1326.769641,19212.4
1330.396626,19716.6
1334.018391,19032.8
1337.634948,19123.4
1341.246307,18851.4
1344.85248,18821.4
1348.453477,18685.6
1352.049309,18654.6
1355.639987,18759
1359.225522,19413.4
1362.805925,18855.6
1366.381207,18887.4
1369.951379,18882
1373.516452,19093.4
1377.076436,19232.6
1380.631343,19136.6
1384.181184,18991.6
1387.725969,19274.8
1391.26571,18994.4
1394.800417,18769.8
1398.330102,18917
1401.854776,18890.6
1405.374448,18529.4
1408.889132,18127.8
1412.398837,17894
1415.903574,18163.8
1419.403355,18851.2
1422.89819,18404.6
1426.388091,18364.6
1429.873069,19112
1433.353134,18449.2
1436.828298,18460.8
1440.298571,18528.6
1443.763965,18178.4
1447.224491,17722.8
1450.68016,17802.6
1454.130983,18319.8
1457.576971,18046.2
1461.018135,18272.2
1464.454486,18373.8
1467.886036,17900.6
1471.312794,17857
1474.734774,17593.8
1478.151985,18305
1481.564439,18050.6
1484.972146,17713.6
1488.375119,17415.2
1491.773368,17598.4
1495.166904,18384.4
1498.555739,17568.8
1501.939883,17721.8
1505.319349,17139
1508.694146,17453.6
1512.064286,17592.6
1515.429781,17640.8
1518.790642,17282.2
1522.146879,17623.4
1525.498505,16986.4
1528.845529,16999.2
1532.187965,17676.6
1535.525822,17320
1538.859112,17315.4
1542.187846,17881.2
1545.512036,17037.6
1548.831693,18280.6
1552.146829,17756.8
1555.457453,17120.6
1558.763579,16627.6
1562.065216,17009.2
1565.362377,17352.8
1568.655073,17524.4
1571.943315,17280
1575.227114,17237
1578.506482,17094.2
1581.781431,17749.8
1585.051971,17068.4
1588.318114,17151.8
1591.579872,17002.8
1594.837255,16884.4
1598.090275,16673.6
1601.338945,16570.4
1604.583274,16943.6
1607.823275,16634.6
1611.058959,15955.4
1614.290338,16736.6
1617.517422,15953
1620.740224,16304.8
1623.958755,15869.6
1627.173027,16021.6
1630.38305,15609.4
1633.588838,15955.6
1636.7904,15661.6
1639.987749,15965.6
1643.180896,16038.4
1646.369853,15373
1649.554632,16093.8
1652.735244,15447.4
1655.9117,15043.2
1659.084013,15315
1662.252193,15984.2
1665.416254,14995.2
1668.576205,15223.8
1671.732059,15562.2
1674.883828,15546.4
1678.031523,15053
1681.175157,15088.4
1684.314739,15161
1687.450284,15126.2
1690.581801,15020.8
1693.709304,14754.2
1696.832803,14742.8
1699.952311,14973
1703.067839,15014.8
1706.179399,14969.4
1709.287003,15366.8
1712.390663,14904.2
1715.49039,14957.8
1718.586197,15303
1721.678095,15068.6
1724.766096,15056.2
1727.850213,14341.6
1730.930456,14825.6
1734.006838,14554.8
1737.079372,14859.6
1740.148067,14371.4
1743.212938,15539.4
1746.273996,14589
1749.331252,14568.6
1752.384718,14584.2
1755.434408,14598.4
1758.480332,14595.2
1761.522503,14596.8
1764.560933,14352.4
1767.595634,13916.8
1770.626618,14750.4
1773.653896,14740.6
1776.677482,14321.4
1779.697388,14267.8
1782.713625,14842.8
1785.726205,14768.6
1788.735141,14747.4
1791.740445,14323.2
1794.742129,14246.2
1797.740206,14678.8
1800.734687,14729.4
1803.725585,14497.8
1806.712912,14460
1809.69668,14074.8
1812.676902,14261
1815.65359,13911.2
1818.626756,13986.6
1821.596413,14144
1824.562573,13709
1827.525247,14187.6
1830.48445,13993.8
1833.440192,14069.8
1836.392487,13984.6
1839.341347,14168
1842.286784,14219.6
1845.22881,13643.4
1848.167439,14244.8
1851.102682,13983.4
1854.034553,14090.6
1856.963063,13754.8
1859.888226,14653.6
1862.810053,14212.8
1865.728557,13925.2
1868.643751,13706.8
1871.555648,13654
1874.46426,13402.8
1877.369599,14167.2
1880.271679,13935
1883.170512,13755
1886.06611,14208.2
1888.958487,13871.4
1891.847655,13859.8
1894.733626,13960.4
1897.616414,14030.2
1900.496032,13528.4
1903.372491,13933.6
1906.245805,14243
1909.115987,14213.2
1911.983049,14188.8
1914.847004,14057.4
1917.707866,14099.2
1920.565646,14081.4
1923.420359,13624.4
1926.272016,13909.8
1929.120631,13627.4
1931.966216,13888
1934.808786,13671.2
1937.648351,14023.2
1940.484927,13847.4
1943.318525,14038.8
1946.149158,14207.2
1948.97684,15340.4
1951.801584,14175.4
1954.623403,13986.6
1957.44231,14030
1960.258318,13494.6
1963.071439,13537.4
1965.881688,13837.4
1968.689078,13940.6
1971.493621,13598.8
