Ramanshift[cm-1],Intensity
-93.47115107,14312.2
-87.69374369,12926.4
-81.9253076,12856.8
-76.16582701,12890.2
-70.41528615,12968
-64.67366933,12709.6
-58.94096086,12634.8
-53.21714512,12808.2
-47.50220652,13079
-41.79612954,13033.6
-36.09889866,13426.8
-30.41049843,13588.4
-24.73091343,13168.4
-19.0601283,13252.4
-13.39812769,13025.8
-7.744896327,12816
-2.100418946,12596
3.535319659,13274.6
9.162334658,12555.6
14.78064118,12975.8
20.39025432,12676
25.99118913,12643.8
31.58346061,13118.6
37.16708375,12979.8
42.74207347,12620
48.30844468,12614.6
53.86621222,12469.6
59.41539093,12176.8
64.95599558,12155
70.48804091,12454
76.01154164,12610.6
81.52651243,12036
87.03296792,12520.4
92.5309227,12902.4
98.02039134,12236.8
103.5013884,12462.6
108.9739282,12316.4
114.4380255,12382.2
119.8936944,12509
125.3409495,13388.8
130.779805,12167.4
136.2102753,11988.2
141.6323747,12113.8
147.0461174,12673.4
152.4515176,12193.8
157.8485895,12100.8
163.2373472,12055.2
168.6178049,12311.6
173.9899766,12621.4
179.3538764,12238.4
184.7095182,12347
190.0569161,12526.6
195.396084,12670.2
200.7270358,12068.8
206.0497854,12136.6
211.3643466,11870
216.6707333,12210.2
221.9689593,11883.8
227.2590382,12005
232.5409839,12033.4
237.8148101,11992
243.0805303,12077.2
248.3381582,12076.8
253.5877075,11930.6
258.8291917,12024.6
264.0626244,12145
269.288019,12310.2
274.5053891,12437
279.7147481,12146.4
284.9161094,11916.2
290.1094865,12244.6
295.2948927,13067.8
300.4723414,15225
305.6418459,17044.4
310.8034194,19050.8
315.9570752,20769.2
321.1028267,21468.4
326.2406869,21787.2
331.370669,22359.6
336.4927863,22851.6
341.6070517,23409.2
346.7134786,23721.6
351.8120798,24448.8
356.9028684,24476
361.9858576,24431
367.0610602,25034.2
372.1284892,25626.8
377.1881577,28878.2
382.2400784,34823.6
387.2842644,42420.4
392.3207284,46704.2
397.3494833,43522.8
402.370542,37531.2
407.3839172,31603.2
412.3896217,27315
417.3876683,24488
422.3780697,23029.8
427.3608386,22218.2
432.3359876,22167.8
437.3035295,22134.8
442.2634769,21987.2
447.2158423,21015.6
452.1606383,20877
457.0978776,20857.2
462.0275727,20157.2
466.9497361,20603.6
471.8643802,19948.2
476.7715176,20726
481.6711608,21005.6
486.5633221,21534.8
491.448014,21246.6
496.3252488,20953.8
501.195039,20817.2
506.0573969,21180.4
510.9123349,20807.8
515.7598651,20161.6
520.6,20519.2
525.4327518,20447.6
530.2581327,20372
535.076155,19805
539.8868309,20284
544.6901726,20324.6
549.4861922,19782
554.2749019,20509.6
559.0563139,19501.4
563.8304402,19106.6
568.597293,20177.6
573.3568844,19726.2
578.1092263,19409.2
582.8543308,19849.6
587.5922101,19667
592.322876,19280.8
597.0463405,19391
601.7626157,19775.8
606.4717135,19335.2
611.1736458,19320
615.8684246,19358
620.5560617,19605.2
625.2365691,19397
629.9099585,20217.6
634.5762419,20846
639.2354312,20262.6
643.887538,20227.8
648.5325743,19730
653.1705518,19395.4
657.8014823,19468.4
662.4253775,18693.2
667.0422493,19134.6
671.6521092,19136.6
676.2549691,19374
680.8508407,19259.4
685.4397355,19101.2
690.0216654,19429.6
694.5966419,19460
699.1646767,20503.6
703.7257814,20449.8
708.2799676,20551.6
712.827247,20307.4
717.367631,20003.4
721.9011314,19684.8
726.4277595,18607.8
730.9475271,19217.2
735.4604456,18952.6
739.9665264,19349.6
744.4657813,18951
748.9582215,19021.2
753.4438587,18418.8
757.9227042,18185.8
762.3947696,18824.2
766.8600662,18354.6
771.3186056,19758.2
775.770399,18798.6
780.215458,19353.8
784.6537939,18794
789.0854181,18892.2
793.510342,19519
797.9285769,20678.6
802.3401342,20408.8
806.7450253,20400.8
811.1432614,20054
815.5348538,19552.2
819.9198139,19238
824.2981531,19072.6
828.6698824,18746.2
833.0350133,18237.8
837.393557,17773.4
841.7455248,18076.8
846.0909278,17718.4
850.4297774,17792.8
854.7620848,17785.6
859.0878611,18071
863.4071176,17517.8
867.7198655,18114.6
872.026116,18460.2
876.3258802,18785.4
880.6191693,18531.6
884.9059946,18664.6
889.186367,19292.8
893.4602979,18273.8
897.7277982,18262
901.9888793,18901.6
906.2435521,19438.8
910.4918277,19203.8
914.7337174,19407
918.9692321,19688.4
923.1983831,20452
927.4211813,20138.4
931.6376378,20846.2
935.8477637,20270
940.0515701,20680.8
944.249068,20999.6
948.4402684,20566
952.6251825,21586.6
956.8038212,21263
960.9761955,22104.2
965.1423166,21610.8
969.3021953,21783.2
973.4558427,21690.4
977.6032699,21511.8
981.7444877,21478.2
985.8795072,21267.4
990.0083394,21279.8
994.1309953,20972.8
998.2474857,21639.4
1002.357822,21267
1006.462014,22083.6
1010.560075,20844
1014.652013,19941.6
1018.737841,19410.6
1022.81757,18855.4
1026.891209,18577.6
1030.958771,18285.2
1035.020266,18607.6
1039.075705,18317.8
1043.1251,18236.4
1047.16846,18643
1051.205797,18829.2
1055.237121,19104.2
1059.262444,20348
1063.281777,22689
1067.295131,27569.2
1071.302515,35221.6
1075.303942,40207.4
1079.299422,42055.2
1083.288966,36375.2
1087.272585,28392
1091.250289,22744.8
1095.222091,19996.4
1099.187999,18522.2
1103.148026,18399.6
1107.102183,17982
1111.050479,18067.4
1114.992927,18013.4
1118.929536,18171.8
1122.860318,18995.2
1126.785283,19728.8
1130.704443,21549.8
1134.617808,25086.8
1138.52539,26889.6
1142.427198,26458.4
1146.323244,24298
1150.213538,21376.8
1154.098093,20279.2
1157.976917,19053.8
1161.850023,18943.6
1165.717421,19531.2
1169.579121,19422
1173.435135,20496.4
1177.285474,20351.2
1181.130148,21387.6
1184.969169,21368
1188.802547,20457
1192.630292,18932.6
1196.452416,17790.2
1200.26893,17278.4
1204.079844,16587.4
1207.88517,15992.4
1211.684917,16632.2
1215.479098,16258.4
1219.267722,17796.4
1223.050801,16307.6
1226.828346,16327.8
1230.600366,16755.2
1234.366874,16818
1238.12788,16701.8
1241.883395,16983
1245.633429,17339
1249.377994,17236.8
1253.1171,16168
1256.850759,16463.8
1260.578981,16224.6
1264.301776,16272.6
1268.019157,16070.8
1271.731133,15764.8
1275.437715,15522.6
1279.138915,16296.4
1282.834743,16602
1286.52521,16077.2
1290.210328,15896.2
1293.890106,16105
1297.564555,16766.8
1301.233688,16304.4
1304.897514,16773.4
1308.556044,16747.6
1312.209289,16550.8
1315.857261,15795.2
1319.499969,15847
1323.137425,16551.2
1326.769641,15963.6
1330.396626,16511.6
1334.018391,15924.6
1337.634948,16032.8
1341.246307,15777.4
1344.85248,15868.6
1348.453477,15763.6
1352.049309,15755.4
1355.639987,15993.6
1359.225522,16810
1362.805925,16418.4
1366.381207,16535.4
1369.951379,16682
1373.516452,17122.4
1377.076436,17730.4
1380.631343,18358.2
1384.181184,19036.8
1387.725969,20200.6
1391.26571,19915.2
1394.800417,18732.6
1398.330102,17552.4
1401.854776,16879.6
1405.374448,16128.8
1408.889132,15519.8
1412.398837,15263.6
1415.903574,16152
1419.403355,17741.2
1422.89819,18931.2
1426.388091,20273.8
1429.873069,21694.6
1433.353134,21115.8
1436.828298,20140.8
1440.298571,19177
1443.763965,17605.4
1447.224491,16534
1450.68016,16013.2
1454.130983,16206
1457.576971,15846.4
1461.018135,15882.6
1464.454486,15958.4
1467.886036,15581.2
1471.312794,15770.4
1474.734774,15372.2
1478.151985,15970
1481.564439,15734.8
1484.972146,15822.4
1488.375119,15486.4
1491.773368,15671.6
1495.166904,15950.8
1498.555739,15140
1501.939883,15083.2
1505.319349,14697.8
1508.694146,14881.4
1512.064286,14968
1515.429781,15025.2
1518.790642,14848
1522.146879,15191.2
1525.498505,14654.6
1528.845529,14714.6
1532.187965,15547.4
1535.525822,15337.4
1538.859112,15518.6
1542.187846,16275.4
1545.512036,15573.6
1548.831693,17250.6
1552.146829,17078.6
1555.457453,16711.4
1558.763579,16552.8
1562.065216,17556.6
1565.362377,18563
1568.655073,19605.8
1571.943315,20273
1575.227114,21081
1578.506482,21962.4
1581.781431,23659
1585.051971,24216.2
1588.318114,24702.2
1591.579872,23873.6
1594.837255,21852
1598.090275,19106.6
1601.338945,17224.8
1604.583274,16689.6
1607.823275,15696
1611.058959,14937.4
1614.290338,15452
1617.517422,14513.2
1620.740224,14848.6
1623.958755,14328
1627.173027,14325
1630.38305,13919.2
1633.588838,14225.8
1636.7904,13886.8
1639.987749,14113.2
1643.180896,14077.2
1646.369853,13483.6
1649.554632,14259
1652.735244,13580.8
1655.9117,13243.2
1659.084013,13569.6
1662.252193,14140.6
1665.416254,13215.4
1668.576205,13518.6
1671.732059,13765.8
1674.883828,13816.4
1678.031523,13228.8
1681.175157,13374
1684.314739,13279.4
1687.450284,13188
1690.581801,13242.6
1693.709304,13015
1696.832803,13041.2
1699.952311,13283.2
1703.067839,13283.6
1706.179399,13213.8
1709.287003,13583
1712.390663,13260.2
1715.49039,13265.2
1718.586197,13548.8
1721.678095,13297.2
1724.766096,13441
1727.850213,12794.4
1730.930456,13168.8
1734.006838,12942.4
1737.079372,13155.8
1740.148067,12789.2
1743.212938,13856
1746.273996,13033.6
1749.331252,13116.8
1752.384718,13093.8
1755.434408,13080.8
1758.480332,13009.6
1761.522503,13028
1764.560933,12778.8
1767.595634,12451.6
1770.626618,13261.6
1773.653896,13299
1776.677482,12739.6
1779.697388,12836.6
1782.713625,13339
1785.726205,13277
1788.735141,13263
1791.740445,12829.2
1794.742129,12781.8
1797.740206,13256.8
1800.734687,13202
1803.725585,13058.4
1806.712912,13050.8
1809.69668,12715.6
1812.676902,12771
1815.65359,12444.8
1818.626756,12508.6
1821.596413,12789.8
1824.562573,12397.8
1827.525247,12683
1830.48445,12630.8
1833.440192,12792.8
1836.392487,12630.8
1839.341347,12847.6
1842.286784,12893.6
1845.22881,12261.2
1848.167439,12927.6
1851.102682,12750
1854.034553,12732.2
1856.963063,12484.6
1859.888226,13365.2
1862.810053,12810
1865.728557,12681.4
1868.643751,12467.8
1871.555648,12481
1874.46426,12189.6
1877.369599,12769.8
1880.271679,12573.6
1883.170512,12521
1886.06611,12930.6
1888.958487,12615.6
1891.847655,12610.6
1894.733626,12688.2
1897.616414,12915.4
1900.496032,12323
1903.372491,12631.8
1906.245805,12905.8
1909.115987,12950.2
1911.983049,12918.6
1914.847004,12772.4
1917.707866,13015.2
1920.565646,12846.4
1923.420359,12468.2
1926.272016,12730
1929.120631,12403.8
1931.966216,12651.2
1934.808786,12538.6
1937.648351,12716
1940.484927,12645.6
1943.318525,12883
1946.149158,13107
1948.97684,14186.8
1951.801584,13146.2
1954.623403,12921.6
1957.44231,12927.6
1960.258318,12401.6
1963.071439,12453.2
1965.881688,12686.4
1968.689078,12891.2
1971.493621,12571.6
