Ramanshift[cm-1],Intensity
-93.47115107,14555.4
-87.69374369,13085.2
-81.9253076,12856.8
-76.16582701,12978.2
-70.41528615,13015
-64.67366933,12715.2
-58.94096086,12856.6
-53.21714512,12864.8
-47.50220652,13091.2
-41.79612954,13084.2
-36.09889866,13610.4
-30.41049843,13641.2
-24.73091343,13318
-19.0601283,13255.4
-13.39812769,13096.8
-7.744896327,12830.2
-2.100418946,12620
3.535319659,13284
9.162334658,12616.6
14.78064118,13014.6
20.39025432,12731
25.99118913,12752.8
31.58346061,13174.4
37.16708375,13087.6
42.74207347,12692.2
48.30844468,12689
53.86621222,12576.6
59.41539093,12304.6
64.95599558,12175
70.48804091,12586.8
76.01154164,12735.8
81.52651243,12005.4
87.03296792,12621.4
92.5309227,12927.2
98.02039134,12329.8
103.5013884,12652.6
108.9739282,12471
114.4380255,12380.8
119.8936944,12648
125.3409495,13543.2
130.779805,12373
136.2102753,12004.2
141.6323747,12094
147.0461174,12777.8
152.4515176,12299.4
157.8485895,12342.6
163.2373472,12110.8
168.6178049,12513
173.9899766,12789.6
179.3538764,12310
184.7095182,12372.4
190.0569161,12591
195.396084,12730.8
200.7270358,12139
206.0497854,12199
211.3643466,11921.6
216.6707333,12321.2
221.9689593,11909.4
227.2590382,12142.4
232.5409839,12156.8
237.8148101,12050.4
243.0805303,12234.2
248.3381582,12188.6
253.5877075,11983.4
258.8291917,12221.4
264.0626244,12260.2
269.288019,12347.8
274.5053891,12483.6
279.7147481,12219.2
284.9161094,11917
290.1094865,12269.8
295.2948927,12908.2
300.4723414,14680
305.6418459,15777.4
310.8034194,16863.4
315.9570752,18301.6
321.1028267,18627.4
326.2406869,18619.6
331.370669,18822.4
336.4927863,18925.2
341.6070517,19067.4
346.7134786,19045.4
351.8120798,19586.4
356.9028684,19014
361.9858576,19112
367.0610602,19522.8
372.1284892,19095.4
377.1881577,19589.6
382.2400784,19539.2
387.2842644,20013
392.3207284,20942.8
397.3494833,20776.8
402.370542,20858.4
407.3839172,20047
412.3896217,19418.2
417.3876683,18766.6
422.3780697,18810.6
427.3608386,18650.4
432.3359876,18919.4
437.3035295,18950.2
442.2634769,19067.2
447.2158423,18343.2
452.1606383,18319.8
457.0978776,18579.8
462.0275727,17883.6
466.9497361,18345.2
471.8643802,17739
476.7715176,18262.8
481.6711608,18176
486.5633221,18390.2
491.448014,18200.8
496.3252488,18247.4
501.195039,18172.6
506.0573969,18693.8
510.9123349,18089.6
515.7598651,17823.8
520.6,18239.6
525.4327518,18192.4
530.2581327,18142.2
535.076155,17528
539.8868309,18132.6
544.6901726,18218.6
549.4861922,17927
554.2749019,18769.2
559.0563139,17661.6
563.8304402,17378.2
568.597293,18585.2
573.3568844,18265.6
578.1092263,17730.4
582.8543308,18298.4
587.5922101,18175.2
592.322876,17913.4
597.0463405,17810.2
601.7626157,18183.8
606.4717135,17719.8
611.1736458,17629.6
615.8684246,17705.8
620.5560617,18086.6
625.2365691,17819.6
629.9099585,18248.4
634.5762419,18495.8
639.2354312,17833.8
643.887538,18037.8
648.5325743,17841.2
653.1705518,17786.2
657.8014823,17991.4
662.4253775,17217.2
667.0422493,17615.2
671.6521092,17515.6
676.2549691,17725.4
680.8508407,17669.6
685.4397355,17509.4
690.0216654,17629.8
694.5966419,17345.4
699.1646767,17907.6
703.7257814,17643.8
708.2799676,17841.2
712.827247,17910.2
717.367631,17659
721.9011314,17692.2
726.4277595,16998.8
730.9475271,17512.2
735.4604456,17537
739.9665264,17845.6
744.4657813,17390.6
748.9582215,17372.4
753.4438587,16877.6
757.9227042,16780.6
762.3947696,17345.2
766.8600662,16790.8
771.3186056,18206.2
775.770399,17238
780.215458,17576
784.6537939,16798.2
789.0854181,16792.8
793.510342,16812.2
797.9285769,17432
802.3401342,16783.2
806.7450253,17056.6
811.1432614,16899
815.5348538,16855.6
819.9198139,16445.8
824.2981531,16777.8
828.6698824,16803.8
833.0350133,16704.8
837.393557,16309.8
841.7455248,16781.4
846.0909278,16557.4
850.4297774,16514
854.7620848,16503.6
859.0878611,16729.2
863.4071176,16124
867.7198655,16719
872.026116,16945.6
876.3258802,17269
880.6191693,16858.6
884.9059946,16873.4
889.186367,17327.6
893.4602979,16156.8
897.7277982,16129.2
901.9888793,16491.8
906.2435521,16942.4
910.4918277,16290
914.7337174,16269.4
918.9692321,16205.8
923.1983831,16819.4
927.4211813,16487.8
931.6376378,17238
935.8477637,16646.8
940.0515701,16900.8
944.249068,16822.6
948.4402684,16077.4
952.6251825,16962.8
956.8038212,16470.2
960.9761955,17254.2
965.1423166,16592.2
969.3021953,16640.6
973.4558427,16640.6
977.6032699,16431.4
981.7444877,16586.2
985.8795072,16516.4
990.0083394,16721.4
994.1309953,16255.2
998.2474857,16614.4
1002.357822,15765.4
1006.462014,16475
1010.560075,16127.2
1014.652013,16615.4
1018.737841,16923.6
1022.81757,16291.2
1026.891209,16193.6
1030.958771,16147
1035.020266,16467.2
1039.075705,16288.2
1043.1251,15893.8
1047.16846,16263.6
1051.205797,16117
1055.237121,15759.6
1059.262444,15731.2
1063.281777,15420
1067.295131,15732.2
1071.302515,17104.6
1075.303942,16947.2
1079.299422,18320
1083.288966,17990.4
1087.272585,17607.4
1091.250289,17048.2
1095.222091,16661.2
1099.187999,16119.2
1103.148026,16151.4
1107.102183,15989.2
1111.050479,15984.6
1114.992927,15958.4
1118.929536,15821.2
1122.860318,16195
1126.785283,15612.6
1130.704443,15543.2
1134.617808,16463.2
1138.52539,16396.4
1142.427198,16353.6
1146.323244,16547.2
1150.213538,16029
1154.098093,16452.6
1157.976917,15843.2
1161.850023,15612.2
1165.717421,16058.6
1169.579121,15748
1173.435135,16150.6
1177.285474,15352.6
1181.130148,15685.4
1184.969169,16092.4
1188.802547,16091.2
1192.630292,15680.6
1196.452416,15474.2
1200.26893,15414.4
1204.079844,15010
1207.88517,14614.8
1211.684917,15324.8
1215.479098,14878.4
1219.267722,16483
1223.050801,14944.8
1226.828346,15079
1230.600366,15310.8
1234.366874,15253.8
1238.12788,15059.8
1241.883395,15084.4
1245.633429,15394.8
1249.377994,15404
1253.1171,14622.4
1256.850759,15056.6
1260.578981,14892
1264.301776,14941.4
1268.019157,14888.2
1271.731133,14695
1275.437715,14491
1279.138915,15141.2
1282.834743,15345.6
1286.52521,14842.8
1290.210328,14651.6
1293.890106,14731.8
1297.564555,15322.8
1301.233688,14584.6
1304.897514,14949.2
1308.556044,15144.2
1312.209289,14991.2
1315.857261,14457.8
1319.499969,14595.2
1323.137425,15408.6
1326.769641,14932.4
1330.396626,15585.6
1334.018391,14837.6
1337.634948,14979.8
1341.246307,14713.8
1344.85248,14739.2
1348.453477,14510.8
1352.049309,14520.8
1355.639987,14507.4
1359.225522,15204.4
1362.805925,14675.4
1366.381207,14690
1369.951379,14734.4
1373.516452,15012.6
1377.076436,15021
1380.631343,14885.2
1384.181184,14762.8
1387.725969,14834.6
1391.26571,14661.2
1394.800417,14564.2
1398.330102,14648.4
1401.854776,14924.6
1405.374448,14691.6
1408.889132,14165.2
1412.398837,13805
1415.903574,14296.8
1419.403355,14685.6
1422.89819,14313.6
1426.388091,14286.6
1429.873069,14856
1433.353134,14375.4
1436.828298,14447
1440.298571,14679
1443.763965,14326.2
1447.224491,14074.2
1450.68016,14201
1454.130983,14595.2
1457.576971,14451
1461.018135,14568
1464.454486,14689.6
1467.886036,14130.4
1471.312794,14252.6
1474.734774,13872.4
1478.151985,14625.6
1481.564439,14253
1484.972146,14231
1488.375119,13858.8
1491.773368,14160.8
1495.166904,14740.2
1498.555739,14089.2
1501.939883,14170.4
1505.319349,13701.4
1508.694146,14026
1512.064286,14117.6
1515.429781,13918.4
1518.790642,13830
1522.146879,14227
1525.498505,13643
1528.845529,13550.2
1532.187965,14284.4
1535.525822,13978.6
1538.859112,14022
1542.187846,14554.6
1545.512036,13556.2
1548.831693,14988.4
1552.146829,14452.2
1555.457453,13774.4
1558.763579,13387.6
1562.065216,13798.6
1565.362377,14107.2
1568.655073,14484.4
1571.943315,14239.8
1575.227114,14129.2
1578.506482,14204.6
1581.781431,14796.4
1585.051971,14360.4
1588.318114,14574
1591.579872,14505.2
1594.837255,14436.6
1598.090275,14189.8
1601.338945,14047.2
1604.583274,14245.6
1607.823275,14029.6
1611.058959,13386.2
1614.290338,14083.2
1617.517422,13282.2
1620.740224,13648.6
1623.958755,13222.2
1627.173027,13306.8
1630.38305,12967.8
1633.588838,13453.6
1636.7904,13137.6
1639.987749,13509
1643.180896,13573.4
1646.369853,12956.2
1649.554632,13879.2
1652.735244,13114.8
1655.9117,12770.8
1659.084013,13207
1662.252193,13771.4
1665.416254,12900.6
1668.576205,13208.6
1671.732059,13582.8
1674.883828,13377
1678.031523,12990.8
1681.175157,13152.2
1684.314739,13058.2
1687.450284,12935.8
1690.581801,12955.6
1693.709304,12803
1696.832803,12747
1699.952311,13003
1703.067839,13000.4
1706.179399,12950.4
1709.287003,13361
1712.390663,12908.4
1715.49039,12970
1718.586197,13366
1721.678095,13210.6
1724.766096,13105.4
1727.850213,12586.2
1730.930456,13067.2
1734.006838,12692.4
1737.079372,13065.4
1740.148067,12716.4
1743.212938,13731.4
1746.273996,12916.4
1749.331252,12820.6
1752.384718,12934.4
1755.434408,12974
1758.480332,12977.2
1761.522503,13009
1764.560933,12680
1767.595634,12348.4
1770.626618,13063.4
1773.653896,13136.4
1776.677482,12759.2
1779.697388,12752.2
1782.713625,13298
1785.726205,13198.4
1788.735141,13129.6
1791.740445,12664.6
1794.742129,12691.4
1797.740206,12989
1800.734687,13098.2
1803.725585,12848.4
1806.712912,12928.4
1809.69668,12614.8
1812.676902,12570.2
1815.65359,12371.6
1818.626756,12482.4
1821.596413,12659
1824.562573,12333.4
1827.525247,12628.6
1830.48445,12495.4
1833.440192,12658.6
1836.392487,12503.2
1839.341347,12714.8
1842.286784,12686.2
1845.22881,12292
1848.167439,12831
1851.102682,12556.8
1854.034553,12574
1856.963063,12303.4
1859.888226,13287.8
1862.810053,12745.2
1865.728557,12552.8
1868.643751,12393.6
1871.555648,12331
1874.46426,12152.8
1877.369599,12740.8
1880.271679,12521.2
1883.170512,12395.4
1886.06611,12898.8
1888.958487,12467.8
1891.847655,12526.6
1894.733626,12732.6
1897.616414,12800.8
1900.496032,12341.4
1903.372491,12535.8
1906.245805,12858.2
1909.115987,12957.2
1911.983049,12773
1914.847004,12784.8
1917.707866,12750.6
1920.565646,12866.8
1923.420359,12377.6
1926.272016,12641.2
1929.120631,12390.2
1931.966216,12522.6
1934.808786,12502
1937.648351,12749.2
1940.484927,12639.2
1943.318525,12760.6
1946.149158,12987
1948.97684,14122.8
1951.801584,13045.8
1954.623403,12656.6
1957.44231,12898.2
1960.258318,12433.8
1963.071439,12380.6
1965.881688,12542.4
1968.689078,12746.2
1971.493621,12437.6
