Ramanshift[cm-1],Intensity
-93.47115107,14455.6
-87.69374369,13008.4
-81.9253076,12895.4
-76.16582701,13087.2
-70.41528615,13011
-64.67366933,12721.8
-58.94096086,12719.2
-53.21714512,12956
-47.50220652,13102.2
-41.79612954,13111.2
-36.09889866,13660.8
-30.41049843,13619
-24.73091343,13232.2
-19.0601283,13352
-13.39812769,13067.6
-7.744896327,12940.8
-2.100418946,12717.4
3.535319659,13313.4
9.162334658,12633
14.78064118,13039.8
20.39025432,12687.6
25.99118913,12698
31.58346061,13189
37.16708375,13085.6
42.74207347,12669.6
48.30844468,12669.6
53.86621222,12536.8
59.41539093,12326.2
64.95599558,12236.4
70.48804091,12660.8
76.01154164,12751.4
81.52651243,12055.8
87.03296792,12660.4
92.5309227,12947.8
98.02039134,12200
103.5013884,12611
108.9739282,12454.4
114.4380255,12333
119.8936944,12640.4
125.3409495,13578
130.779805,12364
136.2102753,12094
141.6323747,12087.2
147.0461174,12865.4
152.4515176,12292.2
157.8485895,12285
163.2373472,12272.2
168.6178049,12527.4
173.9899766,12783.8
179.3538764,12385.6
184.7095182,12406.6
190.0569161,12681.2
195.396084,12811.4
200.7270358,12151.4
206.0497854,12271
211.3643466,11946.8
216.6707333,12388.4
221.9689593,12000.6
227.2590382,12158.2
232.5409839,12121.4
237.8148101,12175.4
243.0805303,12221.4
248.3381582,12206.4
253.5877075,11943.2
258.8291917,12178.2
264.0626244,12187.2
269.288019,12454
274.5053891,12550
279.7147481,12227.2
284.9161094,11960.6
290.1094865,12178.2
295.2948927,12655.6
300.4723414,13799.4
305.6418459,14403.6
310.8034194,15012.6
315.9570752,16258
321.1028267,16336.6
326.2406869,16430.2
331.370669,16612.2
336.4927863,16620.4
341.6070517,16712.2
346.7134786,16516.2
351.8120798,16797.2
356.9028684,16465.4
361.9858576,16595.4
367.0610602,17055
372.1284892,16598.6
377.1881577,17153.8
382.2400784,17141.2
387.2842644,17662.4
392.3207284,18353.4
397.3494833,17781
402.370542,17781.4
407.3839172,17071
412.3896217,16555
417.3876683,16113
422.3780697,16174
427.3608386,16280.2
432.3359876,16593
437.3035295,16748.4
442.2634769,16836.2
447.2158423,16065.2
452.1606383,15932.2
457.0978776,16223.6
462.0275727,15540.2
466.9497361,16059.8
471.8643802,15493.4
476.7715176,15994.4
481.6711608,15906
486.5633221,16110.8
491.448014,15928.4
496.3252488,15916.4
501.195039,15968.2
506.0573969,16318.8
510.9123349,16103
515.7598651,15466.6
520.6,15904.8
525.4327518,15961.4
530.2581327,16034.6
535.076155,15489.8
539.8868309,15941
544.6901726,15983.6
549.4861922,15754.6
554.2749019,16551.4
559.0563139,15621.4
563.8304402,15501.4
568.597293,16471.4
573.3568844,16129.8
578.1092263,15577.2
582.8543308,16177
587.5922101,15912.2
592.322876,15659.8
597.0463405,15712
601.7626157,15975.2
606.4717135,15467.2
611.1736458,15481.6
615.8684246,15626.6
620.5560617,15986
625.2365691,15672.4
629.9099585,16039.4
634.5762419,16340
639.2354312,15628.2
643.887538,16019.6
648.5325743,15679.2
653.1705518,15637.4
657.8014823,15876.2
662.4253775,15137.4
667.0422493,15476.2
671.6521092,15440.8
676.2549691,15567.6
680.8508407,15557.4
685.4397355,15569.4
690.0216654,15586.4
694.5966419,15460.2
699.1646767,15901.6
703.7257814,15450.8
708.2799676,15653.8
712.827247,15867.8
717.367631,15576.6
721.9011314,15509
726.4277595,14905.6
730.9475271,15596.4
735.4604456,15495.4
739.9665264,16118.6
744.4657813,15482.2
748.9582215,15501.2
753.4438587,14948.4
757.9227042,14869.8
762.3947696,15377.2
766.8600662,14953.4
771.3186056,16491.8
775.770399,15404.8
780.215458,15711
784.6537939,15096.8
789.0854181,14865.8
793.510342,14939
797.9285769,15671.6
802.3401342,15105.6
806.7450253,15256.8
811.1432614,15092.2
815.5348538,15028.4
819.9198139,14619.4
824.2981531,15018.4
828.6698824,15123.8
833.0350133,14932.8
837.393557,14629.6
841.7455248,15028.4
846.0909278,14822.6
850.4297774,14739.6
854.7620848,14808.8
859.0878611,15066.4
863.4071176,14589.8
867.7198655,14981.2
872.026116,15244
876.3258802,15601.8
880.6191693,15266
884.9059946,15192
889.186367,15676.2
893.4602979,14530.4
897.7277982,14515
901.9888793,14881.2
906.2435521,15181.4
910.4918277,14656
914.7337174,14621
918.9692321,14591
923.1983831,15080.2
927.4211813,14691.6
931.6376378,15431.4
935.8477637,14916.2
940.0515701,15081
944.249068,15149.2
948.4402684,14354
952.6251825,15251.6
956.8038212,14765
960.9761955,15480.4
965.1423166,14833.2
969.3021953,14909.2
973.4558427,14965.8
977.6032699,14681
981.7444877,14839.2
985.8795072,14695.4
990.0083394,14872.6
994.1309953,14622.4
998.2474857,14884
1002.357822,14057
1006.462014,14707.8
1010.560075,14496.8
1014.652013,14739.4
1018.737841,15102.8
1022.81757,14555
1026.891209,14504.4
1030.958771,14444.8
1035.020266,14834.2
1039.075705,14508.8
1043.1251,14146.8
1047.16846,14605
1051.205797,14507
1055.237121,14070.2
1059.262444,14200.4
1063.281777,13821.6
1067.295131,14140.4
1071.302515,15259
1075.303942,15072.2
1079.299422,16115.6
1083.288966,15563
1087.272585,15157.6
1091.250289,14784
1095.222091,14750
1099.187999,14269.6
1103.148026,14378.6
1107.102183,14358.8
1111.050479,14442
1114.992927,14426
1118.929536,14142.2
1122.860318,14502.8
1126.785283,13993.4
1130.704443,13866.6
1134.617808,14724.6
1138.52539,14551.4
1142.427198,14395.2
1146.323244,14598
1150.213538,14284.8
1154.098093,14640
1157.976917,14096.4
1161.850023,13953
1165.717421,14386
1169.579121,14289.2
1173.435135,14671
1177.285474,13681.6
1181.130148,14010
1184.969169,14478.4
1188.802547,14386.6
1192.630292,13910.6
1196.452416,13628.8
1200.26893,13724.2
1204.079844,13511.8
1207.88517,13112.2
1211.684917,13765.2
1215.479098,13449
1219.267722,14920.2
1223.050801,13436.8
1226.828346,13504.2
1230.600366,13729.6
1234.366874,13730
1238.12788,13508.6
1241.883395,13656.2
1245.633429,14007.2
1249.377994,13916.6
1253.1171,13071.6
1256.850759,13563.4
1260.578981,13516.8
1264.301776,13655.8
1268.019157,13440.8
1271.731133,13226.2
1275.437715,13055
1279.138915,13813
1282.834743,14062
1286.52521,13452.8
1290.210328,13227.2
1293.890106,13386.2
1297.564555,13898.4
1301.233688,13173.4
1304.897514,13621.6
1308.556044,13645.8
1312.209289,13671
1315.857261,13106.2
1319.499969,13337.2
1323.137425,14086.2
1326.769641,13437
1330.396626,14190.2
1334.018391,13577.8
1337.634948,13665.2
1341.246307,13375.4
1344.85248,13239.2
1348.453477,13067.6
1352.049309,13218.4
1355.639987,13163.4
1359.225522,13895.2
1362.805925,13360
1366.381207,13473
1369.951379,13501.4
1373.516452,13565.6
1377.076436,13648.8
1380.631343,13494
1384.181184,13286.8
1387.725969,13392.8
1391.26571,13111.2
1394.800417,13079.8
1398.330102,13308.8
1401.854776,13442.4
1405.374448,13301.2
1408.889132,12956.6
1412.398837,12540.8
1415.903574,12986.2
1419.403355,13535
1422.89819,13096.2
1426.388091,12952.8
1429.873069,13658.4
1433.353134,12929.6
1436.828298,12954
1440.298571,13193.6
1443.763965,12915.6
1447.224491,12847.6
1450.68016,12843.6
1454.130983,13361.6
1457.576971,13206
1461.018135,13552
1464.454486,13515.2
1467.886036,13062.2
1471.312794,13142
1474.734774,12758
1478.151985,13552.2
1481.564439,13233.6
1484.972146,13206.2
1488.375119,12766
1491.773368,13141.8
1495.166904,13832.4
1498.555739,13006.4
1501.939883,13131.8
1505.319349,12714
1508.694146,13013.4
1512.064286,13073.2
1515.429781,12920.8
1518.790642,12808.6
1522.146879,13190.4
1525.498505,12622.4
1528.845529,12558.8
1532.187965,13332
1535.525822,12902.6
1538.859112,12902.6
1542.187846,13571
1545.512036,12589
1548.831693,13930.2
1552.146829,13396.8
1555.457453,12751.2
1558.763579,12228.4
1562.065216,12652.4
1565.362377,13012
1568.655073,13362.4
1571.943315,13064.6
1575.227114,13138.4
1578.506482,13014.8
1581.781431,13708.2
1585.051971,13237.2
1588.318114,13303.6
1591.579872,13328.4
1594.837255,13151.4
1598.090275,12940.2
1601.338945,12963.6
1604.583274,13295.4
1607.823275,12845.2
1611.058959,12318.6
1614.290338,13198.8
1617.517422,12320
1620.740224,12787.8
1623.958755,12436
1627.173027,12503.8
1630.38305,12169.2
1633.588838,12614.8
1636.7904,12375.8
1639.987749,12662.6
1643.180896,12833.2
1646.369853,12099.2
1649.554632,13075.6
1652.735244,12438.6
1655.9117,11974.8
1659.084013,12342.8
1662.252193,13000.6
1665.416254,12048
1668.576205,12459
1671.732059,12731.8
1674.883828,12763.2
1678.031523,12279.8
1681.175157,12363.2
1684.314739,12470
1687.450284,12341.6
1690.581801,12267.6
1693.709304,12058.4
1696.832803,12115.4
1699.952311,12259.2
1703.067839,12317.4
1706.179399,12352.4
1709.287003,12827.8
1712.390663,12285.4
1715.49039,12358.8
1718.586197,12759.6
1721.678095,12522.6
1724.766096,12572.8
1727.850213,11894
1730.930456,12264.8
1734.006838,12158.4
1737.079372,12439
1740.148067,12134.4
1743.212938,13057.2
1746.273996,12315.4
1749.331252,12223.6
1752.384718,12237
1755.434408,12414.8
1758.480332,12378.4
1761.522503,12393.8
1764.560933,12089
1767.595634,11826.4
1770.626618,12543
1773.653896,12586.2
1776.677482,12171.2
1779.697388,12174.8
1782.713625,12801
1785.726205,12581.8
1788.735141,12652
1791.740445,12256.2
1794.742129,12162.8
1797.740206,12613
1800.734687,12621.2
1803.725585,12537.2
1806.712912,12366.2
1809.69668,12079.4
1812.676902,12091.8
1815.65359,11851.6
1818.626756,11896
1821.596413,12162.4
1824.562573,11795.4
1827.525247,12137.4
1830.48445,11911.2
1833.440192,12143.2
1836.392487,11985.4
1839.341347,12301
1842.286784,12274.8
1845.22881,11763.2
1848.167439,12401.2
1851.102682,12143
1854.034553,12139.6
1856.963063,11896.6
1859.888226,12765
1862.810053,12335.6
1865.728557,12133.6
1868.643751,11840.4
1871.555648,11749.2
1874.46426,11618
1877.369599,12303
1880.271679,12015.2
1883.170512,11967.4
1886.06611,12384.4
1888.958487,12032.8
1891.847655,11985.8
1894.733626,12192.6
1897.616414,12167.8
1900.496032,11831.6
1903.372491,12186
1906.245805,12436.8
1909.115987,12445
1911.983049,12340.2
1914.847004,12192
1917.707866,12410.2
1920.565646,12310.8
1923.420359,11902.2
1926.272016,12189.2
1929.120631,11911.8
1931.966216,12131.4
1934.808786,12028.6
1937.648351,12218.8
1940.484927,12155.6
1943.318525,12366.6
1946.149158,12603.8
1948.97684,13691.6
1951.801584,12520.4
1954.623403,12327.2
1957.44231,12414.6
1960.258318,11906.6
1963.071439,11943.2
1965.881688,12207
1968.689078,12292.6
1971.493621,12053.8
