Ramanshift[cm-1],Intensity
-93.47115107,14479.8
-87.69374369,13187
-81.9253076,12943.6
-76.16582701,13117.4
-70.41528615,13126.4
-64.67366933,12841.6
-58.94096086,12855.8
-53.21714512,13156.8
-47.50220652,13155.2
-41.79612954,13235.8
-36.09889866,13640.8
-30.41049843,13716
-24.73091343,13389
-19.0601283,13388.6
-13.39812769,13256.2
-7.744896327,12973.2
-2.100418946,12828.8
3.535319659,13502.4
9.162334658,12782
14.78064118,13181.6
20.39025432,12782.8
25.99118913,12987.2
31.58346061,13329.8
37.16708375,13159.4
42.74207347,12809.4
48.30844468,12810.6
53.86621222,12698.8
59.41539093,12317.4
64.95599558,12276.6
70.48804091,12749.8
76.01154164,12889
81.52651243,12225.6
87.03296792,12804
92.5309227,13128
98.02039134,12405
103.5013884,12642.8
108.9739282,12463.4
114.4380255,12583.8
119.8936944,12704.8
125.3409495,13705.2
130.779805,12491.2
136.2102753,12233.8
141.6323747,12256
147.0461174,12847.6
152.4515176,12422.2
157.8485895,12358.4
163.2373472,12212.8
168.6178049,12685.2
173.9899766,12834
179.3538764,12396.4
184.7095182,12523.4
190.0569161,12747.8
195.396084,12901.6
200.7270358,12253.6
206.0497854,12321.4
211.3643466,12045.4
216.6707333,12451.8
221.9689593,12071
227.2590382,12280.4
232.5409839,12302
237.8148101,12171
243.0805303,12270.8
248.3381582,12197.8
253.5877075,12122.8
258.8291917,12283.4
264.0626244,12337.8
269.288019,12605.2
274.5053891,12642
279.7147481,12349.6
284.9161094,12017.8
290.1094865,12246
295.2948927,12889.6
300.4723414,14374.8
305.6418459,15527.2
310.8034194,16486
315.9570752,17867.4
321.1028267,18023
326.2406869,18019.4
331.370669,18173
336.4927863,18380
341.6070517,18491
346.7134786,18342.2
351.8120798,18638.4
356.9028684,18292.8
361.9858576,18489.2
367.0610602,18815.8
372.1284892,18404.8
377.1881577,18991.6
382.2400784,19236
387.2842644,19840.2
392.3207284,20145.8
397.3494833,19651.2
402.370542,19563.8
407.3839172,18847.6
412.3896217,18343.6
417.3876683,17891.4
422.3780697,17908.4
427.3608386,17912.4
432.3359876,18237.2
437.3035295,18301.2
442.2634769,18504
447.2158423,17646.6
452.1606383,17721.2
457.0978776,17845.6
462.0275727,17248.8
466.9497361,17706.2
471.8643802,17159.2
476.7715176,17630.6
481.6711608,17546.4
486.5633221,17865.2
491.448014,17643.2
496.3252488,17523.6
501.195039,17711.2
506.0573969,18034.6
510.9123349,17642
515.7598651,17117.8
520.6,17549.2
525.4327518,17660.2
530.2581327,17507.4
535.076155,16998.4
539.8868309,17380.4
544.6901726,17512.2
549.4861922,17223.8
554.2749019,18194.8
559.0563139,17100.4
563.8304402,17000.2
568.597293,18013.8
573.3568844,17657.8
578.1092263,17075.2
582.8543308,17675.4
587.5922101,17485.4
592.322876,17297.4
597.0463405,17232.6
601.7626157,17583
606.4717135,17108
611.1736458,17026.4
615.8684246,17132.2
620.5560617,17490.6
625.2365691,17143.6
629.9099585,17628
634.5762419,17835
639.2354312,17273.2
643.887538,17323.4
648.5325743,17015.2
653.1705518,16986.4
657.8014823,17259.8
662.4253775,16563.4
667.0422493,17032.4
671.6521092,16812.2
676.2549691,17109
680.8508407,17157.2
685.4397355,16907.6
690.0216654,17085
694.5966419,16821.2
699.1646767,17321
703.7257814,17046.8
708.2799676,17091.6
712.827247,17183
717.367631,16936
721.9011314,16899.6
726.4277595,16319.8
730.9475271,17032.6
735.4604456,16786.4
739.9665264,17339.4
744.4657813,16881.2
748.9582215,16812.6
753.4438587,16419.6
757.9227042,16231.8
762.3947696,16664
766.8600662,16185.4
771.3186056,17711.6
775.770399,16595.8
780.215458,16999
784.6537939,16202.6
789.0854181,16181.4
793.510342,16204.2
797.9285769,16903.2
802.3401342,16324.2
806.7450253,16564.2
811.1432614,16277.8
815.5348538,16182.4
819.9198139,15794.6
824.2981531,16179.2
828.6698824,16198.2
833.0350133,16134.4
837.393557,15902.4
841.7455248,16184.6
846.0909278,15959.4
850.4297774,15936.4
854.7620848,15940.4
859.0878611,16155.2
863.4071176,15631.2
867.7198655,16204
872.026116,16439
876.3258802,16921.8
880.6191693,16295.2
884.9059946,16431.2
889.186367,16723
893.4602979,15711.2
897.7277982,15599.8
901.9888793,16052.8
906.2435521,16501.6
910.4918277,15823
914.7337174,15662
918.9692321,15704.8
923.1983831,16310.2
927.4211813,15968.2
931.6376378,16696.2
935.8477637,16023
940.0515701,16357
944.249068,16361.6
948.4402684,15468.6
952.6251825,16365.4
956.8038212,15972.4
960.9761955,16671
965.1423166,16079.4
969.3021953,16138.8
973.4558427,16186.6
977.6032699,15896.8
981.7444877,16144.8
985.8795072,16015.4
990.0083394,16052.4
994.1309953,15748.6
998.2474857,16172.4
1002.357822,15221.4
1006.462014,15833.6
1010.560075,15656.2
1014.652013,15970.2
1018.737841,16276.4
1022.81757,15784.6
1026.891209,15766.2
1030.958771,15583.4
1035.020266,15910.2
1039.075705,15599.4
1043.1251,15338.2
1047.16846,15747.2
1051.205797,15655.2
1055.237121,15275
1059.262444,15236
1063.281777,15080.2
1067.295131,15165.8
1071.302515,16635
1075.303942,16296.4
1079.299422,17316.8
1083.288966,16574.6
1087.272585,16129.6
1091.250289,15844
1095.222091,15796.6
1099.187999,15382.2
1103.148026,15507.8
1107.102183,15380.2
1111.050479,15474.2
1114.992927,15395.4
1118.929536,15303.4
1122.860318,15688
1126.785283,15095.4
1130.704443,15001.4
1134.617808,15735.4
1138.52539,15616
1142.427198,15500
1146.323244,15657
1150.213538,15174.4
1154.098093,15731.4
1157.976917,15103
1161.850023,15020.2
1165.717421,15551.2
1169.579121,15216.8
1173.435135,15730.2
1177.285474,14874
1181.130148,15109.2
1184.969169,15480.2
1188.802547,15292.2
1192.630292,14949.6
1196.452416,14683.2
1200.26893,14652.8
1204.079844,14487.4
1207.88517,14185.2
1211.684917,14809.6
1215.479098,14425.6
1219.267722,15996.4
1223.050801,14302.8
1226.828346,14487
1230.600366,14816
1234.366874,14752.4
1238.12788,14558.4
1241.883395,14624.6
1245.633429,14915
1249.377994,14892.4
1253.1171,14190.6
1256.850759,14561.8
1260.578981,14499
1264.301776,14571.8
1268.019157,14560.6
1271.731133,14180.8
1275.437715,14050.6
1279.138915,14707.4
1282.834743,14866.6
1286.52521,14293.4
1290.210328,14147.4
1293.890106,14480.4
1297.564555,14895.4
1301.233688,14242
1304.897514,14565.2
1308.556044,14617.8
1312.209289,14578.4
1315.857261,14048
1319.499969,14205.6
1323.137425,15099.8
1326.769641,14423.2
1330.396626,15155.4
1334.018391,14465
1337.634948,14574.4
1341.246307,14235.8
1344.85248,14189.2
1348.453477,14130
1352.049309,14040.4
1355.639987,14089.4
1359.225522,14798
1362.805925,14305.8
1366.381207,14316.2
1369.951379,14365.6
1373.516452,14456.2
1377.076436,14522.6
1380.631343,14464.8
1384.181184,14158
1387.725969,14323.6
1391.26571,13959.6
1394.800417,13891.6
1398.330102,14170
1401.854776,14351.8
1405.374448,14207.6
1408.889132,13689.2
1412.398837,13358.6
1415.903574,13867.8
1419.403355,14291.8
1422.89819,13807
1426.388091,13893.6
1429.873069,14333.2
1433.353134,13771.4
1436.828298,13850.2
1440.298571,14041.6
1443.763965,13701.8
1447.224491,13676.4
1450.68016,13593.2
1454.130983,14224.2
1457.576971,14094
1461.018135,14173.4
1464.454486,14359.2
1467.886036,13921.4
1471.312794,13855.8
1474.734774,13582.2
1478.151985,14341.4
1481.564439,14078
1484.972146,14000.6
1488.375119,13584
1491.773368,13923.4
1495.166904,14491.4
1498.555739,13715.4
1501.939883,13924.4
1505.319349,13432
1508.694146,13706.2
1512.064286,13805.8
1515.429781,13804.2
1518.790642,13600.2
1522.146879,13948
1525.498505,13302.2
1528.845529,13301
1532.187965,14013.4
1535.525822,13657.6
1538.859112,13685.8
1542.187846,14258.2
1545.512036,13297.2
1548.831693,14666.2
1552.146829,14027.4
1555.457453,13409.4
1558.763579,13047.4
1562.065216,13492.2
1565.362377,13837.8
1568.655073,14130.6
1571.943315,13949.8
1575.227114,13804.8
1578.506482,13838.4
1581.781431,14509.6
1585.051971,14081.6
1588.318114,14152.8
1591.579872,14050.4
1594.837255,13796.4
1598.090275,13587.8
1601.338945,13549.6
1604.583274,13810
1607.823275,13531.8
1611.058959,13047
1614.290338,13803.8
1617.517422,12895.8
1620.740224,13415.4
1623.958755,13034.2
1627.173027,13038.8
1630.38305,12661
1633.588838,13183
1636.7904,13049
1639.987749,13182.8
1643.180896,13388
1646.369853,12727
1649.554632,13634
1652.735244,12989.4
1655.9117,12514
1659.084013,12931.2
1662.252193,13579.6
1665.416254,12588.6
1668.576205,13033.4
1671.732059,13352.8
1674.883828,13290.8
1678.031523,12753
1681.175157,12937.6
1684.314739,12965.4
1687.450284,12912.4
1690.581801,12833
1693.709304,12659.6
1696.832803,12664.2
1699.952311,12864.6
1703.067839,12842
1706.179399,12815
1709.287003,13276.4
1712.390663,12791
1715.49039,12787.6
1718.586197,13216.4
1721.678095,13102.8
1724.766096,13047.6
1727.850213,12519.8
1730.930456,12814.4
1734.006838,12627
1737.079372,12903.8
1740.148067,12559.4
1743.212938,13613.2
1746.273996,12839.4
1749.331252,12759.6
1752.384718,12747.8
1755.434408,12814.8
1758.480332,12773.8
1761.522503,12881.4
1764.560933,12504.6
1767.595634,12252.6
1770.626618,12994.8
1773.653896,13105.6
1776.677482,12704.4
1779.697388,12602.2
1782.713625,13167.6
1785.726205,13162.2
1788.735141,13175.8
1791.740445,12654.2
1794.742129,12583
1797.740206,13056.8
1800.734687,13126.4
1803.725585,12888
1806.712912,12784.2
1809.69668,12468.2
1812.676902,12517.8
1815.65359,12237.8
1818.626756,12346
1821.596413,12605.4
1824.562573,12204.8
1827.525247,12593
1830.48445,12414
1833.440192,12537.4
1836.392487,12442
1839.341347,12701
1842.286784,12761
1845.22881,12101.2
1848.167439,12701.4
1851.102682,12467.8
1854.034553,12603.6
1856.963063,12373
1859.888226,13201
1862.810053,12718.8
1865.728557,12452.2
1868.643751,12312.2
1871.555648,12277.2
1874.46426,11958.6
1877.369599,12645
1880.271679,12468.8
1883.170512,12347.4
1886.06611,12805
1888.958487,12556
1891.847655,12475.6
1894.733626,12573.2
1897.616414,12645.4
1900.496032,12148
1903.372491,12507.4
1906.245805,12880.8
1909.115987,12725.2
1911.983049,12839.4
1914.847004,12683.2
1917.707866,12811
1920.565646,12774
1923.420359,12295
1926.272016,12557.8
1929.120631,12324
1931.966216,12419.6
1934.808786,12416
1937.648351,12719.2
1940.484927,12588.2
1943.318525,12725.2
1946.149158,12946.8
1948.97684,14112.2
1951.801584,12958.6
1954.623403,12625.6
1957.44231,12764.6
1960.258318,12281.4
1963.071439,12339.4
1965.881688,12486.4
1968.689078,12616.2
1971.493621,12462.8
