Ramanshift[cm-1],Intensity
-93.47115107,14318.2
-87.69374369,12912.8
-81.9253076,12772.4
-76.16582701,12903.8
-70.41528615,13047.8
-64.67366933,12699.2
-58.94096086,12691.2
-53.21714512,12968
-47.50220652,13031.6
-41.79612954,13123.4
-36.09889866,13554
-30.41049843,13581.4
-24.73091343,13183.6
-19.0601283,13223.8
-13.39812769,12992
-7.744896327,12862.4
-2.100418946,12575.4
3.535319659,13261.8
9.162334658,12684.4
14.78064118,12939.6
20.39025432,12551.4
25.99118913,12647.4
31.58346061,13206
37.16708375,12968.6
42.74207347,12562.4
48.30844468,12642.8
53.86621222,12476.2
59.41539093,12261.8
64.95599558,12157.2
70.48804091,12498
76.01154164,12651.6
81.52651243,12079
87.03296792,12630.4
92.5309227,12982.2
98.02039134,12168.4
103.5013884,12434
108.9739282,12289.6
114.4380255,12270.2
119.8936944,12576
125.3409495,13482.4
130.779805,12220.2
136.2102753,12018
141.6323747,12067
147.0461174,12716.4
152.4515176,12329.8
157.8485895,12187.8
163.2373472,12098
168.6178049,12379
173.9899766,12814
179.3538764,12286.2
184.7095182,12371.8
190.0569161,12456.4
195.396084,12683
200.7270358,12103.2
206.0497854,12304.8
211.3643466,11894.8
216.6707333,12279.8
221.9689593,11928.8
227.2590382,12061.8
232.5409839,12022.4
237.8148101,11950.8
243.0805303,12132.6
248.3381582,12020.4
253.5877075,11955.4
258.8291917,12028.2
264.0626244,12151
269.288019,12376.4
274.5053891,12507.8
279.7147481,12038.8
284.9161094,11961.6
290.1094865,12343.8
295.2948927,13336.8
300.4723414,15731.4
305.6418459,18100
310.8034194,20424
315.9570752,22463
321.1028267,23117
326.2406869,23503.4
331.370669,23741
336.4927863,24045
341.6070517,24092
346.7134786,24152.2
351.8120798,24627.4
356.9028684,24407.6
361.9858576,24587.2
367.0610602,25200.4
372.1284892,25638
377.1881577,27591.4
382.2400784,30577.6
387.2842644,34425
392.3207284,36336
397.3494833,34200.8
402.370542,31654.8
407.3839172,29412.6
412.3896217,27300.8
417.3876683,25711.2
422.3780697,24990.8
427.3608386,24287
432.3359876,24387
437.3035295,24481.6
442.2634769,24434.4
447.2158423,23193.8
452.1606383,23106.4
457.0978776,23071.4
462.0275727,22502.8
466.9497361,23130.4
471.8643802,22013
476.7715176,22389.2
481.6711608,22518
486.5633221,22962.6
491.448014,22725
496.3252488,22443.8
501.195039,22309.8
506.0573969,22349.2
510.9123349,22048.6
515.7598651,21303.8
520.6,21628.8
525.4327518,21286.2
530.2581327,21430.2
535.076155,20701.2
539.8868309,21325.6
544.6901726,21288
549.4861922,20706.4
554.2749019,21335
559.0563139,20311.4
563.8304402,20036
568.597293,21172.4
573.3568844,20796.8
578.1092263,20278.4
582.8543308,20649.8
587.5922101,20526.2
592.322876,20107.6
597.0463405,20416.8
601.7626157,20804.6
606.4717135,20362.4
611.1736458,20394.2
615.8684246,20320.6
620.5560617,20581.4
625.2365691,20493.4
629.9099585,21199.6
634.5762419,21927.8
639.2354312,21442.2
643.887538,21508.2
648.5325743,20848.8
653.1705518,20389.8
657.8014823,20320.6
662.4253775,19515.2
667.0422493,20008.2
671.6521092,19878
676.2549691,20141.6
680.8508407,20072.2
685.4397355,19969
690.0216654,20045.2
694.5966419,19958.8
699.1646767,20794.8
703.7257814,20785.8
708.2799676,20909
712.827247,21158.4
717.367631,20826.4
721.9011314,20385.8
726.4277595,19490
730.9475271,19649.2
735.4604456,19543
739.9665264,20119.6
744.4657813,19717.4
748.9582215,19568.4
753.4438587,19054.6
757.9227042,18845.2
762.3947696,19360.4
766.8600662,18732
771.3186056,20246.2
775.770399,19059.2
780.215458,19407.4
784.6537939,18778.8
789.0854181,18737.8
793.510342,18955.8
797.9285769,19799.6
802.3401342,19521.6
806.7450253,19869.8
811.1432614,19837.8
815.5348538,19594.6
819.9198139,19147
824.2981531,19286.8
828.6698824,19173.8
833.0350133,18768.8
837.393557,18331
841.7455248,18517.8
846.0909278,18145.8
850.4297774,18211.2
854.7620848,18293.4
859.0878611,18497.2
863.4071176,17776.8
867.7198655,18391
872.026116,18561.8
876.3258802,19084.4
880.6191693,18509.2
884.9059946,18517.6
889.186367,19057.6
893.4602979,17891.6
897.7277982,17970
901.9888793,18388
906.2435521,18909.8
910.4918277,18519.2
914.7337174,18776
918.9692321,18866.6
923.1983831,19530.6
927.4211813,19198.4
931.6376378,19911.2
935.8477637,19389.2
940.0515701,19743.6
944.249068,19929.4
948.4402684,19049.4
952.6251825,20042.6
956.8038212,19452.4
960.9761955,20155
965.1423166,19576.2
969.3021953,19638.4
973.4558427,19757
977.6032699,19574.4
981.7444877,19503.2
985.8795072,19444
990.0083394,19665
994.1309953,19450.8
998.2474857,20509.2
1002.357822,20656.2
1006.462014,22294.2
1010.560075,21465.4
1014.652013,20273.2
1018.737841,19776
1022.81757,18856.4
1026.891209,18768
1030.958771,18742.6
1035.020266,19322.6
1039.075705,19114
1043.1251,19151.2
1047.16846,19917.6
1051.205797,20241
1055.237121,20749.8
1059.262444,22419
1063.281777,25330.2
1067.295131,30532.4
1071.302515,37897.8
1075.303942,41769.6
1079.299422,43237.6
1083.288966,37930.4
1087.272585,30091.4
1091.250289,24436
1095.222091,21759.2
1099.187999,20106.4
1103.148026,19856.4
1107.102183,19493.6
1111.050479,19728.2
1114.992927,19878.8
1118.929536,20239.6
1122.860318,21681.8
1126.785283,23088.4
1130.704443,25987.4
1134.617808,31011.8
1138.52539,34192.4
1142.427198,34501.4
1146.323244,31676
1150.213538,27583.2
1154.098093,25631.4
1157.976917,24073.6
1161.850023,24271
1165.717421,25749.4
1169.579121,25791.6
1173.435135,25819.4
1177.285474,24520.2
1181.130148,24684
1184.969169,24790.2
1188.802547,23614.2
1192.630292,21987.8
1196.452416,20720
1200.26893,19974.4
1204.079844,19286.6
1207.88517,18696
1211.684917,19291.6
1215.479098,18787.6
1219.267722,20364.6
1223.050801,18634.6
1226.828346,18650.6
1230.600366,18806.4
1234.366874,18626.2
1238.12788,18408.4
1241.883395,18462.6
1245.633429,18718.8
1249.377994,18539.8
1253.1171,17751.4
1256.850759,18047.2
1260.578981,17998.8
1264.301776,17976
1268.019157,17776.4
1271.731133,17500.2
1275.437715,17419.2
1279.138915,18057.4
1282.834743,18307.2
1286.52521,17821.8
1290.210328,17887.4
1293.890106,18362.2
1297.564555,19202.6
1301.233688,18739.2
1304.897514,18882.8
1308.556044,18933.2
1312.209289,18674.4
1315.857261,17998.8
1319.499969,18095.4
1323.137425,18825.8
1326.769641,18314.4
1330.396626,18870
1334.018391,18347.2
1337.634948,18436.2
1341.246307,18227.2
1344.85248,18212.8
1348.453477,18296.8
1352.049309,18226
1355.639987,18481.6
1359.225522,19161.2
1362.805925,18789.8
1366.381207,18708.4
1369.951379,19013.6
1373.516452,19403.8
1377.076436,20177
1380.631343,21061.6
1384.181184,22397.6
1387.725969,24305.2
1391.26571,24472.4
1394.800417,23170.8
1398.330102,21190.6
1401.854776,19722.6
1405.374448,18586.4
1408.889132,17766.8
1412.398837,17525.2
1415.903574,18305
1419.403355,19999.6
1422.89819,21556.2
1426.388091,23766
1429.873069,26361
1433.353134,26829.8
1436.828298,26567.6
1440.298571,25130.6
1443.763965,23094.2
1447.224491,21145.2
1450.68016,19671
1454.130983,19203.4
1457.576971,18491.2
1461.018135,18427.4
1464.454486,18563.6
1467.886036,18240.4
1471.312794,18401.6
1474.734774,18139
1478.151985,18572.6
1481.564439,18085.2
1484.972146,17854.6
1488.375119,17662.8
1491.773368,17878.2
1495.166904,18297.4
1498.555739,17460.2
1501.939883,17522.4
1505.319349,17194.2
1508.694146,17542.2
1512.064286,17690.4
1515.429781,17793.4
1518.790642,17596.2
1522.146879,18080.4
1525.498505,17643.8
1528.845529,18061.4
1532.187965,19077
1535.525822,19183.6
1538.859112,19719.8
1542.187846,20980.2
1545.512036,20568.4
1548.831693,22455.6
1552.146829,22678.4
1555.457453,22591.2
1558.763579,22276.6
1562.065216,23117.8
1565.362377,23704
1568.655073,24100.6
1571.943315,24130.8
1575.227114,24185.8
1578.506482,24379.6
1581.781431,24839.6
1585.051971,24401
1588.318114,24584.8
1591.579872,24001
1594.837255,22634.2
1598.090275,20793.2
1601.338945,19270.8
1604.583274,18474.4
1607.823275,17482
1611.058959,16697.2
1614.290338,17267.2
1617.517422,16024.6
1620.740224,16294.4
1623.958755,15721
1627.173027,15589.4
1630.38305,14954.4
1633.588838,15379
1636.7904,14916.2
1639.987749,14961.6
1643.180896,15007.4
1646.369853,14248.2
1649.554632,14989.8
1652.735244,14202.4
1655.9117,13747.2
1659.084013,14073.2
1662.252193,14635.8
1665.416254,13743.2
1668.576205,13950
1671.732059,14257.2
1674.883828,14322
1678.031523,13630.8
1681.175157,13817.8
1684.314739,13740.4
1687.450284,13681.2
1690.581801,13614.2
1693.709304,13417.4
1696.832803,13471.2
1699.952311,13568.8
1703.067839,13521.4
1706.179399,13665
1709.287003,13881.8
1712.390663,13519
1715.49039,13494.6
1718.586197,13891.2
1721.678095,13732
1724.766096,13626.6
1727.850213,13057.2
1730.930456,13485.4
1734.006838,13214.8
1737.079372,13579
1740.148067,13178.4
1743.212938,14073.6
1746.273996,13292.8
1749.331252,13242.6
1752.384718,13339
1755.434408,13362.2
1758.480332,13241.8
1761.522503,13359
1764.560933,12940.8
1767.595634,12785.6
1770.626618,13523.6
1773.653896,13519.4
1776.677482,13137.4
1779.697388,13068.8
1782.713625,13678
1785.726205,13557.4
1788.735141,13474
1791.740445,12993
1794.742129,12877.4
1797.740206,13503
1800.734687,13431.8
1803.725585,13267.6
1806.712912,13165.2
1809.69668,12801.6
1812.676902,12910
1815.65359,12643.4
1818.626756,12817
1821.596413,12939.2
1824.562573,12490.6
1827.525247,12882
1830.48445,12710
1833.440192,12857.2
1836.392487,12803.2
1839.341347,12959.4
1842.286784,13033.4
1845.22881,12522.6
1848.167439,13090.4
1851.102682,12830.2
1854.034553,12836.4
1856.963063,12645
1859.888226,13589.2
1862.810053,13036.8
1865.728557,12766.2
1868.643751,12481.2
1871.555648,12627.8
1874.46426,12323.8
1877.369599,13010.4
1880.271679,12793.8
1883.170512,12578.2
1886.06611,13113
1888.958487,12815.4
1891.847655,12778.4
1894.733626,12893.8
1897.616414,12980.8
1900.496032,12551.6
1903.372491,12829.2
1906.245805,13036.2
1909.115987,13184.6
1911.983049,13079.6
1914.847004,12903.2
1917.707866,13019.4
1920.565646,12977.4
1923.420359,12664.6
1926.272016,12852.4
1929.120631,12525.6
1931.966216,12749.2
1934.808786,12642.4
1937.648351,12964.6
1940.484927,12886.6
1943.318525,12952
1946.149158,13222.8
1948.97684,14293
1951.801584,13272
1954.623403,13016.2
1957.44231,13108
1960.258318,12582.8
1963.071439,12638.8
1965.881688,12847.6
1968.689078,12888.2
1971.493621,12658.2
