Ramanshift[cm-1],Intensity
-93.47115107,14385.2
-87.69374369,13122.4
-81.9253076,12922.6
-76.16582701,13054
-70.41528615,12977
-64.67366933,12802.4
-58.94096086,12696
-53.21714512,12962.6
-47.50220652,13064
-41.79612954,13158.4
-36.09889866,13477.2
-30.41049843,13624.6
-24.73091343,13281.2
-19.0601283,13321
-13.39812769,13120.4
-7.744896327,12943.8
-2.100418946,12573.8
3.535319659,13312
9.162334658,12682.6
14.78064118,13044.2
20.39025432,12649.2
25.99118913,12818.6
31.58346061,13142.2
37.16708375,13053.6
42.74207347,12701.4
48.30844468,12671.6
53.86621222,12553.2
59.41539093,12261.4
64.95599558,12188.4
70.48804091,12601.4
76.01154164,12746
81.52651243,12050
87.03296792,12585.8
92.5309227,13000.8
98.02039134,12245.2
103.5013884,12668
108.9739282,12333.4
114.4380255,12357.8
119.8936944,12612.8
125.3409495,13469.6
130.779805,12336
136.2102753,12144.2
141.6323747,12082.4
147.0461174,12773.4
152.4515176,12322.4
157.8485895,12348.6
163.2373472,12122.6
168.6178049,12471.8
173.9899766,12752.4
179.3538764,12364.6
184.7095182,12356
190.0569161,12576.4
195.396084,12716.4
200.7270358,12166.2
206.0497854,12274.6
211.3643466,12028.4
216.6707333,12323.4
221.9689593,11994.8
227.2590382,12134.4
232.5409839,12136.6
237.8148101,12018.4
243.0805303,12191.2
248.3381582,12135.4
253.5877075,12000.2
258.8291917,12135.4
264.0626244,12248.8
269.288019,12333.4
274.5053891,12447.6
279.7147481,12190.4
284.9161094,11946.8
290.1094865,12114.8
295.2948927,12674.2
300.4723414,13793
305.6418459,14367.2
310.8034194,15092.8
315.9570752,16246.4
321.1028267,16492.2
326.2406869,16501.4
331.370669,16633.6
336.4927863,16666.8
341.6070517,16728.8
346.7134786,16607
351.8120798,16846
356.9028684,16509
361.9858576,16693
367.0610602,16993.2
372.1284892,16710.8
377.1881577,17131.2
382.2400784,17276
387.2842644,17828.6
392.3207284,18301.6
397.3494833,17799.2
402.370542,17781.6
407.3839172,17093.4
412.3896217,16709.6
417.3876683,16092.6
422.3780697,16243.4
427.3608386,16314.8
432.3359876,16642.2
437.3035295,16834
442.2634769,16902.4
447.2158423,16020.6
452.1606383,16125
457.0978776,16229
462.0275727,15598.2
466.9497361,16209.2
471.8643802,15637.4
476.7715176,16208.4
481.6711608,16030.4
486.5633221,16230.4
491.448014,15962.6
496.3252488,16056.4
501.195039,16039.2
506.0573969,16500
510.9123349,16104
515.7598651,15599.4
520.6,16119.8
525.4327518,15959.6
530.2581327,15924.8
535.076155,15479.6
539.8868309,15866
544.6901726,16030.2
549.4861922,15652
554.2749019,16523.6
559.0563139,15698.2
563.8304402,15451.6
568.597293,16588
573.3568844,16292.6
578.1092263,15591.8
582.8543308,16099.8
587.5922101,16007.8
592.322876,15731.4
597.0463405,15766
601.7626157,16047
606.4717135,15687.8
611.1736458,15716.8
615.8684246,15681.8
620.5560617,16099.2
625.2365691,15798.8
629.9099585,16187.8
634.5762419,16453.6
639.2354312,15767
643.887538,15994
648.5325743,15737.2
653.1705518,15691.4
657.8014823,15903
662.4253775,15148.6
667.0422493,15592.4
671.6521092,15570.4
676.2549691,15776.8
680.8508407,15777.6
685.4397355,15481.2
690.0216654,15588.2
694.5966419,15269.4
699.1646767,15972.6
703.7257814,15553
708.2799676,15822.8
712.827247,15941.4
717.367631,15545.4
721.9011314,15589.4
726.4277595,14952.4
730.9475271,15551.6
735.4604456,15600.4
739.9665264,16193.4
744.4657813,15541.6
748.9582215,15536
753.4438587,15046.4
757.9227042,14897.6
762.3947696,15453.4
766.8600662,15019.2
771.3186056,16445
775.770399,15376
780.215458,15882.2
784.6537939,15109.2
789.0854181,14903.4
793.510342,14912.8
797.9285769,15732.6
802.3401342,15065.6
806.7450253,15219
811.1432614,15168.2
815.5348538,15105.4
819.9198139,14651.6
824.2981531,15116.8
828.6698824,15136.2
833.0350133,14984.2
837.393557,14677
841.7455248,15110
846.0909278,14848.2
850.4297774,14825.2
854.7620848,14802
859.0878611,15138
863.4071176,14519.8
867.7198655,14961.6
872.026116,15343.4
876.3258802,15730
880.6191693,15302
884.9059946,15184.2
889.186367,15655.4
893.4602979,14633.2
897.7277982,14474.6
901.9888793,14877.8
906.2435521,15245.4
910.4918277,14705.8
914.7337174,14586.8
918.9692321,14539
923.1983831,15177.4
927.4211813,14769.6
931.6376378,15483.6
935.8477637,14926.2
940.0515701,15161.6
944.249068,15237
948.4402684,14446.8
952.6251825,15238.6
956.8038212,14789.8
960.9761955,15493.4
965.1423166,14875.6
969.3021953,14950.4
973.4558427,14955.2
977.6032699,14711.8
981.7444877,14830.6
985.8795072,14835.6
990.0083394,14873.4
994.1309953,14548.8
998.2474857,14889.6
1002.357822,14115.2
1006.462014,14817.4
1010.560075,14490.6
1014.652013,14845.6
1018.737841,15209.8
1022.81757,14554.8
1026.891209,14530.4
1030.958771,14424.6
1035.020266,14856.2
1039.075705,14487.2
1043.1251,14172.4
1047.16846,14519.4
1051.205797,14493.4
1055.237121,14049.6
1059.262444,14158.6
1063.281777,13937.6
1067.295131,14135.2
1071.302515,15301
1075.303942,15095.8
1079.299422,16086.8
1083.288966,15634.2
1087.272585,15085.4
1091.250289,14810.2
1095.222091,14580.4
1099.187999,14313.4
1103.148026,14505.6
1107.102183,14242.8
1111.050479,14484.8
1114.992927,14421
1118.929536,14197
1122.860318,14570.6
1126.785283,14022
1130.704443,13859.2
1134.617808,14680
1138.52539,14607.6
1142.427198,14441.2
1146.323244,14580.6
1150.213538,14188.4
1154.098093,14659.2
1157.976917,14091.2
1161.850023,13966.4
1165.717421,14511.8
1169.579121,14160.8
1173.435135,14615.8
1177.285474,13781.8
1181.130148,14056.6
1184.969169,14507.6
1188.802547,14350.6
1192.630292,13956.8
1196.452416,13671
1200.26893,13720.4
1204.079844,13523.6
1207.88517,13145
1211.684917,13824.4
1215.479098,13424.2
1219.267722,15067.2
1223.050801,13527.6
1226.828346,13545
1230.600366,13779.4
1234.366874,13804.6
1238.12788,13547.4
1241.883395,13706
1245.633429,14062.4
1249.377994,13983.8
1253.1171,13126
1256.850759,13707
1260.578981,13533.6
1264.301776,13606.4
1268.019157,13463
1271.731133,13227.8
1275.437715,13056.6
1279.138915,13707.6
1282.834743,13935
1286.52521,13476.4
1290.210328,13213
1293.890106,13364.2
1297.564555,14008.6
1301.233688,13247.8
1304.897514,13616
1308.556044,13751.8
1312.209289,13674
1315.857261,13077
1319.499969,13229.6
1323.137425,14030.8
1326.769641,13541.8
1330.396626,14195.8
1334.018391,13516.8
1337.634948,13729.6
1341.246307,13280.2
1344.85248,13277.4
1348.453477,13088.8
1352.049309,13163.8
1355.639987,13115.4
1359.225522,13935.2
1362.805925,13357
1366.381207,13496.6
1369.951379,13500.6
1373.516452,13501
1377.076436,13826
1380.631343,13550.2
1384.181184,13356.4
1387.725969,13383.6
1391.26571,13149
1394.800417,13152.6
1398.330102,13340.4
1401.854776,13484.4
1405.374448,13311
1408.889132,12894.2
1412.398837,12534.8
1415.903574,13087
1419.403355,13537.8
1422.89819,13125.4
1426.388091,13052.2
1429.873069,13495.4
1433.353134,12935.6
1436.828298,13007.4
1440.298571,13204.8
1443.763965,12869.4
1447.224491,12807.8
1450.68016,12847.2
1454.130983,13329.8
1457.576971,13232.4
1461.018135,13405.4
1464.454486,13717
1467.886036,13079.4
1471.312794,13059.2
1474.734774,12794.4
1478.151985,13544
1481.564439,13273.2
1484.972146,13100.6
1488.375119,12746.4
1491.773368,13165.2
1495.166904,13800.4
1498.555739,13023.4
1501.939883,13203.4
1505.319349,12660.8
1508.694146,13072.8
1512.064286,12963
1515.429781,12999.6
1518.790642,12835.4
1522.146879,13226
1525.498505,12575.2
1528.845529,12577.6
1532.187965,13372.2
1535.525822,12950.2
1538.859112,12961.2
1542.187846,13543
1545.512036,12524.6
1548.831693,13997.6
1552.146829,13319.8
1555.457453,12752.2
1558.763579,12257.2
1562.065216,12815.8
1565.362377,13027.6
1568.655073,13317.2
1571.943315,13092
1575.227114,13076.2
1578.506482,13009.2
1581.781431,13751
1585.051971,13219.6
1588.318114,13339.2
1591.579872,13413
1594.837255,13156.4
1598.090275,12916
1601.338945,12868.4
1604.583274,13273.8
1607.823275,12870
1611.058959,12378.4
1614.290338,13228.4
1617.517422,12305
1620.740224,12683.4
1623.958755,12334.8
1627.173027,12553.2
1630.38305,12084.8
1633.588838,12647.6
1636.7904,12292.4
1639.987749,12649.2
1643.180896,12744.6
1646.369853,12163.8
1649.554632,13082.2
1652.735244,12461
1655.9117,12131.2
1659.084013,12443
1662.252193,13167.8
1665.416254,12126.8
1668.576205,12455.6
1671.732059,12697.4
1674.883828,12755.6
1678.031523,12288.8
1681.175157,12342.6
1684.314739,12364.8
1687.450284,12329.2
1690.581801,12296.8
1693.709304,12133.6
1696.832803,12068.2
1699.952311,12303.4
1703.067839,12366.2
1706.179399,12421.4
1709.287003,12712.6
1712.390663,12342.4
1715.49039,12403.6
1718.586197,12696.8
1721.678095,12596.6
1724.766096,12564.8
1727.850213,11947.4
1730.930456,12388
1734.006838,12087.6
1737.079372,12422.4
1740.148067,12006.6
1743.212938,13226.2
1746.273996,12316.6
1749.331252,12253
1752.384718,12156.2
1755.434408,12343
1758.480332,12416.8
1761.522503,12330.8
1764.560933,12153.2
1767.595634,11792.6
1770.626618,12652.2
1773.653896,12546.8
1776.677482,12266
1779.697388,12116.2
1782.713625,12634.8
1785.726205,12620.4
1788.735141,12558.2
1791.740445,12170.8
1794.742129,12157.6
1797.740206,12608.6
1800.734687,12551.8
1803.725585,12383
1806.712912,12374.6
1809.69668,12057.8
1812.676902,12245.8
1815.65359,11824
1818.626756,12000.4
1821.596413,12233.6
1824.562573,11829.4
1827.525247,12175.8
1830.48445,11979.8
1833.440192,12155.4
1836.392487,11914.2
1839.341347,12209.4
1842.286784,12235.2
1845.22881,11796.6
1848.167439,12432.8
1851.102682,12034.2
1854.034553,12089
1856.963063,11827.6
1859.888226,12903.6
1862.810053,12284.4
1865.728557,12070.8
1868.643751,11871.4
1871.555648,11906.2
1874.46426,11592.2
1877.369599,12186.6
1880.271679,12034.6
1883.170512,11889
1886.06611,12414
1888.958487,11966.4
1891.847655,12053.2
1894.733626,12242.8
1897.616414,12273
1900.496032,11767
1903.372491,12174.8
1906.245805,12339.4
1909.115987,12452.8
1911.983049,12456.4
1914.847004,12251
1917.707866,12451.4
1920.565646,12369.4
1923.420359,11916
1926.272016,12186.6
1929.120631,11904
1931.966216,12226.2
1934.808786,12066.8
1937.648351,12361
1940.484927,12192
1943.318525,12363.8
1946.149158,12612.2
1948.97684,13623.2
1951.801584,12646.8
1954.623403,12304
1957.44231,12417.4
1960.258318,11938.8
1963.071439,11953.4
1965.881688,12119
1968.689078,12329.6
1971.493621,11994.4
