Ramanshift[cm-1],Intensity
-93.47115107,14472
-87.69374369,13106.8
-81.9253076,12899.4
-76.16582701,13021.6
-70.41528615,13084.8
-64.67366933,12794.8
-58.94096086,12871.2
-53.21714512,13004.6
-47.50220652,13103.6
-41.79612954,13213.8
-36.09889866,13603.4
-30.41049843,13698.6
-24.73091343,13321.2
-19.0601283,13390.2
-13.39812769,13197.6
-7.744896327,12894
-2.100418946,12815.2
3.535319659,13457.4
9.162334658,12775
14.78064118,13157.8
20.39025432,12804.2
25.99118913,12853.8
31.58346061,13311.4
37.16708375,13074.6
42.74207347,12732.8
48.30844468,12778.2
53.86621222,12645.4
59.41539093,12314.6
64.95599558,12142.2
70.48804091,12688.4
76.01154164,12809
81.52651243,12135.8
87.03296792,12670.8
92.5309227,12928.4
98.02039134,12385.2
103.5013884,12599.2
108.9739282,12407.8
114.4380255,12461
119.8936944,12735.8
125.3409495,13551.4
130.779805,12371.4
136.2102753,12114
141.6323747,12083.6
147.0461174,12851.8
152.4515176,12313.8
157.8485895,12310
163.2373472,12235.2
168.6178049,12556.8
173.9899766,12866.6
179.3538764,12369
184.7095182,12375
190.0569161,12655.8
195.396084,12813.8
200.7270358,12268.6
206.0497854,12265
211.3643466,12069.8
216.6707333,12405.8
221.9689593,12021
227.2590382,12225.6
232.5409839,12216.4
237.8148101,12132.8
243.0805303,12201.4
248.3381582,12130.8
253.5877075,12120.4
258.8291917,12189.6
264.0626244,12321.6
269.288019,12446.6
274.5053891,12571.4
279.7147481,12231
284.9161094,12182.8
290.1094865,12641
295.2948927,13962.2
300.4723414,17279.6
305.6418459,20751.4
310.8034194,23581
315.9570752,25693.8
321.1028267,26426.6
326.2406869,26531.6
331.370669,26842.2
336.4927863,27134.4
341.6070517,27483.6
346.7134786,27690.2
351.8120798,28221.6
356.9028684,27829.2
361.9858576,27859.6
367.0610602,28155.6
372.1284892,27771
377.1881577,27975.6
382.2400784,28212.4
387.2842644,28863
392.3207284,29647.2
397.3494833,29399.8
402.370542,29191.6
407.3839172,28515
412.3896217,27937.8
417.3876683,27344
422.3780697,27429.6
427.3608386,27076.6
432.3359876,27376.2
437.3035295,27175.8
442.2634769,27334
447.2158423,26255
452.1606383,26280.6
457.0978776,26632.8
462.0275727,25895.2
466.9497361,26354
471.8643802,25610.8
476.7715176,26198.2
481.6711608,26198.8
486.5633221,26606.4
491.448014,26576.2
496.3252488,26535.4
501.195039,26549.8
506.0573969,26595.4
510.9123349,26209.6
515.7598651,25697
520.6,26040.2
525.4327518,25930.4
530.2581327,25836.6
535.076155,25194.2
539.8868309,25488
544.6901726,25332.8
549.4861922,24946.8
554.2749019,26033
559.0563139,25041.2
563.8304402,24745.6
568.597293,25886.6
573.3568844,25371.4
578.1092263,25002.2
582.8543308,25577.6
587.5922101,25431
592.322876,25055.8
597.0463405,25155.2
601.7626157,25492
606.4717135,24803.4
611.1736458,24919.6
615.8684246,25014.8
620.5560617,25374.2
625.2365691,25133.4
629.9099585,25453.2
634.5762419,25752.2
639.2354312,24870
643.887538,25242.8
648.5325743,24835.2
653.1705518,24800.2
657.8014823,25032.6
662.4253775,24342.8
667.0422493,24862.4
671.6521092,24836
676.2549691,25064.2
680.8508407,24851.2
685.4397355,24629
690.0216654,24594.2
694.5966419,24374.2
699.1646767,24992
703.7257814,24643.4
708.2799676,24817.4
712.827247,24721.8
717.367631,24540.8
721.9011314,24480.4
726.4277595,23852.8
730.9475271,24310.6
735.4604456,24244.6
739.9665264,24658
744.4657813,24070.2
748.9582215,23910.2
753.4438587,23373.4
757.9227042,23104.4
762.3947696,23827.8
766.8600662,23145.4
771.3186056,24508.8
775.770399,23216.6
780.215458,23655.8
784.6537939,22819.4
789.0854181,22601
793.510342,22783.2
797.9285769,23253
802.3401342,22615.2
806.7450253,22829.6
811.1432614,22680.8
815.5348538,22364.4
819.9198139,22105.6
824.2981531,22169
828.6698824,22403.8
833.0350133,22151.2
837.393557,21719.2
841.7455248,22154.2
846.0909278,21840.2
850.4297774,21884.4
854.7620848,21819
859.0878611,22034.2
863.4071176,21586
867.7198655,22083
872.026116,22367.2
876.3258802,22642.4
880.6191693,22031.8
884.9059946,22102.2
889.186367,22473.8
893.4602979,21244.8
897.7277982,21045.6
901.9888793,21552.8
906.2435521,22064.8
910.4918277,21622.2
914.7337174,21388.2
918.9692321,21400.2
923.1983831,22078.6
927.4211813,21577
931.6376378,22429
935.8477637,21805.8
940.0515701,22040.8
944.249068,22065
948.4402684,21162.8
952.6251825,22039.2
956.8038212,21582.8
960.9761955,22268.8
965.1423166,21762.2
969.3021953,21845.2
973.4558427,21788.4
977.6032699,21601.6
981.7444877,21925.2
985.8795072,21658.2
990.0083394,21845
994.1309953,21316.6
998.2474857,21667
1002.357822,20870.4
1006.462014,21485
1010.560075,21185.2
1014.652013,21599.6
1018.737841,21855.4
1022.81757,21271.4
1026.891209,21251.2
1030.958771,20962.2
1035.020266,21423.6
1039.075705,21077.6
1043.1251,20771.2
1047.16846,21217.8
1051.205797,20977.4
1055.237121,20802.8
1059.262444,20866.2
1063.281777,20825.4
1067.295131,21364.6
1071.302515,22843.2
1075.303942,22742.2
1079.299422,23822.4
1083.288966,23216.2
1087.272585,22475.6
1091.250289,21906.4
1095.222091,21544.8
1099.187999,21023.8
1103.148026,21082.6
1107.102183,21020.8
1111.050479,21116.4
1114.992927,21049.8
1118.929536,20998.4
1122.860318,21414.8
1126.785283,20905.2
1130.704443,20847.6
1134.617808,21712.2
1138.52539,21869
1142.427198,21721.2
1146.323244,21768
1150.213538,21316.2
1154.098093,21830.4
1157.976917,21114
1161.850023,20930
1165.717421,21463.6
1169.579121,21165.4
1173.435135,21706.2
1177.285474,20914.8
1181.130148,21113
1184.969169,21457.6
1188.802547,21167
1192.630292,20785
1196.452416,20253.4
1200.26893,20398.4
1204.079844,20186.6
1207.88517,19794.4
1211.684917,20502.6
1215.479098,19955.2
1219.267722,21582.4
1223.050801,20119.6
1226.828346,20212.8
1230.600366,20496.2
1234.366874,20399.6
1238.12788,20273.6
1241.883395,20262
1245.633429,20599.8
1249.377994,20599.8
1253.1171,19834.2
1256.850759,20318.2
1260.578981,20160.8
1264.301776,20297.6
1268.019157,20219.2
1271.731133,20081.6
1275.437715,19840.2
1279.138915,20367
1282.834743,20670.4
1286.52521,20225
1290.210328,19994.8
1293.890106,20107.8
1297.564555,20591.4
1301.233688,19927
1304.897514,20340.2
1308.556044,20441.8
1312.209289,20603.8
1315.857261,19893.2
1319.499969,20248.6
1323.137425,20885.4
1326.769641,20352.6
1330.396626,21021.8
1334.018391,20448
1337.634948,20505
1341.246307,20290.6
1344.85248,20059.6
1348.453477,19947.8
1352.049309,19875
1355.639987,19748.2
1359.225522,20424
1362.805925,19879.4
1366.381207,19908
1369.951379,19869.2
1373.516452,19862.8
1377.076436,20031.4
1380.631343,20011.2
1384.181184,19861
1387.725969,20072.8
1391.26571,19725
1394.800417,19573.6
1398.330102,19692.4
1401.854776,19815.2
1405.374448,19572.8
1408.889132,19171.4
1412.398837,18747.8
1415.903574,19065.8
1419.403355,19649.2
1422.89819,19069
1426.388091,19054.2
1429.873069,19606.4
1433.353134,18961.8
1436.828298,18915.6
1440.298571,18985
1443.763965,18648.8
1447.224491,18438
1450.68016,18286.8
1454.130983,18873.8
1457.576971,18686.6
1461.018135,18934.8
1464.454486,18742
1467.886036,18260.2
1471.312794,18302.2
1474.734774,17965
1478.151985,18792.8
1481.564439,18469.2
1484.972146,18259.8
1488.375119,17945.6
1491.773368,18319
1495.166904,18785.8
1498.555739,18158
1501.939883,18290.8
1505.319349,17691.8
1508.694146,18074.2
1512.064286,18124
1515.429781,18170
1518.790642,17843
1522.146879,18239.8
1525.498505,17582.4
1528.845529,17557.8
1532.187965,18318
1535.525822,17949.2
1538.859112,17864.4
1542.187846,18331
1545.512036,17510
1548.831693,18867.6
1552.146829,18243.8
1555.457453,17616.4
1558.763579,17268.2
1562.065216,17701
1565.362377,18054
1568.655073,18384.6
1571.943315,18044.8
1575.227114,17993.8
1578.506482,17873.8
1581.781431,18597.4
1585.051971,18175.4
1588.318114,18097.6
1591.579872,17979
1594.837255,17678.2
1598.090275,17259.4
1601.338945,17168.6
1604.583274,17340.6
1607.823275,16807.4
1611.058959,16368.6
1614.290338,17114.2
1617.517422,16200.8
1620.740224,16438.6
1623.958755,16000.8
1627.173027,16036.4
1630.38305,15578.6
1633.588838,15851.4
1636.7904,15715.8
1639.987749,15942.8
1643.180896,16105.2
1646.369853,15195.4
1649.554632,16075.6
1652.735244,15313.8
1655.9117,14978.2
1659.084013,15212.8
1662.252193,15815.4
1665.416254,15024
1668.576205,15247.6
1671.732059,15382.6
1674.883828,15413.4
1678.031523,14816.2
1681.175157,14907.2
1684.314739,14924
1687.450284,14792
1690.581801,14619.4
1693.709304,14388
1696.832803,14293.4
1699.952311,14617.4
1703.067839,14680.6
1706.179399,14513.6
1709.287003,14959.8
1712.390663,14429
1715.49039,14554.8
1718.586197,14839.6
1721.678095,14674.2
1724.766096,14621.8
1727.850213,14032.2
1730.930456,14410.6
1734.006838,14155.8
1737.079372,14470
1740.148067,14009.8
1743.212938,15113.2
1746.273996,14277.6
1749.331252,14199.4
1752.384718,14237.8
1755.434408,14201.6
1758.480332,14144.6
1761.522503,14109.2
1764.560933,13930.2
1767.595634,13599.8
1770.626618,14278.4
1773.653896,14389.4
1776.677482,13840
1779.697388,13841.2
1782.713625,14395.4
1785.726205,14429.4
1788.735141,14282
1791.740445,13822.2
1794.742129,13754.2
1797.740206,14216
1800.734687,14395.4
1803.725585,14045.6
1806.712912,14041.6
1809.69668,13768
1812.676902,13828.6
1815.65359,13456
1818.626756,13537.6
1821.596413,13806
1824.562573,13427.4
1827.525247,13815.4
1830.48445,13530.4
1833.440192,13728
1836.392487,13556.8
1839.341347,13696.8
1842.286784,13824.6
1845.22881,13316.6
1848.167439,13857.6
1851.102682,13667.2
1854.034553,13560.2
1856.963063,13425.8
1859.888226,14239
1862.810053,13879.6
1865.728557,13648
1868.643751,13297.4
1871.555648,13347
1874.46426,13018.4
1877.369599,13741.4
1880.271679,13528.6
1883.170512,13378.4
1886.06611,13856.2
1888.958487,13514.4
1891.847655,13478.6
1894.733626,13616.4
1897.616414,13624.4
1900.496032,13132.4
1903.372491,13562
1906.245805,13722.4
1909.115987,13731.2
1911.983049,13813.6
1914.847004,13677.6
1917.707866,13748.4
1920.565646,13703.4
1923.420359,13274
1926.272016,13582.6
1929.120631,13272
1931.966216,13426.4
1934.808786,13380.2
1937.648351,13699.6
1940.484927,13573.6
1943.318525,13681.8
1946.149158,13862
1948.97684,14901.2
1951.801584,13808.4
1954.623403,13595.2
1957.44231,13722
1960.258318,13136.6
1963.071439,13203.2
1965.881688,13410
1968.689078,13685.2
1971.493621,13226.8
