Ramanshift[cm-1],Intensity
-93.47115107,14463.2
-87.69374369,13111.8
-81.9253076,12876.2
-76.16582701,13001.8
-70.41528615,12992
-64.67366933,12687.8
-58.94096086,12824.4
-53.21714512,12894.8
-47.50220652,13148
-41.79612954,13125
-36.09889866,13581.8
-30.41049843,13659.8
-24.73091343,13263.2
-19.0601283,13330.4
-13.39812769,13115.4
-7.744896327,12855
-2.100418946,12635.8
3.535319659,13342.6
9.162334658,12561.6
14.78064118,13158.6
20.39025432,12749.6
25.99118913,12842.8
31.58346061,13194.6
37.16708375,13013.4
42.74207347,12659.8
48.30844468,12698.6
53.86621222,12531.6
59.41539093,12212.8
64.95599558,12134.8
70.48804091,12580.6
76.01154164,12718
81.52651243,12120.6
87.03296792,12591.2
92.5309227,13119.2
98.02039134,12216
103.5013884,12524.4
108.9739282,12265.6
114.4380255,12364
119.8936944,12595.4
125.3409495,13557
130.779805,12318.8
136.2102753,12009.2
141.6323747,12055.4
147.0461174,12739.8
152.4515176,12395.2
157.8485895,12277
163.2373472,12137.6
168.6178049,12537.4
173.9899766,12808.8
179.3538764,12267.4
184.7095182,12414.2
190.0569161,12670.2
195.396084,12696
200.7270358,12090.6
206.0497854,12355
211.3643466,11938.6
216.6707333,12361.6
221.9689593,11968.8
227.2590382,12175.6
232.5409839,12124.6
237.8148101,12003.8
243.0805303,12134.8
248.3381582,12127.8
253.5877075,11946
258.8291917,12161.2
264.0626244,12181.4
269.288019,12389.2
274.5053891,12560.2
279.7147481,12204.6
284.9161094,12173.6
290.1094865,12607.8
295.2948927,14137.6
300.4723414,17567.4
305.6418459,21347
310.8034194,24679
315.9570752,27214.8
321.1028267,27858
326.2406869,28037.4
331.370669,28519
336.4927863,28788.4
341.6070517,29260.4
346.7134786,29334.2
351.8120798,29827
356.9028684,29461.8
361.9858576,29581.6
367.0610602,29814.2
372.1284892,29359.2
377.1881577,29620
382.2400784,29548
387.2842644,29969.6
392.3207284,30428.8
397.3494833,29918
402.370542,30130
407.3839172,29609.4
412.3896217,28931.6
417.3876683,28402.2
422.3780697,28441.8
427.3608386,28292.6
432.3359876,28621.8
437.3035295,28472.8
442.2634769,28670.2
447.2158423,27733.2
452.1606383,27608.8
457.0978776,27917.6
462.0275727,27165
466.9497361,27799.2
471.8643802,27101.8
476.7715176,27701.8
481.6711608,27845
486.5633221,28248.8
491.448014,27783.8
496.3252488,27679.2
501.195039,27551.6
506.0573969,27951.6
510.9123349,27230.6
515.7598651,26868.6
520.6,27282
525.4327518,26979.6
530.2581327,26955.4
535.076155,26374
539.8868309,26727.2
544.6901726,26827
549.4861922,26246.6
554.2749019,27192.8
559.0563139,26300.8
563.8304402,25901.6
568.597293,26954
573.3568844,26755.2
578.1092263,26249.4
582.8543308,26544.8
587.5922101,26636.4
592.322876,26249.6
597.0463405,26285.6
601.7626157,26604.4
606.4717135,26073.6
611.1736458,25969.2
615.8684246,26023.2
620.5560617,26477
625.2365691,26058
629.9099585,26391.4
634.5762419,26618
639.2354312,25709.8
643.887538,25757.4
648.5325743,25553
653.1705518,25527.2
657.8014823,25685.6
662.4253775,24924.6
667.0422493,25335.2
671.6521092,25540.8
676.2549691,25503.6
680.8508407,25382.2
685.4397355,25261.8
690.0216654,25206.8
694.5966419,25152
699.1646767,25579.8
703.7257814,25176.4
708.2799676,25222.8
712.827247,25549
717.367631,25215.6
721.9011314,25157.2
726.4277595,24451.4
730.9475271,24922.8
735.4604456,24956.6
739.9665264,25365
744.4657813,24631.8
748.9582215,24508.4
753.4438587,24011.4
757.9227042,23865.4
762.3947696,24286.2
766.8600662,23526.4
771.3186056,25107.8
775.770399,23865.6
780.215458,24153
784.6537939,23421.2
789.0854181,23359.4
793.510342,23139.4
797.9285769,23791.6
802.3401342,23226.8
806.7450253,23384.8
811.1432614,23280.4
815.5348538,22847.6
819.9198139,22610.8
824.2981531,22739.4
828.6698824,22830.6
833.0350133,22572.8
837.393557,22175.2
841.7455248,22546.2
846.0909278,22278
850.4297774,22437.6
854.7620848,22317.2
859.0878611,22778.6
863.4071176,21913.4
867.7198655,22531.4
872.026116,22746.6
876.3258802,23207.8
880.6191693,22621.4
884.9059946,22653
889.186367,22937.4
893.4602979,21913.8
897.7277982,21673.8
901.9888793,22085.8
906.2435521,22533
910.4918277,21926.2
914.7337174,21855.8
918.9692321,21796.8
923.1983831,22483.8
927.4211813,22043.8
931.6376378,22668
935.8477637,22266
940.0515701,22376.8
944.249068,22356
948.4402684,21468.2
952.6251825,22321.8
956.8038212,22069.6
960.9761955,22675
965.1423166,22018.6
969.3021953,22019.2
973.4558427,22131.8
977.6032699,21831.2
981.7444877,22027.2
985.8795072,21804.6
990.0083394,21907.6
994.1309953,21454
998.2474857,22063
1002.357822,21028.4
1006.462014,21791.2
1010.560075,21565.2
1014.652013,21869.2
1018.737841,22184.4
1022.81757,21578.4
1026.891209,21490.6
1030.958771,21241.6
1035.020266,21661
1039.075705,21265.2
1043.1251,21057.4
1047.16846,21330.6
1051.205797,21203.8
1055.237121,20940.2
1059.262444,21101
1063.281777,21276
1067.295131,21673.8
1071.302515,23249
1075.303942,22678.6
1079.299422,23496
1083.288966,22702
1087.272585,21844.6
1091.250289,21423.4
1095.222091,21598
1099.187999,21052.8
1103.148026,21227.2
1107.102183,21134.8
1111.050479,21223.2
1114.992927,21153.8
1118.929536,21064
1122.860318,21371.8
1126.785283,21108.8
1130.704443,21203.2
1134.617808,22373.2
1138.52539,22461.6
1142.427198,22273.6
1146.323244,22015.8
1150.213538,21385.8
1154.098093,21551.2
1157.976917,20938.2
1161.850023,20704.6
1165.717421,21397.4
1169.579121,21073.2
1173.435135,21288.2
1177.285474,20412.6
1181.130148,20657.4
1184.969169,21040.2
1188.802547,20966.2
1192.630292,20565.2
1196.452416,20255.6
1200.26893,20308.4
1204.079844,19847
1207.88517,19500.4
1211.684917,20226.4
1215.479098,19773.2
1219.267722,21545.8
1223.050801,19708
1226.828346,19735.4
1230.600366,19938.8
1234.366874,19949.4
1238.12788,19820.4
1241.883395,19791
1245.633429,20008.2
1249.377994,20000.4
1253.1171,19327.6
1256.850759,19695
1260.578981,19588
1264.301776,19780
1268.019157,19557
1271.731133,19300.4
1275.437715,19239.6
1279.138915,19722.4
1282.834743,19948.2
1286.52521,19421.6
1290.210328,19258.2
1293.890106,19439.8
1297.564555,19986
1301.233688,19264.4
1304.897514,19628.8
1308.556044,19792.2
1312.209289,19731
1315.857261,19097.6
1319.499969,19247
1323.137425,20053.2
1326.769641,19571.4
1330.396626,20100.2
1334.018391,19431
1337.634948,19610.8
1341.246307,19305.6
1344.85248,19214.8
1348.453477,19099.8
1352.049309,19019.2
1355.639987,19126.2
1359.225522,19668.4
1362.805925,19288
1366.381207,19092
1369.951379,19357.2
1373.516452,19322.4
1377.076436,19579.8
1380.631343,19389.4
1384.181184,19508.6
1387.725969,19713.8
1391.26571,19369.6
1394.800417,19111.8
1398.330102,19070.4
1401.854776,19347.6
1405.374448,19152.4
1408.889132,18624.8
1412.398837,18230.8
1415.903574,18567.4
1419.403355,19319.8
1422.89819,18963.2
1426.388091,19030.8
1429.873069,19586
1433.353134,18969.2
1436.828298,18846.6
1440.298571,18861.6
1443.763965,18329
1447.224491,18171.6
1450.68016,17951.4
1454.130983,18444.2
1457.576971,18271.6
1461.018135,18449
1464.454486,18483.4
1467.886036,17882.4
1471.312794,17915
1474.734774,17664.2
1478.151985,18413.4
1481.564439,17943.2
1484.972146,17825.2
1488.375119,17322
1491.773368,17608.4
1495.166904,18364
1498.555739,17571.4
1501.939883,17704.6
1505.319349,17222.8
1508.694146,17577.4
1512.064286,17599
1515.429781,17543.2
1518.790642,17275.4
1522.146879,17612
1525.498505,16956.6
1528.845529,17127.2
1532.187965,17842.6
1535.525822,17476
1538.859112,17363.6
1542.187846,17990.4
1545.512036,16957.2
1548.831693,18392.8
1552.146829,17819.8
1555.457453,17102.6
1558.763579,16814.8
1562.065216,17297
1565.362377,17518.2
1568.655073,17910.2
1571.943315,17622
1575.227114,17491.4
1578.506482,17509.2
1581.781431,17904.6
1585.051971,17388.8
1588.318114,17357.4
1591.579872,17206.2
1594.837255,16860.4
1598.090275,16725.4
1601.338945,16439.2
1604.583274,16936.4
1607.823275,16453.6
1611.058959,15947.8
1614.290338,16692.2
1617.517422,15799.2
1620.740224,16143.8
1623.958755,15861.2
1627.173027,15761.8
1630.38305,15430.4
1633.588838,15772
1636.7904,15553.6
1639.987749,15769.2
1643.180896,15781.6
1646.369853,15205.6
1649.554632,16055.2
1652.735244,15329
1655.9117,14836.6
1659.084013,15212
1662.252193,15796
1665.416254,14979.2
1668.576205,15267.2
1671.732059,15418.8
1674.883828,15420.2
1678.031523,14885.4
1681.175157,14896.2
1684.314739,15081.6
1687.450284,14960.2
1690.581801,14804.8
1693.709304,14565.2
1696.832803,14580.4
1699.952311,14828.4
1703.067839,14808.4
1706.179399,14840.6
1709.287003,15115.2
1712.390663,14757.4
1715.49039,14759.4
1718.586197,15040.2
1721.678095,14787.2
1724.766096,14784.4
1727.850213,14220
1730.930456,14536.8
1734.006838,14390.8
1737.079372,14760.6
1740.148067,14232
1743.212938,15263.6
1746.273996,14506.4
1749.331252,14385.2
1752.384718,14477.8
1755.434408,14449
1758.480332,14442
1761.522503,14372.4
1764.560933,14087.8
1767.595634,13848.4
1770.626618,14586.8
1773.653896,14535.4
1776.677482,14120.4
1779.697388,14107.8
1782.713625,14713.4
1785.726205,14622.4
1788.735141,14553.2
1791.740445,14152
1794.742129,14016
1797.740206,14392.6
1800.734687,14498.6
1803.725585,14312.4
1806.712912,14278.6
1809.69668,13899.8
1812.676902,14049.4
1815.65359,13660.4
1818.626756,13907
1821.596413,14027
1824.562573,13636.4
1827.525247,13861
1830.48445,13710.2
1833.440192,13952.8
1836.392487,13829.4
1839.341347,14065.2
1842.286784,14026.4
1845.22881,13528.8
1848.167439,14157.6
1851.102682,13942.6
1854.034553,13805.4
1856.963063,13612
1859.888226,14545.8
1862.810053,13991.2
1865.728557,13754.6
1868.643751,13535.6
1871.555648,13549
1874.46426,13214.4
1877.369599,13944.8
1880.271679,13766.2
1883.170512,13542.8
1886.06611,14059.4
1888.958487,13640.6
1891.847655,13686
1894.733626,13845
1897.616414,13814
1900.496032,13457.8
1903.372491,13632
1906.245805,13974.6
1909.115987,14049.6
1911.983049,13929.4
1914.847004,13754.8
1917.707866,13905.6
1920.565646,13850.4
1923.420359,13465.8
1926.272016,13707.8
1929.120631,13497.4
1931.966216,13660.4
1934.808786,13540
1937.648351,13820.6
1940.484927,13767.4
1943.318525,13769
1946.149158,13980.6
1948.97684,15131.4
1951.801584,14014.4
1954.623403,13813.6
1957.44231,13902.8
1960.258318,13332.2
1963.071439,13450
1965.881688,13611.6
1968.689078,13743.8
1971.493621,13421
