Ramanshift[cm-1],Intensity
-93.47115107,14318.6
-87.69374369,13016.6
-81.9253076,12762.2
-76.16582701,13041.2
-70.41528615,13058
-64.67366933,12753
-58.94096086,12703.8
-53.21714512,12989
-47.50220652,13164.2
-41.79612954,13028.4
-36.09889866,13477.4
-30.41049843,13677.6
-24.73091343,13214
-19.0601283,13249.4
-13.39812769,13049.2
-7.744896327,12840.8
-2.100418946,12616.4
3.535319659,13285.8
9.162334658,12621
14.78064118,12931.8
20.39025432,12690
25.99118913,12608.8
31.58346061,13179.4
37.16708375,13022.8
42.74207347,12592.4
48.30844468,12689.4
53.86621222,12548
59.41539093,12182.8
64.95599558,12265
70.48804091,12633.6
76.01154164,12734
81.52651243,12071.2
87.03296792,12647.2
92.5309227,12925.8
98.02039134,12266.4
103.5013884,12524.6
108.9739282,12389.2
114.4380255,12406.4
119.8936944,12596.8
125.3409495,13575.6
130.779805,12323
136.2102753,12108.2
141.6323747,12124
147.0461174,12739.4
152.4515176,12380
157.8485895,12276.6
163.2373472,12165
168.6178049,12541.2
173.9899766,12815.4
179.3538764,12326.8
184.7095182,12358.8
190.0569161,12542.6
195.396084,12733.2
200.7270358,12135
206.0497854,12215
211.3643466,11977.2
216.6707333,12270
221.9689593,12022.4
227.2590382,12079.2
232.5409839,12123.4
237.8148101,11989.4
243.0805303,12144.4
248.3381582,12107
253.5877075,12004.8
258.8291917,12170.2
264.0626244,12250.2
269.288019,12399.6
274.5053891,12577.4
279.7147481,12334.4
284.9161094,12211.2
290.1094865,13168.8
295.2948927,15733.8
300.4723414,21886.6
305.6418459,29229.8
310.8034194,35989
315.9570752,40168.6
321.1028267,41278.2
326.2406869,42222.2
331.370669,42778.2
336.4927863,43758.8
341.6070517,44273
346.7134786,44964.2
351.8120798,45731.2
356.9028684,45590.8
361.9858576,45216.8
367.0610602,45667.4
372.1284892,45352.8
377.1881577,46548.6
382.2400784,48121.6
387.2842644,50898.2
392.3207284,53263.8
397.3494833,52827
402.370542,51725.4
407.3839172,49888
412.3896217,47650.2
417.3876683,45902.8
422.3780697,44899
427.3608386,43954.4
432.3359876,44318
437.3035295,44016.2
442.2634769,43829
447.2158423,42339
452.1606383,42205.8
457.0978776,42170
462.0275727,42087.2
466.9497361,42710.8
471.8643802,41821.4
476.7715176,42812
481.6711608,43909.8
486.5633221,45251.4
491.448014,44689.4
496.3252488,43668.2
501.195039,42499.6
506.0573969,42002.6
510.9123349,41088.4
515.7598651,40335.4
520.6,40575.6
525.4327518,40059.8
530.2581327,40089
535.076155,39516.8
539.8868309,40307.4
544.6901726,40302.2
549.4861922,39061.6
554.2749019,39500.6
559.0563139,38309.8
563.8304402,38055
568.597293,39153
573.3568844,38632.6
578.1092263,38246.2
582.8543308,38599.4
587.5922101,38519.6
592.322876,38028.6
597.0463405,38418.2
601.7626157,38633.8
606.4717135,38421.8
611.1736458,38333.2
615.8684246,38253.6
620.5560617,38549.6
625.2365691,38460.6
629.9099585,38990.8
634.5762419,39111
639.2354312,38997.2
643.887538,38917.4
648.5325743,38163
653.1705518,37599.4
657.8014823,37382.6
662.4253775,36560.6
667.0422493,37044.2
671.6521092,36975
676.2549691,37190.6
680.8508407,36889.6
685.4397355,36978
690.0216654,37031.2
694.5966419,36805.8
699.1646767,37689.8
703.7257814,37842.2
708.2799676,38515
712.827247,39456
717.367631,39338.6
721.9011314,38507
726.4277595,36930
730.9475271,36915.8
735.4604456,36608.4
739.9665264,37010.6
744.4657813,36410.2
748.9582215,36054.4
753.4438587,35547
757.9227042,35118.4
762.3947696,35289.8
766.8600662,34552.2
771.3186056,35959.2
775.770399,34842.8
780.215458,34941
784.6537939,34178.6
789.0854181,34133.8
793.510342,34136
797.9285769,34863.8
802.3401342,34634.4
806.7450253,34841
811.1432614,34804.8
815.5348538,34504.2
819.9198139,33806.4
824.2981531,33847.4
828.6698824,33696.6
833.0350133,33189
837.393557,32665
841.7455248,32810.2
846.0909278,32328.4
850.4297774,32486
854.7620848,32707
859.0878611,32856.2
863.4071176,31971.2
867.7198655,32750.2
872.026116,32798
876.3258802,33324.4
880.6191693,32837.4
884.9059946,32742.8
889.186367,33231.2
893.4602979,32143.2
897.7277982,32227.6
901.9888793,32739.8
906.2435521,33439.4
910.4918277,33131.2
914.7337174,33409.6
918.9692321,33961.2
923.1983831,34575.6
927.4211813,33826.8
931.6376378,34621.6
935.8477637,33969
940.0515701,34454.2
944.249068,34784.4
948.4402684,33909.8
952.6251825,34669
956.8038212,34535.6
960.9761955,35307.6
965.1423166,34563.2
969.3021953,34651.4
973.4558427,34502.2
977.6032699,34283.6
981.7444877,34291.6
985.8795072,34348.2
990.0083394,34525
994.1309953,34166.6
998.2474857,35231.4
1002.357822,35455
1006.462014,37326.4
1010.560075,36754.2
1014.652013,35669.4
1018.737841,34808
1022.81757,33909.4
1026.891209,33667.6
1030.958771,33507
1035.020266,34039.2
1039.075705,34431.2
1043.1251,34638.4
1047.16846,35618.4
1051.205797,36260.6
1055.237121,37774.6
1059.262444,41135.6
1063.281777,46906.2
1067.295131,55044
1071.302515,62653.8
1075.303942,63681.4
1079.299422,62133.6
1083.288966,54333.6
1087.272585,46240
1091.250289,40429
1095.222091,37732.6
1099.187999,35614.2
1103.148026,35367
1107.102183,35250.8
1111.050479,35514
1114.992927,36125.4
1118.929536,37362.6
1122.860318,40377.4
1126.785283,44303.8
1130.704443,52004.4
1134.617808,62540.6
1138.52539,64177.4
1142.427198,64233.6
1146.323244,64404.2
1150.213538,57341.4
1154.098093,48378.2
1157.976917,42342.2
1161.850023,40146
1165.717421,40062
1169.579121,39470.4
1173.435135,39680.2
1177.285474,38708.8
1181.130148,39470.6
1184.969169,40904
1188.802547,41322
1192.630292,40659.2
1196.452416,38439.6
1200.26893,36323.6
1204.079844,34520.8
1207.88517,33224
1211.684917,33473.8
1215.479098,32809.8
1219.267722,34672.6
1223.050801,32842.6
1226.828346,32925.2
1230.600366,33107.8
1234.366874,32965.4
1238.12788,32759.6
1241.883395,32933
1245.633429,33020.8
1249.377994,33094.2
1253.1171,32367.4
1256.850759,32597.2
1260.578981,32376.8
1264.301776,32437.2
1268.019157,32206.2
1271.731133,31840
1275.437715,31728.2
1279.138915,32325.8
1282.834743,32811
1286.52521,32269.8
1290.210328,32388.2
1293.890106,32842.8
1297.564555,34094.2
1301.233688,34128.6
1304.897514,34694
1308.556044,34360
1312.209289,33794.2
1315.857261,32851.8
1319.499969,32634
1323.137425,33333.2
1326.769641,32637
1330.396626,33197.2
1334.018391,32701.4
1337.634948,32878
1341.246307,32729
1344.85248,32810.6
1348.453477,32959
1352.049309,33223.2
1355.639987,33830.4
1359.225522,34731.8
1362.805925,34281.8
1366.381207,34429.4
1369.951379,34801.2
1373.516452,35482.6
1377.076436,36950.6
1380.631343,39354.8
1384.181184,42769
1387.725969,47034.2
1391.26571,48909.6
1394.800417,46656.2
1398.330102,41714.2
1401.854776,37298.4
1405.374448,34305.4
1408.889132,32927
1412.398837,32552.8
1415.903574,33651.2
1419.403355,36854.6
1422.89819,40503.6
1426.388091,45848.2
1429.873069,51870.4
1433.353134,55218
1436.828298,56044.2
1440.298571,53567.6
1443.763965,49128
1447.224491,43741
1450.68016,39513
1454.130983,36263.4
1457.576971,33958.8
1461.018135,32828.4
1464.454486,32342.8
1467.886036,32320.2
1471.312794,32853.2
1474.734774,32393
1478.151985,32197.2
1481.564439,30693.6
1484.972146,29843.6
1488.375119,28708.6
1491.773368,29118.6
1495.166904,29281.2
1498.555739,28443.2
1501.939883,28614
1505.319349,28062.8
1508.694146,28576.8
1512.064286,28717.2
1515.429781,28599
1518.790642,28371.6
1522.146879,28567
1525.498505,28035.2
1528.845529,28155.4
1532.187965,29226.6
1535.525822,29215.6
1538.859112,29495.2
1542.187846,30422
1545.512036,29708.2
1548.831693,31417.6
1552.146829,31603.8
1555.457453,31350.8
1558.763579,31735.4
1562.065216,33254.4
1565.362377,34767
1568.655073,36214.6
1571.943315,37305
1575.227114,38002.8
1578.506482,37745.8
1581.781431,37244
1585.051971,35150.4
1588.318114,33958
1591.579872,32146.2
1594.837255,30101.6
1598.090275,28348.2
1601.338945,27133.2
1604.583274,26626
1607.823275,25717
1611.058959,24811.2
1614.290338,25225.6
1617.517422,24049.8
1620.740224,24232.8
1623.958755,23619.8
1627.173027,23287.8
1630.38305,22691.4
1633.588838,22917.6
1636.7904,22358.6
1639.987749,22613.4
1643.180896,22494
1646.369853,21601.8
1649.554632,22446.6
1652.735244,21535.8
1655.9117,20987
1659.084013,21254.6
1662.252193,21839.4
1665.416254,20639.4
1668.576205,20957.2
1671.732059,21007.2
1674.883828,21159.2
1678.031523,20442.6
1681.175157,20453.8
1684.314739,20406
1687.450284,20200.2
1690.581801,19914.8
1693.709304,19750.2
1696.832803,19719.4
1699.952311,19958.8
1703.067839,19865.6
1706.179399,19824.6
1709.287003,20093.6
1712.390663,19682
1715.49039,19554
1718.586197,20041.6
1721.678095,19686
1724.766096,19590.2
1727.850213,18932.6
1730.930456,19217.4
1734.006838,18987.6
1737.079372,19169.4
1740.148067,18834
1743.212938,19817.4
1746.273996,18925.4
1749.331252,18753.6
1752.384718,18887.6
1755.434408,18751.4
1758.480332,18771.8
1761.522503,18691.2
1764.560933,18340.4
1767.595634,17967.4
1770.626618,18662.6
1773.653896,18666.8
1776.677482,18214.8
1779.697388,18104
1782.713625,18734
1785.726205,18651.2
1788.735141,18547.2
1791.740445,18051.6
1794.742129,18015.4
1797.740206,18508.8
1800.734687,18508.6
1803.725585,18314.8
1806.712912,18182.4
1809.69668,17942.6
1812.676902,17915.4
1815.65359,17605
1818.626756,17692.2
1821.596413,17870.4
1824.562573,17461.4
1827.525247,17862.2
1830.48445,17676.4
1833.440192,17692
1836.392487,17580.4
1839.341347,17793.6
1842.286784,17747.2
1845.22881,17239.8
1848.167439,17825
1851.102682,17620.4
1854.034553,17578.4
1856.963063,17364.6
1859.888226,18204.2
1862.810053,17595.8
1865.728557,17394.8
1868.643751,17159
1871.555648,17222.6
1874.46426,16848.2
1877.369599,17577.6
1880.271679,17228.2
1883.170512,17066.2
1886.06611,17562
1888.958487,17380.6
1891.847655,17104.2
1894.733626,17318.8
1897.616414,17355.8
1900.496032,16900.2
1903.372491,17112.2
1906.245805,17471
1909.115987,17358.8
1911.983049,17410.8
1914.847004,17220.6
1917.707866,17418.8
1920.565646,17116.2
1923.420359,16892.2
1926.272016,16919.6
1929.120631,16815.8
1931.966216,16978.6
1934.808786,16874.6
1937.648351,17052.8
1940.484927,17003.4
1943.318525,16905.6
1946.149158,17182
1948.97684,18325.2
1951.801584,17104.4
1954.623403,16952.2
1957.44231,17020.6
1960.258318,16498.8
1963.071439,16470.4
1965.881688,16814.8
1968.689078,16875.6
1971.493621,16540.6
