Ramanshift[cm-1],Intensity
-93.47115107,14331.4
-87.69374369,13023.6
-81.9253076,12809
-76.16582701,12974.6
-70.41528615,12990.4
-64.67366933,12592
-58.94096086,12724.2
-53.21714512,12925.6
-47.50220652,12987.6
-41.79612954,13014.8
-36.09889866,13482.4
-30.41049843,13637
-24.73091343,13203.2
-19.0601283,13275.4
-13.39812769,12972.6
-7.744896327,12799
-2.100418946,12577.8
3.535319659,13297.2
9.162334658,12727.8
14.78064118,13063.4
20.39025432,12601.2
25.99118913,12669.2
31.58346061,13102.4
37.16708375,12996
42.74207347,12574.4
48.30844468,12601
53.86621222,12471
59.41539093,12135.6
64.95599558,12080.6
70.48804091,12533.6
76.01154164,12705
81.52651243,12076.2
87.03296792,12590.4
92.5309227,12843
98.02039134,12236.8
103.5013884,12497.6
108.9739282,12377
114.4380255,12347
119.8936944,12502.2
125.3409495,13524
130.779805,12273
136.2102753,12085.4
141.6323747,12133.2
147.0461174,12694.6
152.4515176,12162
157.8485895,12191.6
163.2373472,12129.6
168.6178049,12424.6
173.9899766,12632.4
179.3538764,12182
184.7095182,12377.8
190.0569161,12547.6
195.396084,12687.2
200.7270358,12147.6
206.0497854,12175.4
211.3643466,11927.6
216.6707333,12291.8
221.9689593,11859.4
227.2590382,12001.2
232.5409839,12071.4
237.8148101,11992.4
243.0805303,12088.4
248.3381582,12153.2
253.5877075,11858
258.8291917,12107.2
264.0626244,12231.6
269.288019,12315.4
274.5053891,12462.8
279.7147481,12133.8
284.9161094,11943
290.1094865,12218.2
295.2948927,13177.4
300.4723414,15332.2
305.6418459,17242.2
310.8034194,19017.4
315.9570752,20697.6
321.1028267,21048.2
326.2406869,21355.6
331.370669,21347
336.4927863,21555.4
341.6070517,21735.6
346.7134786,21796
351.8120798,22078.6
356.9028684,21711.6
361.9858576,21869
367.0610602,22109.4
372.1284892,21746.6
377.1881577,22284
382.2400784,22479.8
387.2842644,22819.2
392.3207284,23444.4
397.3494833,22792
402.370542,22690.8
407.3839172,22092.6
412.3896217,21507.8
417.3876683,21161
422.3780697,21142.2
427.3608386,21016.6
432.3359876,21398
437.3035295,21252.2
442.2634769,21401.2
447.2158423,20629.8
452.1606383,20690.8
457.0978776,20864.2
462.0275727,20071.6
466.9497361,20716.8
471.8643802,20132.2
476.7715176,20640.8
481.6711608,20683
486.5633221,21031.6
491.448014,20900.4
496.3252488,20839.2
501.195039,20729.4
506.0573969,21047.4
510.9123349,20638.6
515.7598651,19947.6
520.6,20362.8
525.4327518,20275
530.2581327,20295.6
535.076155,19622.8
539.8868309,20218.8
544.6901726,20264.8
549.4861922,19853.4
554.2749019,20633.6
559.0563139,19707.4
563.8304402,19498.8
568.597293,20610.4
573.3568844,20239.4
578.1092263,19751
582.8543308,20107
587.5922101,20082.4
592.322876,19610.8
597.0463405,19858.6
601.7626157,20209.2
606.4717135,19633
611.1736458,19690.6
615.8684246,19795.6
620.5560617,20090.6
625.2365691,19791.8
629.9099585,20070
634.5762419,20464.6
639.2354312,19599
643.887538,19934.6
648.5325743,19666.8
653.1705518,19595.2
657.8014823,19819.2
662.4253775,19157.2
667.0422493,19612.8
671.6521092,19528.6
676.2549691,19709.2
680.8508407,19447.2
685.4397355,19491.4
690.0216654,19455.4
694.5966419,19169.8
699.1646767,19712.6
703.7257814,19437.4
708.2799676,19516.6
712.827247,19572.8
717.367631,19365.8
721.9011314,19327.2
726.4277595,18605.6
730.9475271,19320.6
735.4604456,19115.8
739.9665264,19565.8
744.4657813,19163.2
748.9582215,19029.4
753.4438587,18491
757.9227042,18408.2
762.3947696,18881.2
766.8600662,18375.8
771.3186056,19832.2
775.770399,18729.6
780.215458,19036.4
784.6537939,18334.6
789.0854181,18211.2
793.510342,18314.8
797.9285769,18941.8
802.3401342,18251.4
806.7450253,18412.4
811.1432614,18267.6
815.5348538,18108
819.9198139,17807.6
824.2981531,18122.4
828.6698824,18188.8
833.0350133,17992.8
837.393557,17608.4
841.7455248,18044
846.0909278,17664.8
850.4297774,17821.6
854.7620848,17907.4
859.0878611,17922.8
863.4071176,17338.2
867.7198655,17744.4
872.026116,18265.2
876.3258802,18712
880.6191693,18121.2
884.9059946,18282
889.186367,18763.8
893.4602979,17382.8
897.7277982,17409
901.9888793,17748.8
906.2435521,18318.2
910.4918277,17532
914.7337174,17486
918.9692321,17542.6
923.1983831,18137.4
927.4211813,17914.2
931.6376378,18438
935.8477637,18004.4
940.0515701,18126.6
944.249068,18210.4
948.4402684,17361
952.6251825,18147.2
956.8038212,17746.2
960.9761955,18368.2
965.1423166,17822
969.3021953,17863
973.4558427,17908.4
977.6032699,17601.4
981.7444877,17786.8
985.8795072,17652.4
990.0083394,17905.2
994.1309953,17562.6
998.2474857,17841.2
1002.357822,17009.6
1006.462014,17623.2
1010.560075,17375.8
1014.652013,17822.8
1018.737841,18128.4
1022.81757,17609
1026.891209,17513
1030.958771,17365
1035.020266,17799.8
1039.075705,17449
1043.1251,17165.4
1047.16846,17336
1051.205797,17397.2
1055.237121,17088.6
1059.262444,16997.8
1063.281777,17023
1067.295131,17563.2
1071.302515,19155.6
1075.303942,18820.8
1079.299422,19639.6
1083.288966,18773.2
1087.272585,18220.6
1091.250289,17743.6
1095.222091,17626.6
1099.187999,17165.8
1103.148026,17333.2
1107.102183,17140.8
1111.050479,17248.2
1114.992927,17182.8
1118.929536,17028.6
1122.860318,17567.6
1126.785283,17225.6
1130.704443,17277
1134.617808,18175.2
1138.52539,18365.8
1142.427198,18249.6
1146.323244,18091.8
1150.213538,17552.8
1154.098093,17773.4
1157.976917,17243.6
1161.850023,16989.8
1165.717421,17702.8
1169.579121,17289.2
1173.435135,17652.6
1177.285474,16763.8
1181.130148,17107.2
1184.969169,17407.8
1188.802547,17245.4
1192.630292,16815.6
1196.452416,16507.4
1200.26893,16664.4
1204.079844,16286.6
1207.88517,15969.4
1211.684917,16586.8
1215.479098,16194
1219.267722,17827.2
1223.050801,16148
1226.828346,16210.8
1230.600366,16590
1234.366874,16496
1238.12788,16257.6
1241.883395,16497.6
1245.633429,16657.2
1249.377994,16775.4
1253.1171,15989.6
1256.850759,16346.8
1260.578981,16381.8
1264.301776,16328
1268.019157,16251
1271.731133,15970.4
1275.437715,15879.8
1279.138915,16513.2
1282.834743,16742.6
1286.52521,16295.2
1290.210328,15961.2
1293.890106,16307.6
1297.564555,16784.8
1301.233688,16109.8
1304.897514,16658.6
1308.556044,16639.8
1312.209289,16782.6
1315.857261,16169.8
1319.499969,16298.2
1323.137425,17158.8
1326.769641,16585.4
1330.396626,17314.8
1334.018391,16750.6
1337.634948,16838.6
1341.246307,16554.2
1344.85248,16560.8
1348.453477,16269.4
1352.049309,16312.2
1355.639987,16336.6
1359.225522,17029
1362.805925,16396.2
1366.381207,16525.4
1369.951379,16605.4
1373.516452,16647.6
1377.076436,16939.6
1380.631343,16579.6
1384.181184,16503.6
1387.725969,16677
1391.26571,16394.4
1394.800417,16319.6
1398.330102,16590
1401.854776,16834.4
1405.374448,16600.6
1408.889132,16190
1412.398837,15606.6
1415.903574,15977.8
1419.403355,16560
1422.89819,16211.2
1426.388091,15964.8
1429.873069,16574.8
1433.353134,15909.6
1436.828298,15990.6
1440.298571,16001.8
1443.763965,15607.8
1447.224491,15410.6
1450.68016,15413
1454.130983,15898.8
1457.576971,15652.6
1461.018135,15784
1464.454486,15849
1467.886036,15323
1471.312794,15277.8
1474.734774,15071
1478.151985,15812.8
1481.564439,15452.6
1484.972146,15235.6
1488.375119,14949.6
1491.773368,15237.4
1495.166904,15978.4
1498.555739,15079.6
1501.939883,15298.4
1505.319349,14780.2
1508.694146,15124.2
1512.064286,15159.2
1515.429781,15104.2
1518.790642,14928.2
1522.146879,15305.2
1525.498505,14659.2
1528.845529,14633.6
1532.187965,15306.6
1535.525822,14999.8
1538.859112,15015
1542.187846,15599.4
1545.512036,14591.4
1548.831693,15938.4
1552.146829,15489.4
1555.457453,14895.2
1558.763579,14345.4
1562.065216,14810
1565.362377,15177
1568.655073,15578.6
1571.943315,15305.4
1575.227114,15385.6
1578.506482,15418.8
1581.781431,15963.2
1585.051971,15541
1588.318114,15424
1591.579872,15351
1594.837255,15044.6
1598.090275,14673.4
1601.338945,14635
1604.583274,15056.4
1607.823275,14619.8
1611.058959,14140.2
1614.290338,14940.2
1617.517422,13990.2
1620.740224,14411
1623.958755,14082.4
1627.173027,14069.6
1630.38305,13727
1633.588838,14073.8
1636.7904,13895
1639.987749,14149.2
1643.180896,14232.4
1646.369853,13580.2
1649.554632,14347.6
1652.735244,13727.2
1655.9117,13315.2
1659.084013,13707.6
1662.252193,14337.8
1665.416254,13398.4
1668.576205,13678.2
1671.732059,13939.2
1674.883828,13907
1678.031523,13383.2
1681.175157,13560.4
1684.314739,13574.2
1687.450284,13364.6
1690.581801,13299.8
1693.709304,13135.6
1696.832803,13119.8
1699.952311,13263
1703.067839,13233.2
1706.179399,13223.2
1709.287003,13761.4
1712.390663,13256.8
1715.49039,13399
1718.586197,13584.8
1721.678095,13493.2
1724.766096,13439.4
1727.850213,12782.8
1730.930456,13171
1734.006838,12991.4
1737.079372,13261.4
1740.148067,12920
1743.212938,13958.2
1746.273996,13101
1749.331252,13151
1752.384718,13061.2
1755.434408,13177.6
1758.480332,13205.6
1761.522503,13140.8
1764.560933,12818
1767.595634,12522.6
1770.626618,13363.8
1773.653896,13372.6
1776.677482,12926.2
1779.697388,12908.4
1782.713625,13397.6
1785.726205,13342.4
1788.735141,13399.8
1791.740445,12929.4
1794.742129,12805.2
1797.740206,13340.4
1800.734687,13303.2
1803.725585,13087.4
1806.712912,12977.8
1809.69668,12804.6
1812.676902,12859.8
1815.65359,12561
1818.626756,12661.4
1821.596413,12818.6
1824.562573,12437.6
1827.525247,12888
1830.48445,12620
1833.440192,12768.6
1836.392487,12674.6
1839.341347,12816.8
1842.286784,12858.4
1845.22881,12416.2
1848.167439,12974.4
1851.102682,12757.6
1854.034553,12800.4
1856.963063,12459.4
1859.888226,13409.6
1862.810053,12928.4
1865.728557,12762.6
1868.643751,12359.8
1871.555648,12513
1874.46426,12254.2
1877.369599,12941.2
1880.271679,12655.6
1883.170512,12546.4
1886.06611,13023
1888.958487,12661.2
1891.847655,12696.6
1894.733626,12786.6
1897.616414,12885.2
1900.496032,12404.4
1903.372491,12785.2
1906.245805,13002.4
1909.115987,13051.6
1911.983049,12883
1914.847004,12807
1917.707866,13049
1920.565646,13019.4
1923.420359,12448.8
1926.272016,12844.8
1929.120631,12475.2
1931.966216,12710
1934.808786,12651.8
1937.648351,12899.8
1940.484927,12748.2
1943.318525,12852.4
1946.149158,13157.2
1948.97684,14179.8
1951.801584,13048.2
1954.623403,12917
1957.44231,12937.4
1960.258318,12409.8
1963.071439,12358.8
1965.881688,12793
1968.689078,12902.6
1971.493621,12691.2
