Ramanshift[cm-1],Intensity
-93.47115107,14315.6
-87.69374369,13056.4
-81.9253076,12801
-76.16582701,12880.2
-70.41528615,12996
-64.67366933,12670.6
-58.94096086,12733.8
-53.21714512,12944.8
-47.50220652,12999.4
-41.79612954,12988.8
-36.09889866,13525.8
-30.41049843,13536.4
-24.73091343,13278
-19.0601283,13238
-13.39812769,13047.6
-7.744896327,12767
-2.100418946,12586.4
3.535319659,13272
9.162334658,12549.2
14.78064118,12961.2
20.39025432,12670.2
25.99118913,12661
31.58346061,13202.6
37.16708375,12959.2
42.74207347,12569.4
48.30844468,12746.2
53.86621222,12520.6
59.41539093,12229.2
64.95599558,12094.2
70.48804091,12529.2
76.01154164,12610.4
81.52651243,12028.4
87.03296792,12585.8
92.5309227,12918.6
98.02039134,12282.2
103.5013884,12534.8
108.9739282,12361
114.4380255,12455.6
119.8936944,12513.4
125.3409495,13448.2
130.779805,12267.4
136.2102753,12054
141.6323747,12110.6
147.0461174,12718.2
152.4515176,12328.4
157.8485895,12219.6
163.2373472,12082.8
168.6178049,12569.6
173.9899766,12753
179.3538764,12244
184.7095182,12315.6
190.0569161,12578.4
195.396084,12664.6
200.7270358,12091.8
206.0497854,12192.4
211.3643466,11965.8
216.6707333,12344
221.9689593,11866.2
227.2590382,12134.4
232.5409839,12109.8
237.8148101,11985.6
243.0805303,12082.6
248.3381582,12065.6
253.5877075,11885.8
258.8291917,11994.6
264.0626244,12147
269.288019,12365.2
274.5053891,12540.2
279.7147481,12130.2
284.9161094,11945
290.1094865,12282.8
295.2948927,13263.8
300.4723414,15425.4
305.6418459,17481
310.8034194,19376.2
315.9570752,21086.8
321.1028267,21330.6
326.2406869,21554.6
331.370669,21841.2
336.4927863,21958.4
341.6070517,22062.4
346.7134786,22116.6
351.8120798,22629.8
356.9028684,22257
361.9858576,22192.6
367.0610602,22452.8
372.1284892,22175.6
377.1881577,22647.4
382.2400784,22741
387.2842644,23318.2
392.3207284,23942.4
397.3494833,23436.4
402.370542,23418.8
407.3839172,22726
412.3896217,22127.6
417.3876683,21507
422.3780697,21417.6
427.3608386,21357.2
432.3359876,21671.2
437.3035295,21738.8
442.2634769,21823.2
447.2158423,20997.2
452.1606383,21224.4
457.0978776,21461.8
462.0275727,20613.4
466.9497361,21099.2
471.8643802,20404.2
476.7715176,21061.6
481.6711608,20912
486.5633221,21429.8
491.448014,21241
496.3252488,21217.8
501.195039,21221.4
506.0573969,21380
510.9123349,20965.4
515.7598651,20325.8
520.6,20926.2
525.4327518,20557.4
530.2581327,20696.4
535.076155,20076.6
539.8868309,20329.4
544.6901726,20523.8
549.4861922,20230.6
554.2749019,21018.2
559.0563139,20039.2
563.8304402,19767.6
568.597293,20990
573.3568844,20456.6
578.1092263,20024.2
582.8543308,20421.4
587.5922101,20466.2
592.322876,20057.4
597.0463405,20224.2
601.7626157,20512
606.4717135,20112.2
611.1736458,19975.6
615.8684246,20069.8
620.5560617,20481.6
625.2365691,20203.2
629.9099585,20537.6
634.5762419,20763
639.2354312,19965.2
643.887538,20163.6
648.5325743,19949.4
653.1705518,19836
657.8014823,20119.2
662.4253775,19446.2
667.0422493,19897.8
671.6521092,19844
676.2549691,19990.6
680.8508407,19864.4
685.4397355,19767
690.0216654,19606.2
694.5966419,19387.4
699.1646767,19944.6
703.7257814,19718.8
708.2799676,19891.6
712.827247,19925.8
717.367631,19666.2
721.9011314,19760.6
726.4277595,18991.6
730.9475271,19602.4
735.4604456,19419.2
739.9665264,19858.2
744.4657813,19181.6
748.9582215,19352.2
753.4438587,18807
757.9227042,18553.4
762.3947696,19078
766.8600662,18596.8
771.3186056,20216.4
775.770399,18905.6
780.215458,19348.2
784.6537939,18492.2
789.0854181,18337.4
793.510342,18477
797.9285769,19087.6
802.3401342,18515.6
806.7450253,18683.2
811.1432614,18508.2
815.5348538,18312.2
819.9198139,17965.4
824.2981531,18260.8
828.6698824,18331.4
833.0350133,18106.8
837.393557,17904.6
841.7455248,18255.6
846.0909278,18010.2
850.4297774,18011
854.7620848,18035.4
859.0878611,18340
863.4071176,17632.6
867.7198655,18239.6
872.026116,18384.2
876.3258802,18710.8
880.6191693,18410.4
884.9059946,18459.8
889.186367,18893.4
893.4602979,17569.8
897.7277982,17587.8
901.9888793,18028.2
906.2435521,18404
910.4918277,17745.6
914.7337174,17793
918.9692321,17709
923.1983831,18434.4
927.4211813,17907
931.6376378,18683.2
935.8477637,18079.8
940.0515701,18308.4
944.249068,18355.2
948.4402684,17482
952.6251825,18358.4
956.8038212,17828.4
960.9761955,18549
965.1423166,17916.6
969.3021953,18003.2
973.4558427,18097.2
977.6032699,17770
981.7444877,17918.6
985.8795072,17862.2
990.0083394,18110.8
994.1309953,17706.4
998.2474857,18065.2
1002.357822,17290.8
1006.462014,17865
1010.560075,17655.6
1014.652013,17951.6
1018.737841,18276.8
1022.81757,17831.4
1026.891209,17740.2
1030.958771,17662.8
1035.020266,18085.4
1039.075705,17599
1043.1251,17398.4
1047.16846,17524.6
1051.205797,17575
1055.237121,17260.8
1059.262444,17366.4
1063.281777,17318.8
1067.295131,17864.2
1071.302515,19325.4
1075.303942,19094.8
1079.299422,20080.6
1083.288966,19185
1087.272585,18500
1091.250289,17967.2
1095.222091,17906.2
1099.187999,17408.4
1103.148026,17537.6
1107.102183,17308.4
1111.050479,17456.8
1114.992927,17400
1118.929536,17360.4
1122.860318,17724.8
1126.785283,17339.2
1130.704443,17357.6
1134.617808,18629.6
1138.52539,18573.4
1142.427198,18658
1146.323244,18398.6
1150.213538,17844.8
1154.098093,18015
1157.976917,17369.2
1161.850023,17203.6
1165.717421,17741.2
1169.579121,17560.6
1173.435135,17971
1177.285474,17157.6
1181.130148,17365.6
1184.969169,17676
1188.802547,17517.4
1192.630292,17089.4
1196.452416,16762
1200.26893,16839.4
1204.079844,16466
1207.88517,16069.4
1211.684917,16824.8
1215.479098,16271.8
1219.267722,17975.8
1223.050801,16342.6
1226.828346,16465.8
1230.600366,16677.4
1234.366874,16549.6
1238.12788,16405.4
1241.883395,16544.4
1245.633429,16756.8
1249.377994,16820
1253.1171,16005
1256.850759,16549.4
1260.578981,16435.4
1264.301776,16519.4
1268.019157,16425.4
1271.731133,16060
1275.437715,16055.4
1279.138915,16644.6
1282.834743,16849.6
1286.52521,16299.4
1290.210328,16173
1293.890106,16305
1297.564555,16773
1301.233688,16154.4
1304.897514,16578.8
1308.556044,16807.8
1312.209289,16627.4
1315.857261,16236
1319.499969,16381.8
1323.137425,17241.2
1326.769641,16693.4
1330.396626,17380.8
1334.018391,16742.8
1337.634948,17019.6
1341.246307,16645.2
1344.85248,16465.8
1348.453477,16400.4
1352.049309,16455
1355.639987,16264.2
1359.225522,17019.6
1362.805925,16514.8
1366.381207,16485
1369.951379,16519
1373.516452,16639.8
1377.076436,16852.8
1380.631343,16554.8
1384.181184,16603.2
1387.725969,16821.8
1391.26571,16613.4
1394.800417,16409.8
1398.330102,16509
1401.854776,16567
1405.374448,16318.2
1408.889132,16012.8
1412.398837,15519.4
1415.903574,15885.8
1419.403355,16509
1422.89819,16190.4
1426.388091,16103.6
1429.873069,16739.8
1433.353134,16212.6
1436.828298,16155.8
1440.298571,16131.2
1443.763965,15741.4
1447.224491,15476
1450.68016,15433
1454.130983,15754.4
1457.576971,15650.2
1461.018135,15887.8
1464.454486,15878.8
1467.886036,15417
1471.312794,15510
1474.734774,15067.2
1478.151985,15845.2
1481.564439,15445.2
1484.972146,15364.4
1488.375119,15032.6
1491.773368,15334.4
1495.166904,15962.8
1498.555739,15173.8
1501.939883,15277
1505.319349,14796.8
1508.694146,15256
1512.064286,15331.4
1515.429781,15245.4
1518.790642,15017.4
1522.146879,15476
1525.498505,14835.6
1528.845529,14776.4
1532.187965,15417.2
1535.525822,15079.2
1538.859112,14944
1542.187846,15632
1545.512036,14677.8
1548.831693,15882
1552.146829,15398
1555.457453,14834.4
1558.763579,14378.4
1562.065216,14952.8
1565.362377,15354.4
1568.655073,15600.2
1571.943315,15344
1575.227114,15451.8
1578.506482,15414.6
1581.781431,16028.2
1585.051971,15474.4
1588.318114,15566.6
1591.579872,15386.8
1594.837255,15087.6
1598.090275,14858.6
1601.338945,14665.2
1604.583274,15101.2
1607.823275,14625.4
1611.058959,14208.4
1614.290338,14939.6
1617.517422,14103.8
1620.740224,14432
1623.958755,14012.8
1627.173027,14187.4
1630.38305,13764
1633.588838,14143.8
1636.7904,13907.4
1639.987749,14166.8
1643.180896,14265
1646.369853,13690.4
1649.554632,14506.2
1652.735244,13791
1655.9117,13359.6
1659.084013,13729.4
1662.252193,14404.6
1665.416254,13482.8
1668.576205,13755.2
1671.732059,13970.4
1674.883828,13962.6
1678.031523,13442.2
1681.175157,13531.8
1684.314739,13584.2
1687.450284,13356.8
1690.581801,13331.6
1693.709304,13164.6
1696.832803,13227.8
1699.952311,13449.2
1703.067839,13346
1706.179399,13314.8
1709.287003,13722.6
1712.390663,13217.8
1715.49039,13358.4
1718.586197,13678
1721.678095,13427.6
1724.766096,13444.8
1727.850213,12833.8
1730.930456,13283
1734.006838,12992.4
1737.079372,13328.6
1740.148067,12967.2
1743.212938,14110.6
1746.273996,13197
1749.331252,13270.4
1752.384718,13135.8
1755.434408,13224.2
1758.480332,13160.8
1761.522503,13189.8
1764.560933,12931.8
1767.595634,12628.6
1770.626618,13354.6
1773.653896,13344
1776.677482,12989.6
1779.697388,12965.8
1782.713625,13493.4
1785.726205,13422.6
1788.735141,13401.8
1791.740445,12897
1794.742129,12776
1797.740206,13336
1800.734687,13342.6
1803.725585,13222.6
1806.712912,13084.2
1809.69668,12837.6
1812.676902,12906.8
1815.65359,12622.6
1818.626756,12666
1821.596413,12882.2
1824.562573,12563.4
1827.525247,12899
1830.48445,12735.6
1833.440192,12911.6
1836.392487,12709.6
1839.341347,12911.6
1842.286784,12949.8
1845.22881,12391.2
1848.167439,13036.4
1851.102682,12771.4
1854.034553,12770.4
1856.963063,12591.2
1859.888226,13520.6
1862.810053,13012
1865.728557,12720.8
1868.643751,12535
1871.555648,12493.6
1874.46426,12296.8
1877.369599,12862
1880.271679,12630
1883.170512,12679.2
1886.06611,13166.2
1888.958487,12695.2
1891.847655,12686.2
1894.733626,12857
1897.616414,12918.6
1900.496032,12358.2
1903.372491,12750.4
1906.245805,13051.6
1909.115987,13051.2
1911.983049,13021.2
1914.847004,12840.2
1917.707866,12993.6
1920.565646,13012.2
1923.420359,12553.2
1926.272016,12801.4
1929.120631,12617.6
1931.966216,12727.8
1934.808786,12655
1937.648351,12962.6
1940.484927,12761.6
1943.318525,12925.2
1946.149158,13186.6
1948.97684,14186.8
1951.801584,13138.2
1954.623403,12871
1957.44231,13075.8
1960.258318,12594.2
1963.071439,12505.8
1965.881688,12702.6
1968.689078,12945
1971.493621,12628
