Ramanshift[cm-1],Intensity
-93.47115107,14368.8
-87.69374369,13058.8
-81.9253076,12814.4
-76.16582701,12972.6
-70.41528615,12909.4
-64.67366933,12743.4
-58.94096086,12730.8
-53.21714512,12894.2
-47.50220652,13032.4
-41.79612954,13033.2
-36.09889866,13467.2
-30.41049843,13601.8
-24.73091343,13230
-19.0601283,13242.6
-13.39812769,13060.8
-7.744896327,12869.8
-2.100418946,12607.8
3.535319659,13230.2
9.162334658,12616
14.78064118,12978.2
20.39025432,12576.4
25.99118913,12707.4
31.58346061,13153.2
37.16708375,13050.6
42.74207347,12640.2
48.30844468,12633.2
53.86621222,12644.2
59.41539093,12132.6
64.95599558,12223.4
70.48804091,12536
76.01154164,12692.4
81.52651243,12051.6
87.03296792,12612.6
92.5309227,12904.6
98.02039134,12219.2
103.5013884,12614.4
108.9739282,12318.8
114.4380255,12421
119.8936944,12538
125.3409495,13536.8
130.779805,12311.4
136.2102753,12054
141.6323747,12110.8
147.0461174,12772.2
152.4515176,12306.2
157.8485895,12210.8
163.2373472,12144.2
168.6178049,12399.8
173.9899766,12760.2
179.3538764,12269.6
184.7095182,12340.2
190.0569161,12520.6
195.396084,12747
200.7270358,12166.2
206.0497854,12236.2
211.3643466,11925.6
216.6707333,12311
221.9689593,11903.6
227.2590382,12054.8
232.5409839,12106.2
237.8148101,11990.4
243.0805303,12087
248.3381582,12141.6
253.5877075,11881.8
258.8291917,12100.6
264.0626244,12114.8
269.288019,12387.8
274.5053891,12533.6
279.7147481,12215.2
284.9161094,11855.6
290.1094865,12145.6
295.2948927,12809.2
300.4723414,14321.6
305.6418459,15383.4
310.8034194,16532.6
315.9570752,17793.6
321.1028267,17989.2
326.2406869,18120.6
331.370669,18372
336.4927863,18285
341.6070517,18480.4
346.7134786,18338.8
351.8120798,18619.6
356.9028684,18211.8
361.9858576,18349
367.0610602,18710.6
372.1284892,18441.6
377.1881577,18897
382.2400784,18905.6
387.2842644,19433.6
392.3207284,19957.2
397.3494833,19379
402.370542,19388.4
407.3839172,18879.4
412.3896217,18322.4
417.3876683,17995
422.3780697,17851.4
427.3608386,17915.4
432.3359876,18339.2
437.3035295,18248.4
442.2634769,18458.6
447.2158423,17719.8
452.1606383,17569
457.0978776,17875.4
462.0275727,17229.6
466.9497361,17866
471.8643802,17202.6
476.7715176,17761
481.6711608,17640.6
486.5633221,17888.4
491.448014,17867
496.3252488,17631.4
501.195039,17750
506.0573969,17991.2
510.9123349,17708.8
515.7598651,16969
520.6,17712.8
525.4327518,17539.2
530.2581327,17538.2
535.076155,16991.4
539.8868309,17456.8
544.6901726,17611
549.4861922,17328.4
554.2749019,18062.4
559.0563139,17304.2
563.8304402,17010.6
568.597293,18011.4
573.3568844,17782
578.1092263,17171.8
582.8543308,17656.8
587.5922101,17642.6
592.322876,17262.2
597.0463405,17303.8
601.7626157,17559.2
606.4717135,17215.2
611.1736458,17070.4
615.8684246,17279.8
620.5560617,17567.4
625.2365691,17244.2
629.9099585,17681.4
634.5762419,17810.6
639.2354312,17324.4
643.887538,17504.4
648.5325743,17211
653.1705518,17211.2
657.8014823,17364.6
662.4253775,16566.2
667.0422493,16923.4
671.6521092,16926
676.2549691,17287.4
680.8508407,17098.2
685.4397355,16863.4
690.0216654,17146
694.5966419,16907.2
699.1646767,17506.8
703.7257814,17022.8
708.2799676,17122
712.827247,17312.4
717.367631,17080.6
721.9011314,17068.2
726.4277595,16422.2
730.9475271,17047.2
735.4604456,17027.4
739.9665264,17533.4
744.4657813,16902.6
748.9582215,16918.2
753.4438587,16325.4
757.9227042,16217.4
762.3947696,16828.6
766.8600662,16400.8
771.3186056,17820.2
775.770399,16720.2
780.215458,17144.2
784.6537939,16354.6
789.0854181,16251.2
793.510342,16344.6
797.9285769,17022
802.3401342,16325
806.7450253,16507.4
811.1432614,16587.2
815.5348538,16238.8
819.9198139,15945.4
824.2981531,16296.4
828.6698824,16382.6
833.0350133,16212.4
837.393557,15881
841.7455248,16279.2
846.0909278,16046.8
850.4297774,16030.6
854.7620848,16104.8
859.0878611,16316.4
863.4071176,15721.4
867.7198655,16279.8
872.026116,16590.2
876.3258802,16989
880.6191693,16507
884.9059946,16425.4
889.186367,16846.2
893.4602979,15747.4
897.7277982,15763
901.9888793,16108.6
906.2435521,16519.6
910.4918277,15906.4
914.7337174,15803.2
918.9692321,15674.2
923.1983831,16349.8
927.4211813,15883
931.6376378,16602
935.8477637,16083.8
940.0515701,16286
944.249068,16264.4
948.4402684,15532.8
952.6251825,16332
956.8038212,15945.2
960.9761955,16704.6
965.1423166,16152.6
969.3021953,16131
973.4558427,16096
977.6032699,15922.4
981.7444877,16002
985.8795072,15968
990.0083394,16104.4
994.1309953,15740.4
998.2474857,16122.2
1002.357822,15317
1006.462014,15988.4
1010.560075,15719.6
1014.652013,16077.2
1018.737841,16337.6
1022.81757,15779
1026.891209,15734
1030.958771,15662.4
1035.020266,16023
1039.075705,15753.8
1043.1251,15437.8
1047.16846,15749.6
1051.205797,15674.2
1055.237121,15329
1059.262444,15401.4
1063.281777,15151.8
1067.295131,15548.8
1071.302515,16938
1075.303942,16707
1079.299422,17598.6
1083.288966,16983.2
1087.272585,16443.4
1091.250289,16094.8
1095.222091,15819.6
1099.187999,15431.4
1103.148026,15516.2
1107.102183,15457.8
1111.050479,15622.8
1114.992927,15569.2
1118.929536,15388.6
1122.860318,15840
1126.785283,15258.8
1130.704443,15388.2
1134.617808,16106.2
1138.52539,16315.2
1142.427198,16265.4
1146.323244,16238.4
1150.213538,15638.6
1154.098093,15952.4
1157.976917,15181
1161.850023,15130
1165.717421,15728
1169.579121,15383.6
1173.435135,15690.2
1177.285474,14873.2
1181.130148,15196.6
1184.969169,15551
1188.802547,15611.2
1192.630292,15181.2
1196.452416,14805.4
1200.26893,14904
1204.079844,14619.2
1207.88517,14185.2
1211.684917,14875.6
1215.479098,14409.6
1219.267722,16086
1223.050801,14535.6
1226.828346,14528.4
1230.600366,14954
1234.366874,14767.2
1238.12788,14641.6
1241.883395,14646.8
1245.633429,15036.4
1249.377994,14959
1253.1171,14141.2
1256.850759,14612.2
1260.578981,14632.6
1264.301776,14596
1268.019157,14514.6
1271.731133,14343
1275.437715,14131.4
1279.138915,14677.6
1282.834743,14986.4
1286.52521,14419.8
1290.210328,14238.6
1293.890106,14472
1297.564555,14963.4
1301.233688,14324.8
1304.897514,14636.2
1308.556044,14754.2
1312.209289,14672.6
1315.857261,14102.2
1319.499969,14303.8
1323.137425,15088.6
1326.769641,14620.4
1330.396626,15119.8
1334.018391,14539.8
1337.634948,14683
1341.246307,14375.2
1344.85248,14264.4
1348.453477,14118.8
1352.049309,14235.2
1355.639987,14268.4
1359.225522,14977
1362.805925,14493.8
1366.381207,14487.8
1369.951379,14487.6
1373.516452,14519
1377.076436,14874.4
1380.631343,14508.2
1384.181184,14457.6
1387.725969,14613.6
1391.26571,14444.8
1394.800417,14372.6
1398.330102,14390.2
1401.854776,14637.6
1405.374448,14299
1408.889132,13921.6
1412.398837,13555.2
1415.903574,13895.6
1419.403355,14583.4
1422.89819,14228
1426.388091,14192.2
1429.873069,14834.6
1433.353134,14219
1436.828298,14220.4
1440.298571,14387.2
1443.763965,14013.4
1447.224491,13855.8
1450.68016,13798.4
1454.130983,14209.2
1457.576971,14090.8
1461.018135,14333
1464.454486,14385.6
1467.886036,13845.6
1471.312794,14019.6
1474.734774,13616.6
1478.151985,14379
1481.564439,14026.8
1484.972146,13963
1488.375119,13592.8
1491.773368,13870.6
1495.166904,14508.4
1498.555739,13736.6
1501.939883,13925.2
1505.319349,13476.8
1508.694146,13820.8
1512.064286,13950.2
1515.429781,13769.4
1518.790642,13547.2
1522.146879,13924
1525.498505,13313
1528.845529,13274
1532.187965,14109.2
1535.525822,13740.6
1538.859112,13729.6
1542.187846,14354.2
1545.512036,13417.2
1548.831693,14630.8
1552.146829,14035
1555.457453,13524.6
1558.763579,13062.2
1562.065216,13543.4
1565.362377,13889.4
1568.655073,14171
1571.943315,13884.4
1575.227114,13938
1578.506482,13949.4
1581.781431,14678.4
1585.051971,14116
1588.318114,14151
1591.579872,14121.6
1594.837255,13878
1598.090275,13557
1601.338945,13584.2
1604.583274,13874.4
1607.823275,13635.2
1611.058959,13160
1614.290338,13949.8
1617.517422,12948.4
1620.740224,13385.6
1623.958755,13057.2
1627.173027,13069
1630.38305,12858.4
1633.588838,13244.6
1636.7904,13011.6
1639.987749,13258.8
1643.180896,13357
1646.369853,12752.2
1649.554632,13562.2
1652.735244,12931.4
1655.9117,12652.8
1659.084013,13019
1662.252193,13624.4
1665.416254,12709.6
1668.576205,13038.8
1671.732059,13345
1674.883828,13378.8
1678.031523,12778.8
1681.175157,12870.2
1684.314739,12899.8
1687.450284,12839.2
1690.581801,12712
1693.709304,12514.2
1696.832803,12593.6
1699.952311,12870.2
1703.067839,12771.6
1706.179399,12840.8
1709.287003,13207.2
1712.390663,12779.4
1715.49039,12824.6
1718.586197,13172
1721.678095,13031
1724.766096,13007.6
1727.850213,12516.8
1730.930456,12805.2
1734.006838,12596.2
1737.079372,12841.4
1740.148067,12592
1743.212938,13603.4
1746.273996,12764.2
1749.331252,12758.6
1752.384718,12776.8
1755.434408,12815.2
1758.480332,12764.8
1761.522503,12807.4
1764.560933,12594.2
1767.595634,12233
1770.626618,12967.8
1773.653896,13033.2
1776.677482,12669.4
1779.697388,12584.2
1782.713625,12994.4
1785.726205,13027.6
1788.735141,13088
1791.740445,12615.8
1794.742129,12528.8
1797.740206,12899.6
1800.734687,13111
1803.725585,12833.2
1806.712912,12706.6
1809.69668,12364.6
1812.676902,12542.4
1815.65359,12271
1818.626756,12360
1821.596413,12476.8
1824.562573,12143.8
1827.525247,12526.2
1830.48445,12360.4
1833.440192,12523.4
1836.392487,12376.6
1839.341347,12626.2
1842.286784,12626.4
1845.22881,12105.6
1848.167439,12754.6
1851.102682,12419.6
1854.034553,12567.6
1856.963063,12229.2
1859.888226,13192
1862.810053,12617.4
1865.728557,12490.4
1868.643751,12186.8
1871.555648,12268.2
1874.46426,12003
1877.369599,12578.6
1880.271679,12427.2
1883.170512,12249.6
1886.06611,12797.8
1888.958487,12402.2
1891.847655,12342.8
1894.733626,12534.6
1897.616414,12622
1900.496032,12149
1903.372491,12405.6
1906.245805,12840.8
1909.115987,12917.2
1911.983049,12734.8
1914.847004,12590.6
1917.707866,12701.4
1920.565646,12738.4
1923.420359,12348.2
1926.272016,12527.6
1929.120631,12234
1931.966216,12507.6
1934.808786,12412
1937.648351,12667.8
1940.484927,12551.8
1943.318525,12640.8
1946.149158,12861.6
1948.97684,14023.6
1951.801584,12965.6
1954.623403,12656.2
1957.44231,12686.8
1960.258318,12129.2
1963.071439,12255.6
1965.881688,12591.2
1968.689078,12517.4
1971.493621,12399
