Ramanshift[cm-1],Intensity
-93.47115107,14385.4
-87.69374369,13040.4
-81.9253076,12902.8
-76.16582701,13026.2
-70.41528615,13026.2
-64.67366933,12675.4
-58.94096086,12746.8
-53.21714512,12888.8
-47.50220652,13140.8
-41.79612954,13039
-36.09889866,13557.4
-30.41049843,13687.4
-24.73091343,13222.2
-19.0601283,13287.6
-13.39812769,13052.2
-7.744896327,12808.2
-2.100418946,12728.2
3.535319659,13326.6
9.162334658,12622
14.78064118,13062.2
20.39025432,12579
25.99118913,12754.8
31.58346061,13241
37.16708375,13050
42.74207347,12660.4
48.30844468,12702.2
53.86621222,12587.8
59.41539093,12196.8
64.95599558,12216.6
70.48804091,12634.6
76.01154164,12736.6
81.52651243,12110
87.03296792,12578.4
92.5309227,12868.6
98.02039134,12262.8
103.5013884,12591.8
108.9739282,12437.4
114.4380255,12307.8
119.8936944,12535.4
125.3409495,13565.4
130.779805,12405.4
136.2102753,12089
141.6323747,12163
147.0461174,12819.8
152.4515176,12286.8
157.8485895,12225.8
163.2373472,12148.6
168.6178049,12464.4
173.9899766,12930.4
179.3538764,12263.4
184.7095182,12384.6
190.0569161,12586.4
195.396084,12793
200.7270358,12195.4
206.0497854,12230.6
211.3643466,11929.6
216.6707333,12444.8
221.9689593,11969.2
227.2590382,12128.4
232.5409839,12206.4
237.8148101,12025.2
243.0805303,12165.2
248.3381582,12158.8
253.5877075,11972.2
258.8291917,12166.6
264.0626244,12154.4
269.288019,12414
274.5053891,12526.2
279.7147481,12182.6
284.9161094,12052
290.1094865,12369.6
295.2948927,13454.2
300.4723414,16148.4
305.6418459,18859
310.8034194,21343.4
315.9570752,23365.4
321.1028267,23814
326.2406869,23936.2
331.370669,24300.6
336.4927863,24471
341.6070517,24826.8
346.7134786,24791.8
351.8120798,25156
356.9028684,24896
361.9858576,24917
367.0610602,25406.8
372.1284892,25040.6
377.1881577,25700.6
382.2400784,26147.8
387.2842644,26968.6
392.3207284,27384.8
397.3494833,26497
402.370542,26259.6
407.3839172,25372
412.3896217,24743.8
417.3876683,24136.2
422.3780697,24200
427.3608386,23956.4
432.3359876,24311.6
437.3035295,24298.4
442.2634769,24279.4
447.2158423,23441.8
452.1606383,23414.6
457.0978776,23510.4
462.0275727,22723.2
466.9497361,23366.2
471.8643802,22656.6
476.7715176,23322.4
481.6711608,23264.2
486.5633221,23658.8
491.448014,23203.4
496.3252488,23058
501.195039,23178.4
506.0573969,23513
510.9123349,23078.8
515.7598651,22571.4
520.6,22944.8
525.4327518,22809.8
530.2581327,22743.2
535.076155,22310.8
539.8868309,22720.2
544.6901726,22666.4
549.4861922,22302.4
554.2749019,23086.4
559.0563139,22211.6
563.8304402,21883.8
568.597293,22928.4
573.3568844,22704.6
578.1092263,22139
582.8543308,22547
587.5922101,22470.2
592.322876,22198.6
597.0463405,22323.2
601.7626157,22669
606.4717135,21936.8
611.1736458,22025.8
615.8684246,22044.6
620.5560617,22215.8
625.2365691,21986.2
629.9099585,22372.2
634.5762419,22695.6
639.2354312,21894.4
643.887538,21959
648.5325743,21718
653.1705518,21722
657.8014823,21975
662.4253775,21010
667.0422493,21442.4
671.6521092,21415
676.2549691,21642.6
680.8508407,21545.8
685.4397355,21405.4
690.0216654,21485.8
694.5966419,21226.4
699.1646767,21923.2
703.7257814,21477.8
708.2799676,21597.4
712.827247,21812
717.367631,21459.2
721.9011314,21333.6
726.4277595,20626.4
730.9475271,21244.8
735.4604456,21156.6
739.9665264,21539.8
744.4657813,21132
748.9582215,21029.2
753.4438587,20413.6
757.9227042,20239.6
762.3947696,20732.4
766.8600662,20297
771.3186056,21675
775.770399,20562.2
780.215458,20752.8
784.6537939,20031.2
789.0854181,19935.4
793.510342,20038.8
797.9285769,20580.8
802.3401342,19973
806.7450253,20323.8
811.1432614,20152.4
815.5348538,19768.8
819.9198139,19518.6
824.2981531,19765
828.6698824,19786
833.0350133,19585.2
837.393557,19282.2
841.7455248,19781.6
846.0909278,19402.6
850.4297774,19480
854.7620848,19462.4
859.0878611,19758.6
863.4071176,18963.8
867.7198655,19554.4
872.026116,19732.6
876.3258802,20313.8
880.6191693,19709.6
884.9059946,19713.4
889.186367,20108.6
893.4602979,18933.4
897.7277982,18859.2
901.9888793,19244.2
906.2435521,19658.4
910.4918277,19028.6
914.7337174,19080.6
918.9692321,18950.2
923.1983831,19582.6
927.4211813,19191.4
931.6376378,19880.2
935.8477637,19367.4
940.0515701,19481.2
944.249068,19654
948.4402684,18663.2
952.6251825,19500
956.8038212,19283.6
960.9761955,19695.2
965.1423166,19245.2
969.3021953,19199.4
973.4558427,19363
977.6032699,19002
981.7444877,19151.2
985.8795072,19024.8
990.0083394,19201.4
994.1309953,18870
998.2474857,19311.4
1002.357822,18411.2
1006.462014,19186.2
1010.560075,18937
1014.652013,19116.6
1018.737841,19401.6
1022.81757,18847.2
1026.891209,18735.2
1030.958771,18546.2
1035.020266,18931.6
1039.075705,18689.4
1043.1251,18396
1047.16846,18768.6
1051.205797,18596
1055.237121,18504
1059.262444,18571.2
1063.281777,18873.2
1067.295131,19496.6
1071.302515,21365.4
1075.303942,21365.8
1079.299422,22002.6
1083.288966,20809
1087.272585,19833.6
1091.250289,19114.4
1095.222091,18916.2
1099.187999,18338
1103.148026,18445
1107.102183,18254
1111.050479,18505.6
1114.992927,18346
1118.929536,18141
1122.860318,18549.2
1126.785283,18177
1130.704443,18284.2
1134.617808,19350.2
1138.52539,19520.8
1142.427198,19300.4
1146.323244,18971.6
1150.213538,18312
1154.098093,18746
1157.976917,18051.6
1161.850023,18059
1165.717421,18499.6
1169.579121,18335.8
1173.435135,18863.8
1177.285474,17972.2
1181.130148,18147.4
1184.969169,18469.6
1188.802547,18267.4
1192.630292,17807.4
1196.452416,17459.4
1200.26893,17438.6
1204.079844,17180.2
1207.88517,16812
1211.684917,17461.8
1215.479098,16905.4
1219.267722,18565.2
1223.050801,16929.4
1226.828346,16990.8
1230.600366,17345.8
1234.366874,17228.2
1238.12788,17005.2
1241.883395,17162.6
1245.633429,17372.4
1249.377994,17239.6
1253.1171,16632.4
1256.850759,17095.8
1260.578981,16852.8
1264.301776,17015.4
1268.019157,16974
1271.731133,16744.4
1275.437715,16417.2
1279.138915,17026
1282.834743,17325
1286.52521,16748.4
1290.210328,16629.2
1293.890106,16684.4
1297.564555,17209.4
1301.233688,16513.6
1304.897514,16864
1308.556044,17048.4
1312.209289,16980
1315.857261,16305.8
1319.499969,16467
1323.137425,17322
1326.769641,16721
1330.396626,17356.8
1334.018391,16743.8
1337.634948,16951.6
1341.246307,16586.2
1344.85248,16548.8
1348.453477,16368
1352.049309,16418
1355.639987,16443.8
1359.225522,17082.4
1362.805925,16656.2
1366.381207,16578.6
1369.951379,16621.8
1373.516452,16756.4
1377.076436,17067.4
1380.631343,16928.8
1384.181184,16757.8
1387.725969,16942.4
1391.26571,16557.8
1394.800417,16486.2
1398.330102,16399.4
1401.854776,16487.4
1405.374448,16303.8
1408.889132,15893.2
1412.398837,15504.2
1415.903574,16040
1419.403355,16534
1422.89819,16339.6
1426.388091,16386.4
1429.873069,16926.8
1433.353134,16270.4
1436.828298,16267.6
1440.298571,16240.2
1443.763965,15885.6
1447.224491,15670.2
1450.68016,15499
1454.130983,16087.4
1457.576971,15944
1461.018135,16128.2
1464.454486,16052.2
1467.886036,15599.8
1471.312794,15722.2
1474.734774,15331
1478.151985,16011.8
1481.564439,15753.2
1484.972146,15631.6
1488.375119,15225.4
1491.773368,15566.2
1495.166904,16184.4
1498.555739,15359.8
1501.939883,15527.2
1505.319349,15065.6
1508.694146,15396
1512.064286,15557.6
1515.429781,15510.6
1518.790642,15228
1522.146879,15632
1525.498505,14949.8
1528.845529,15024.4
1532.187965,15755.6
1535.525822,15316.2
1538.859112,15414
1542.187846,16012.8
1545.512036,14984
1548.831693,16510.4
1552.146829,15894.6
1555.457453,15261
1558.763579,14993.2
1562.065216,15471.6
1565.362377,15983.2
1568.655073,16264.8
1571.943315,16118.6
1575.227114,16106.6
1578.506482,15967
1581.781431,16604
1585.051971,16105.2
1588.318114,16160.4
1591.579872,15977.2
1594.837255,15490
1598.090275,15137.6
1601.338945,14973
1604.583274,15353.8
1607.823275,14869.2
1611.058959,14490.8
1614.290338,15162.2
1617.517422,14347.8
1620.740224,14748.6
1623.958755,14345.2
1627.173027,14248.2
1630.38305,14038.4
1633.588838,14337.6
1636.7904,14176.4
1639.987749,14350.8
1643.180896,14551.2
1646.369853,13792.6
1649.554632,14695.4
1652.735244,13993.8
1655.9117,13611.2
1659.084013,13955.6
1662.252193,14596.8
1665.416254,13586.8
1668.576205,13950.8
1671.732059,14220
1674.883828,14340.4
1678.031523,13741
1681.175157,13893.6
1684.314739,13836.8
1687.450284,13738.2
1690.581801,13620.2
1693.709304,13381.2
1696.832803,13549.4
1699.952311,13727.8
1703.067839,13670.8
1706.179399,13717
1709.287003,13952.8
1712.390663,13560.8
1715.49039,13656
1718.586197,14013.4
1721.678095,13814.6
1724.766096,13846.2
1727.850213,13213.6
1730.930456,13587.8
1734.006838,13362.6
1737.079372,13597
1740.148067,13279
1743.212938,14295.8
1746.273996,13420.6
1749.331252,13406
1752.384718,13447
1755.434408,13513.8
1758.480332,13541.8
1761.522503,13447.2
1764.560933,13290.2
1767.595634,12911
1770.626618,13719.2
1773.653896,13541.4
1776.677482,13154.6
1779.697388,13193.4
1782.713625,13715.8
1785.726205,13695.2
1788.735141,13708
1791.740445,13165.2
1794.742129,13169.4
1797.740206,13623.2
1800.734687,13665.2
1803.725585,13450.6
1806.712912,13392.6
1809.69668,13057.8
1812.676902,13245.6
1815.65359,12892
1818.626756,13029
1821.596413,13177.2
1824.562573,12730.2
1827.525247,13175.4
1830.48445,12958.8
1833.440192,13133.8
1836.392487,12999.4
1839.341347,13144.6
1842.286784,13119.8
1845.22881,12757.2
1848.167439,13299
1851.102682,13056.2
1854.034553,13111
1856.963063,12782.2
1859.888226,13799.4
1862.810053,13223.2
1865.728557,13015
1868.643751,12801
1871.555648,12782.4
1874.46426,12511.8
1877.369599,13181.2
1880.271679,12995.6
1883.170512,12851
1886.06611,13326.4
1888.958487,12905.2
1891.847655,12958.6
1894.733626,13088.2
1897.616414,13162
1900.496032,12684.2
1903.372491,12962
1906.245805,13353.4
1909.115987,13334.8
1911.983049,13321.2
1914.847004,13040.4
1917.707866,13229.2
1920.565646,13189.6
1923.420359,12764.8
1926.272016,13018.4
1929.120631,12734.8
1931.966216,12844.2
1934.808786,12816.2
1937.648351,13121.6
1940.484927,13072.4
1943.318525,13155.8
1946.149158,13413.6
1948.97684,14500.2
1951.801584,13463.4
1954.623403,13107.8
1957.44231,13292.2
1960.258318,12707.6
1963.071439,12664.2
1965.881688,12965.6
1968.689078,13011.8
1971.493621,12795.2
