Ramanshift[cm-1],Intensity
-93.47115107,14353
-87.69374369,13020.8
-81.9253076,12920.2
-76.16582701,12898.8
-70.41528615,13032
-64.67366933,12685
-58.94096086,12729
-53.21714512,12993.2
-47.50220652,13079.6
-41.79612954,13130.8
-36.09889866,13533.2
-30.41049843,13620.8
-24.73091343,13283.6
-19.0601283,13371.6
-13.39812769,13052.6
-7.744896327,12852.4
-2.100418946,12664.4
3.535319659,13304.8
9.162334658,12693.6
14.78064118,12913.4
20.39025432,12696.4
25.99118913,12850
31.58346061,13268.4
37.16708375,13073.2
42.74207347,12631.8
48.30844468,12704.8
53.86621222,12520.2
59.41539093,12244.4
64.95599558,12240.2
70.48804091,12663.2
76.01154164,12764.6
81.52651243,12063.2
87.03296792,12669
92.5309227,13076.4
98.02039134,12272.2
103.5013884,12590
108.9739282,12388.6
114.4380255,12449.2
119.8936944,12591.8
125.3409495,13546.2
130.779805,12372.4
136.2102753,12089.4
141.6323747,12113.6
147.0461174,12801
152.4515176,12257.4
157.8485895,12291.2
163.2373472,12142.4
168.6178049,12545.2
173.9899766,12813.8
179.3538764,12318.4
184.7095182,12409.4
190.0569161,12654
195.396084,12840.2
200.7270358,12214.2
206.0497854,12279.2
211.3643466,12007.2
216.6707333,12335
221.9689593,11938.6
227.2590382,12200.4
232.5409839,12198.2
237.8148101,11959.6
243.0805303,12201.8
248.3381582,12139.6
253.5877075,11947
258.8291917,12132.8
264.0626244,12210.4
269.288019,12441.8
274.5053891,12473
279.7147481,12190
284.9161094,11982.4
290.1094865,12135.4
295.2948927,12908.2
300.4723414,14533.8
305.6418459,15772.6
310.8034194,16927.6
315.9570752,18399
321.1028267,18734.6
326.2406869,18661.6
331.370669,18914.8
336.4927863,19032.8
341.6070517,19169.4
346.7134786,19066
351.8120798,19423.8
356.9028684,18936
361.9858576,19085.8
367.0610602,19368
372.1284892,19074.8
377.1881577,19638.6
382.2400784,19451.6
387.2842644,19903.2
392.3207284,20787.2
397.3494833,20675.6
402.370542,20782.4
407.3839172,20146.2
412.3896217,19685.2
417.3876683,19025.2
422.3780697,18789.6
427.3608386,18689.2
432.3359876,18989.2
437.3035295,18959.2
442.2634769,19160.2
447.2158423,18346.6
452.1606383,18315.8
457.0978776,18472
462.0275727,17860.8
466.9497361,18405.6
471.8643802,17825.8
476.7715176,18321.2
481.6711608,18257.2
486.5633221,18405.8
491.448014,18318
496.3252488,18120.4
501.195039,18173.6
506.0573969,18724.8
510.9123349,18283.6
515.7598651,17717.8
520.6,18242.4
525.4327518,18232
530.2581327,18075.4
535.076155,17671
539.8868309,17973.8
544.6901726,18054
549.4861922,17810.2
554.2749019,18664.2
559.0563139,17722.2
563.8304402,17458
568.597293,18506.8
573.3568844,18153.6
578.1092263,17637.6
582.8543308,18129.6
587.5922101,18092.4
592.322876,17634.4
597.0463405,17730.8
601.7626157,18054.6
606.4717135,17631
611.1736458,17548.8
615.8684246,17557.6
620.5560617,18000.8
625.2365691,17739.6
629.9099585,18118.4
634.5762419,18295
639.2354312,17593
643.887538,18011.6
648.5325743,17626.2
653.1705518,17529.6
657.8014823,17643.6
662.4253775,17091.6
667.0422493,17455.6
671.6521092,17556.8
676.2549691,17644
680.8508407,17600.2
685.4397355,17444.2
690.0216654,17563.2
694.5966419,17347.4
699.1646767,17841.2
703.7257814,17548.6
708.2799676,17588
712.827247,17820.8
717.367631,17580.8
721.9011314,17582.8
726.4277595,16828.2
730.9475271,17512.6
735.4604456,17337.6
739.9665264,17949.2
744.4657813,17312.4
748.9582215,17346.8
753.4438587,16856.8
757.9227042,16567.4
762.3947696,17323.4
766.8600662,16680.8
771.3186056,18104.8
775.770399,17050.4
780.215458,17504
784.6537939,16686.8
789.0854181,16705.4
793.510342,16624.2
797.9285769,17318.4
802.3401342,16800
806.7450253,16969.2
811.1432614,16979.4
815.5348538,16723.8
819.9198139,16383.4
824.2981531,16646.8
828.6698824,16788.4
833.0350133,16641.2
837.393557,16215.8
841.7455248,16654.4
846.0909278,16363.2
850.4297774,16375.6
854.7620848,16442.6
859.0878611,16659.4
863.4071176,16196.2
867.7198655,16645.4
872.026116,16900.4
876.3258802,17439.6
880.6191693,16725
884.9059946,16800.8
889.186367,17231.8
893.4602979,16105.2
897.7277982,16020.4
901.9888793,16413.8
906.2435521,16932
910.4918277,16203
914.7337174,16081
918.9692321,16175.8
923.1983831,16768.4
927.4211813,16389.6
931.6376378,17007.6
935.8477637,16503.4
940.0515701,16763.6
944.249068,16715.6
948.4402684,15926
952.6251825,16698.2
956.8038212,16420
960.9761955,17083.8
965.1423166,16617
969.3021953,16691
973.4558427,16721.6
977.6032699,16310.8
981.7444877,16511.8
985.8795072,16399.2
990.0083394,16565.2
994.1309953,16126.6
998.2474857,16499
1002.357822,15651.2
1006.462014,16428
1010.560075,16122.2
1014.652013,16557.2
1018.737841,16916.2
1022.81757,16307
1026.891209,16114
1030.958771,16034.6
1035.020266,16322.4
1039.075705,16040.8
1043.1251,15881.6
1047.16846,16052.2
1051.205797,16111.8
1055.237121,15776.8
1059.262444,15717.8
1063.281777,15580.2
1067.295131,15707.2
1071.302515,17052.2
1075.303942,16781.6
1079.299422,18218.2
1083.288966,17942.2
1087.272585,17669.4
1091.250289,17206.2
1095.222091,16854.8
1099.187999,16028.4
1103.148026,16090.6
1107.102183,15914.8
1111.050479,16039.8
1114.992927,15882
1118.929536,15756.4
1122.860318,16142.6
1126.785283,15608.2
1130.704443,15467.2
1134.617808,16324.2
1138.52539,16254.4
1142.427198,16266.8
1146.323244,16277
1150.213538,15999
1154.098093,16477.2
1157.976917,15674.6
1161.850023,15536.6
1165.717421,16108.4
1169.579121,15679.2
1173.435135,16067.6
1177.285474,15230.4
1181.130148,15508.2
1184.969169,15997.8
1188.802547,15987.4
1192.630292,15698.8
1196.452416,15277.4
1200.26893,15205.6
1204.079844,15041.4
1207.88517,14519.2
1211.684917,15254.4
1215.479098,14794.8
1219.267722,16411
1223.050801,14805
1226.828346,15005.6
1230.600366,15124.6
1234.366874,15110.6
1238.12788,14977.8
1241.883395,14962.4
1245.633429,15278.8
1249.377994,15311.8
1253.1171,14535.8
1256.850759,14992.6
1260.578981,14951.8
1264.301776,15020.8
1268.019157,14883.8
1271.731133,14564.6
1275.437715,14416.8
1279.138915,15073
1282.834743,15188
1286.52521,14794.6
1290.210328,14558.4
1293.890106,14706.8
1297.564555,15254
1301.233688,14613.8
1304.897514,14903.8
1308.556044,15002.6
1312.209289,14989
1315.857261,14408.4
1319.499969,14609
1323.137425,15426.4
1326.769641,14870.8
1330.396626,15476.4
1334.018391,14841.6
1337.634948,15042.6
1341.246307,14659
1344.85248,14606
1348.453477,14488
1352.049309,14489.4
1355.639987,14512.4
1359.225522,15172.8
1362.805925,14719.8
1366.381207,14712.6
1369.951379,14717
1373.516452,14828
1377.076436,15029
1380.631343,14810
1384.181184,14744.2
1387.725969,14790.2
1391.26571,14548.4
1394.800417,14426.4
1398.330102,14710.6
1401.854776,14819.4
1405.374448,14581.8
1408.889132,14160.4
1412.398837,13688.6
1415.903574,14048.2
1419.403355,14766.8
1422.89819,14291.6
1426.388091,14289.6
1429.873069,14813
1433.353134,14319.8
1436.828298,14406
1440.298571,14644.8
1443.763965,14225.6
1447.224491,14073.2
1450.68016,14025.8
1454.130983,14474.2
1457.576971,14372.8
1461.018135,14613.4
1464.454486,14666.4
1467.886036,14152.2
1471.312794,14245.2
1474.734774,13906.8
1478.151985,14648.6
1481.564439,14332.2
1484.972146,14129
1488.375119,13748.2
1491.773368,14139.8
1495.166904,14700.8
1498.555739,13980.2
1501.939883,14088.4
1505.319349,13657.2
1508.694146,14023.8
1512.064286,14032.8
1515.429781,13989
1518.790642,13829.6
1522.146879,14173.6
1525.498505,13583.2
1528.845529,13570.4
1532.187965,14222
1535.525822,13964.4
1538.859112,13958.4
1542.187846,14545.2
1545.512036,13621.4
1548.831693,14959.4
1552.146829,14291
1555.457453,13717.6
1558.763579,13370.4
1562.065216,13754
1565.362377,14075.6
1568.655073,14397.4
1571.943315,14148.2
1575.227114,14202.8
1578.506482,14155
1581.781431,14795.4
1585.051971,14334.2
1588.318114,14637.8
1591.579872,14612.2
1594.837255,14411.6
1598.090275,14266.8
1601.338945,14131.8
1604.583274,14397.4
1607.823275,13928.2
1611.058959,13322.2
1614.290338,14030
1617.517422,13263.8
1620.740224,13641.6
1623.958755,13285.2
1627.173027,13416.2
1630.38305,12942.6
1633.588838,13344.2
1636.7904,12972.6
1639.987749,13415.2
1643.180896,13523.2
1646.369853,12895.8
1649.554632,13839
1652.735244,13184.4
1655.9117,12777.2
1659.084013,13084
1662.252193,13672.8
1665.416254,12860.4
1668.576205,13064.6
1671.732059,13502
1674.883828,13446.8
1678.031523,12906.8
1681.175157,13027.8
1684.314739,12963.6
1687.450284,12995
1690.581801,12904.8
1693.709304,12713.8
1696.832803,12691
1699.952311,13020.2
1703.067839,13013.2
1706.179399,12887.8
1709.287003,13338.6
1712.390663,12845.6
1715.49039,13018.8
1718.586197,13280.6
1721.678095,13133.6
1724.766096,13096.6
1727.850213,12487.8
1730.930456,12891.2
1734.006838,12724
1737.079372,13056.8
1740.148067,12666.6
1743.212938,13720
1746.273996,12896
1749.331252,12808.8
1752.384718,12896.2
1755.434408,12931.6
1758.480332,12835.6
1761.522503,12826.8
1764.560933,12633.8
1767.595634,12313
1770.626618,13008.6
1773.653896,13093
1776.677482,12661
1779.697388,12678.4
1782.713625,13235.4
1785.726205,13158
1788.735141,13196.8
1791.740445,12638.2
1794.742129,12609.8
1797.740206,13182
1800.734687,13174.4
1803.725585,12807.4
1806.712912,12797.6
1809.69668,12539.4
1812.676902,12648.4
1815.65359,12308
1818.626756,12377.6
1821.596413,12589.8
1824.562573,12307.6
1827.525247,12597.6
1830.48445,12452.4
1833.440192,12572.4
1836.392487,12510
1839.341347,12725.2
1842.286784,12703
1845.22881,12220.4
1848.167439,12797.8
1851.102682,12522.2
1854.034553,12593.4
1856.963063,12364.2
1859.888226,13304.2
1862.810053,12725
1865.728557,12505.6
1868.643751,12248
1871.555648,12386.2
1874.46426,11968
1877.369599,12686.4
1880.271679,12449.8
1883.170512,12283.6
1886.06611,12858.4
1888.958487,12450.8
1891.847655,12560.8
1894.733626,12641.4
1897.616414,12736.2
1900.496032,12223.2
1903.372491,12440.4
1906.245805,12753.8
1909.115987,12806.6
1911.983049,12759
1914.847004,12703.8
1917.707866,12822.2
1920.565646,12823
1923.420359,12374
1926.272016,12578.2
1929.120631,12331.6
1931.966216,12400.2
1934.808786,12489.2
1937.648351,12665.4
1940.484927,12682.6
1943.318525,12800.8
1946.149158,13009.8
1948.97684,14137
1951.801584,13077.8
1954.623403,12687
1957.44231,12768
1960.258318,12256
1963.071439,12282.6
1965.881688,12550.8
1968.689078,12633
1971.493621,12381.4
