Ramanshift[cm-1],Intensity
-93.47115107,14315.8
-87.69374369,12911.4
-81.9253076,12789.6
-76.16582701,12854.8
-70.41528615,12983
-64.67366933,12700
-58.94096086,12750.4
-53.21714512,12917
-47.50220652,13059
-41.79612954,13090.8
-36.09889866,13534
-30.41049843,13515.8
-24.73091343,13168.6
-19.0601283,13299.4
-13.39812769,13014
-7.744896327,12764.4
-2.100418946,12626.4
3.535319659,13320.4
9.162334658,12568.4
14.78064118,12932
20.39025432,12613.8
25.99118913,12708.6
31.58346061,13209.2
37.16708375,12963.2
42.74207347,12569.2
48.30844468,12598.2
53.86621222,12483.2
59.41539093,12156.4
64.95599558,12230.8
70.48804091,12512.4
76.01154164,12681.4
81.52651243,12069.6
87.03296792,12659.4
92.5309227,12899.8
98.02039134,12241.4
103.5013884,12507
108.9739282,12269.4
114.4380255,12335.4
119.8936944,12624.8
125.3409495,13561.4
130.779805,12281.4
136.2102753,12121.2
141.6323747,12079.8
147.0461174,12630
152.4515176,12290.6
157.8485895,12249.4
163.2373472,12222.2
168.6178049,12409.2
173.9899766,12658.8
179.3538764,12315
184.7095182,12322.2
190.0569161,12505.6
195.396084,12705.6
200.7270358,12146
206.0497854,12085.8
211.3643466,11937.8
216.6707333,12271.8
221.9689593,11952.8
227.2590382,12130.4
232.5409839,12026.8
237.8148101,11975.4
243.0805303,12003
248.3381582,12097.2
253.5877075,11917.4
258.8291917,12140.8
264.0626244,12072.8
269.288019,12309.4
274.5053891,12467
279.7147481,12148
284.9161094,11891.4
290.1094865,12097
295.2948927,12695.8
300.4723414,14033
305.6418459,14969.8
310.8034194,15693
315.9570752,16907.4
321.1028267,17329.2
326.2406869,17311
331.370669,17441.6
336.4927863,17481
341.6070517,17617.2
346.7134786,17407.4
351.8120798,17774.6
356.9028684,17507.6
361.9858576,17573.8
367.0610602,17946.4
372.1284892,17560
377.1881577,18129.2
382.2400784,18194.2
387.2842644,18894
392.3207284,19675.2
397.3494833,19058.4
402.370542,19055
407.3839172,18263.4
412.3896217,17580.6
417.3876683,17067
422.3780697,17141
427.3608386,17108.6
432.3359876,17371.6
437.3035295,17603.8
442.2634769,17510.4
447.2158423,16881.6
452.1606383,16939.6
457.0978776,17191.6
462.0275727,16603.2
466.9497361,16921
471.8643802,16452.6
476.7715176,16903.8
481.6711608,16786.2
486.5633221,17242.4
491.448014,17010.6
496.3252488,16827.6
501.195039,16913.2
506.0573969,17356
510.9123349,16916
515.7598651,16375.6
520.6,16951.4
525.4327518,16856.6
530.2581327,16820
535.076155,16355.2
539.8868309,16815.8
544.6901726,16870
549.4861922,16624.8
554.2749019,17490.6
559.0563139,16524
563.8304402,16310.2
568.597293,17497.8
573.3568844,17012.4
578.1092263,16526
582.8543308,16923.4
587.5922101,16865.2
592.322876,16409.4
597.0463405,16518.2
601.7626157,17023.2
606.4717135,16427.4
611.1736458,16599.8
615.8684246,16540.4
620.5560617,16874.6
625.2365691,16598.8
629.9099585,16868
634.5762419,17338.8
639.2354312,16629.8
643.887538,16843.2
648.5325743,16542.8
653.1705518,16455.4
657.8014823,16756.8
662.4253775,16042.2
667.0422493,16348.8
671.6521092,16281.4
676.2549691,16613.2
680.8508407,16576.6
685.4397355,16407.8
690.0216654,16471.2
694.5966419,16296.8
699.1646767,16845.2
703.7257814,16522.4
708.2799676,16740
712.827247,16755
717.367631,16522.2
721.9011314,16535
726.4277595,15772.2
730.9475271,16533.2
735.4604456,16379.6
739.9665264,16932.4
744.4657813,16377
748.9582215,16377.2
753.4438587,15872
757.9227042,15758
762.3947696,16464.2
766.8600662,15825
771.3186056,17367.2
775.770399,16177.8
780.215458,16545.2
784.6537939,15903
789.0854181,15744
793.510342,15981
797.9285769,16455.8
802.3401342,16138.4
806.7450253,16131.6
811.1432614,16021.2
815.5348538,15942.2
819.9198139,15591.4
824.2981531,15893.4
828.6698824,16016.2
833.0350133,15868.2
837.393557,15486.6
841.7455248,15823.4
846.0909278,15686.2
850.4297774,15568.8
854.7620848,15664.8
859.0878611,15946.6
863.4071176,15378.6
867.7198655,15828.6
872.026116,16141.4
876.3258802,16517.4
880.6191693,16009.4
884.9059946,16103.6
889.186367,16465.2
893.4602979,15488
897.7277982,15314
901.9888793,15814.6
906.2435521,16014.8
910.4918277,15444.8
914.7337174,15544.8
918.9692321,15370.2
923.1983831,16029.4
927.4211813,15732.2
931.6376378,16404.8
935.8477637,15855.6
940.0515701,16058.8
944.249068,16066.4
948.4402684,15292.2
952.6251825,16173
956.8038212,15644.2
960.9761955,16448.2
965.1423166,15962.8
969.3021953,15935.8
973.4558427,16070.6
977.6032699,15724.6
981.7444877,15963.8
985.8795072,15813.6
990.0083394,15932
994.1309953,15537.6
998.2474857,15945.4
1002.357822,15278.4
1006.462014,15720
1010.560075,15483.2
1014.652013,15848.2
1018.737841,16236.2
1022.81757,15579.4
1026.891209,15551.4
1030.958771,15446.2
1035.020266,15773.2
1039.075705,15557.8
1043.1251,15211.4
1047.16846,15484.8
1051.205797,15394.2
1055.237121,15043.2
1059.262444,15002.4
1063.281777,14721.2
1067.295131,14984.4
1071.302515,16313.2
1075.303942,16128.8
1079.299422,17201.6
1083.288966,16659.2
1087.272585,16059.4
1091.250289,15633
1095.222091,15668.2
1099.187999,15185
1103.148026,15268
1107.102183,15132.4
1111.050479,15354.4
1114.992927,15177
1118.929536,15112.8
1122.860318,15434.4
1126.785283,14838
1130.704443,14755.8
1134.617808,15609
1138.52539,15414.8
1142.427198,15396.8
1146.323244,15425.6
1150.213538,15057.6
1154.098093,15516.2
1157.976917,14823
1161.850023,14724.4
1165.717421,15285.4
1169.579121,14960.6
1173.435135,15452
1177.285474,14759.8
1181.130148,14904.4
1184.969169,15246.6
1188.802547,15191.8
1192.630292,14701.2
1196.452416,14467.4
1200.26893,14629.4
1204.079844,14357
1207.88517,13950.4
1211.684917,14665
1215.479098,14163.6
1219.267722,15796.6
1223.050801,14238.4
1226.828346,14274.8
1230.600366,14615.4
1234.366874,14678
1238.12788,14487
1241.883395,14383.8
1245.633429,14815.6
1249.377994,14789.4
1253.1171,13960.8
1256.850759,14405.2
1260.578981,14332.2
1264.301776,14365.2
1268.019157,14274.8
1271.731133,14010
1275.437715,13823
1279.138915,14488.8
1282.834743,14688.2
1286.52521,14202
1290.210328,13973.8
1293.890106,14225.2
1297.564555,14705.4
1301.233688,13995
1304.897514,14346
1308.556044,14366.6
1312.209289,14445.6
1315.857261,13917
1319.499969,13937.4
1323.137425,14890.2
1326.769641,14274.4
1330.396626,14889.8
1334.018391,14250.8
1337.634948,14466.6
1341.246307,14134.4
1344.85248,14004
1348.453477,13980.4
1352.049309,13883
1355.639987,14013
1359.225522,14685.2
1362.805925,14201
1366.381207,14303.8
1369.951379,14165.2
1373.516452,14276.6
1377.076436,14506.6
1380.631343,14371.2
1384.181184,14164.8
1387.725969,14252.2
1391.26571,13929.2
1394.800417,13862
1398.330102,14030.6
1401.854776,14298.2
1405.374448,14096.2
1408.889132,13594.6
1412.398837,13218.6
1415.903574,13742.4
1419.403355,14226.4
1422.89819,13841
1426.388091,13842.4
1429.873069,14261.4
1433.353134,13818.2
1436.828298,13803.2
1440.298571,14043.8
1443.763965,13645.4
1447.224491,13645.6
1450.68016,13599.8
1454.130983,14084.4
1457.576971,13945.2
1461.018135,14225
1464.454486,14350.8
1467.886036,13729.2
1471.312794,13874.8
1474.734774,13526.8
1478.151985,14171
1481.564439,14012.4
1484.972146,13777.4
1488.375119,13509
1491.773368,13690.8
1495.166904,14479.2
1498.555739,13760
1501.939883,13814.2
1505.319349,13305.2
1508.694146,13781.8
1512.064286,13858
1515.429781,13736.8
1518.790642,13517.6
1522.146879,13870
1525.498505,13173
1528.845529,13321.4
1532.187965,13922.6
1535.525822,13622.8
1538.859112,13617.4
1542.187846,14134.4
1545.512036,13235.2
1548.831693,14679.6
1552.146829,13986.2
1555.457453,13381.2
1558.763579,12960.8
1562.065216,13426
1565.362377,13658.8
1568.655073,14011.8
1571.943315,13831
1575.227114,13784
1578.506482,13807.8
1581.781431,14446.4
1585.051971,14020
1588.318114,14231.2
1591.579872,14219.8
1594.837255,13902
1598.090275,13672.2
1601.338945,13543
1604.583274,13821.4
1607.823275,13575.8
1611.058959,13058.6
1614.290338,13874.8
1617.517422,12924.4
1620.740224,13325.8
1623.958755,13078
1627.173027,13065
1630.38305,12749.6
1633.588838,13296.6
1636.7904,12868.8
1639.987749,13181.4
1643.180896,13399.4
1646.369853,12817.2
1649.554632,13767.4
1652.735244,12954.4
1655.9117,12613
1659.084013,13017.6
1662.252193,13759
1665.416254,12757.6
1668.576205,13025
1671.732059,13211.2
1674.883828,13300.8
1678.031523,12850.8
1681.175157,12943.4
1684.314739,12879
1687.450284,12886
1690.581801,12779.8
1693.709304,12676.4
1696.832803,12658.6
1699.952311,12866.2
1703.067839,12933.6
1706.179399,12846.6
1709.287003,13284.4
1712.390663,12934.8
1715.49039,12952.8
1718.586197,13173.2
1721.678095,13070.2
1724.766096,13014.4
1727.850213,12515.4
1730.930456,12860.4
1734.006838,12741.6
1737.079372,13004.2
1740.148067,12567.6
1743.212938,13645.4
1746.273996,12849.2
1749.331252,12736.6
1752.384718,12891.2
1755.434408,12891.4
1758.480332,12850.4
1761.522503,12855.8
1764.560933,12612.8
1767.595634,12275.2
1770.626618,13024.8
1773.653896,13106.2
1776.677482,12657.8
1779.697388,12605.8
1782.713625,13231.4
1785.726205,13123
1788.735141,13037.6
1791.740445,12680.2
1794.742129,12678.4
1797.740206,13177.4
1800.734687,13176.4
1803.725585,12908
1806.712912,12908.6
1809.69668,12598.8
1812.676902,12576.8
1815.65359,12240.6
1818.626756,12462.6
1821.596413,12557.8
1824.562573,12265.4
1827.525247,12700.2
1830.48445,12396.6
1833.440192,12564.2
1836.392487,12478.6
1839.341347,12729.8
1842.286784,12718.4
1845.22881,12257.4
1848.167439,12837.6
1851.102682,12563.4
1854.034553,12700.8
1856.963063,12288.2
1859.888226,13351.2
1862.810053,12807.6
1865.728557,12570.6
1868.643751,12394
1871.555648,12372.4
1874.46426,12062.8
1877.369599,12768.6
1880.271679,12494.8
1883.170512,12350.8
1886.06611,12930.6
1888.958487,12509.4
1891.847655,12560.8
1894.733626,12680
1897.616414,12676.6
1900.496032,12265.6
1903.372491,12499.8
1906.245805,12849.4
1909.115987,12916.6
1911.983049,12825.8
1914.847004,12662.8
1917.707866,12891.6
1920.565646,12792.6
1923.420359,12321.6
1926.272016,12547
1929.120631,12410.2
1931.966216,12531
1934.808786,12437
1937.648351,12745.6
1940.484927,12602.2
1943.318525,12781
1946.149158,12925.8
1948.97684,14060.4
1951.801584,12960
1954.623403,12798.2
1957.44231,12900.2
1960.258318,12364.2
1963.071439,12411.4
1965.881688,12614.6
1968.689078,12796.6
1971.493621,12431
