Ramanshift[cm-1],Intensity
-93.47115107,14568.2
-87.69374369,13267
-81.9253076,13032.4
-76.16582701,13120.6
-70.41528615,13166
-64.67366933,12933.4
-58.94096086,12929.4
-53.21714512,13128.2
-47.50220652,13252
-41.79612954,13163
-36.09889866,13647
-30.41049843,13763
-24.73091343,13336.4
-19.0601283,13476.4
-13.39812769,13200.2
-7.744896327,12958.8
-2.100418946,12898.8
3.535319659,13378.6
9.162334658,12804
14.78064118,13238.4
20.39025432,12870
25.99118913,12926.2
31.58346061,13433.8
37.16708375,13221.6
42.74207347,12817.4
48.30844468,12864.8
53.86621222,12705.8
59.41539093,12400
64.95599558,12381.4
70.48804091,12795.4
76.01154164,12938.8
81.52651243,12221.8
87.03296792,12769.8
92.5309227,13127.2
98.02039134,12461
103.5013884,12751
108.9739282,12558
114.4380255,12620.2
119.8936944,12781.2
125.3409495,13692.4
130.779805,12492.6
136.2102753,12235.8
141.6323747,12312.2
147.0461174,12949.6
152.4515176,12514.8
157.8485895,12484.2
163.2373472,12281.6
168.6178049,12719.6
173.9899766,13030.2
179.3538764,12493
184.7095182,12556.6
190.0569161,12881.2
195.396084,13011.2
200.7270358,12348.8
206.0497854,12423.2
211.3643466,12122.6
216.6707333,12564.2
221.9689593,12134.8
227.2590382,12358.2
232.5409839,12322.6
237.8148101,12261.2
243.0805303,12401.4
248.3381582,12342.2
253.5877075,12150
258.8291917,12456
264.0626244,12535
269.288019,12808
274.5053891,12928.6
279.7147481,12866.6
284.9161094,13451.8
290.1094865,16610.6
295.2948927,25988.2
300.4723414,47730.4
305.6418459,64163.2
310.8034194,64162
315.9570752,64161.4
321.1028267,64161.2
326.2406869,64161
331.370669,64160.2
336.4927863,64161.2
341.6070517,64160.8
346.7134786,64160.6
351.8120798,64160.8
356.9028684,64160.4
361.9858576,64160.2
367.0610602,64160.2
372.1284892,64160.4
377.1881577,64160.2
382.2400784,64160.4
387.2842644,64160.4
392.3207284,64160.2
397.3494833,64160
402.370542,64160.2
407.3839172,64160.6
412.3896217,64160
417.3876683,64161.2
422.3780697,64159.8
427.3608386,64161
432.3359876,64160.4
437.3035295,64161
442.2634769,64160.4
447.2158423,64160.4
452.1606383,64160.8
457.0978776,64160.8
462.0275727,64161.2
466.9497361,64160.8
471.8643802,64160.6
476.7715176,64162
481.6711608,64161.2
486.5633221,64160.8
491.448014,64160.8
496.3252488,64161.6
501.195039,64161.2
506.0573969,64161.2
510.9123349,64161.4
515.7598651,64160.6
520.6,64160.6
525.4327518,64161.2
530.2581327,64160.4
535.076155,64161
539.8868309,64160.6
544.6901726,64160.6
549.4861922,64160.6
554.2749019,64161
559.0563139,64160.6
563.8304402,64161.2
568.597293,64161.4
573.3568844,64161.6
578.1092263,64161.2
582.8543308,64161.2
587.5922101,64160.6
592.322876,64161.4
597.0463405,64161
601.7626157,64161.2
606.4717135,64161.2
611.1736458,64161
615.8684246,64161.2
620.5560617,64161
625.2365691,64160.8
629.9099585,64161.6
634.5762419,64161.4
639.2354312,64160.8
643.887538,64160.8
648.5325743,64160.6
653.1705518,64160.8
657.8014823,64160.8
662.4253775,64161.4
667.0422493,64161.2
671.6521092,64161.2
676.2549691,64162
680.8508407,64160.8
685.4397355,64161.6
690.0216654,64161.2
694.5966419,64160.8
699.1646767,64160.6
703.7257814,64161.2
708.2799676,64160.6
712.827247,64162
717.367631,64160.6
721.9011314,64161.2
726.4277595,64161.4
730.9475271,64161
735.4604456,64161.2
739.9665264,64160.6
744.4657813,64161.4
748.9582215,64161.4
753.4438587,64161.8
757.9227042,64161.8
762.3947696,64162.2
766.8600662,64162.2
771.3186056,64161.6
775.770399,64163
780.215458,64162
784.6537939,64162.4
789.0854181,64163
793.510342,64163.4
797.9285769,64163.2
802.3401342,64163.8
806.7450253,64163.6
811.1432614,64164.2
815.5348538,64163.6
819.9198139,64164
824.2981531,64163.4
828.6698824,64165
833.0350133,64164.4
837.393557,64164.2
841.7455248,64163.8
846.0909278,64164
850.4297774,64163.2
854.7620848,64163.4
859.0878611,64163.6
863.4071176,64163
867.7198655,64162.2
872.026116,64163.2
876.3258802,64162.4
880.6191693,64163.8
884.9059946,64163
889.186367,64162.8
893.4602979,64163.4
897.7277982,64162.8
901.9888793,64162.8
906.2435521,64162.6
910.4918277,64162.2
914.7337174,64162.4
918.9692321,64163.4
923.1983831,64162.6
927.4211813,64163
931.6376378,64163.2
935.8477637,64162.8
940.0515701,64162.6
944.249068,64162.2
948.4402684,64163
952.6251825,64162.2
956.8038212,64162.2
960.9761955,64162.4
965.1423166,64162.4
969.3021953,64162
973.4558427,64162
977.6032699,64162
981.7444877,64162.4
985.8795072,64162.4
990.0083394,64162.4
994.1309953,64162.4
998.2474857,64162.6
1002.357822,64162.6
1006.462014,64162.2
1010.560075,64162
1014.652013,64162.8
1018.737841,64162.4
1022.81757,64163.2
1026.891209,64163
1030.958771,64163.4
1035.020266,64163
1039.075705,64163.4
1043.1251,64163.8
1047.16846,64164
1051.205797,64163.6
1055.237121,64163.2
1059.262444,64162.4
1063.281777,64162.4
1067.295131,64162
1071.302515,64163
1075.303942,64162.4
1079.299422,64162.6
1083.288966,64163.6
1087.272585,64163.4
1091.250289,64163
1095.222091,64164
1099.187999,64163.6
1103.148026,64163.8
1107.102183,64163.6
1111.050479,64163.6
1114.992927,64163.2
1118.929536,64163.2
1122.860318,64163
1126.785283,64162.2
1130.704443,64161.6
1134.617808,64161
1138.52539,64160.8
1142.427198,64161.6
1146.323244,64162.2
1150.213538,64162.2
1154.098093,64162.8
1157.976917,64162
1161.850023,64162.4
1165.717421,64162.8
1169.579121,64162.8
1173.435135,64163.6
1177.285474,64162
1181.130148,64162.8
1184.969169,64162.2
1188.802547,64162.6
1192.630292,64162.4
1196.452416,64162.2
1200.26893,64162.8
1204.079844,64162.4
1207.88517,64162.6
1211.684917,64162.8
1215.479098,64162.6
1219.267722,64161.8
1223.050801,64162.6
1226.828346,64162.6
1230.600366,64163.6
1234.366874,64163.2
1238.12788,64163.2
1241.883395,64163.6
1245.633429,64163
1249.377994,64163.4
1253.1171,64163.6
1256.850759,64163.4
1260.578981,64163.4
1264.301776,64163.6
1268.019157,64163.4
1271.731133,64163.8
1275.437715,64164
1279.138915,64163.6
1282.834743,64163.4
1286.52521,64164.2
1290.210328,64164.2
1293.890106,64164.2
1297.564555,64164.2
1301.233688,64163.8
1304.897514,64164.4
1308.556044,64164.4
1312.209289,64164.4
1315.857261,64164.4
1319.499969,64164.4
1323.137425,64164.2
1326.769641,64164.8
1330.396626,64164.8
1334.018391,64165
1337.634948,64164.8
1341.246307,64164.8
1344.85248,64165.8
1348.453477,64165
1352.049309,64165.6
1355.639987,64165.2
1359.225522,64165.2
1362.805925,64164.8
1366.381207,64165.4
1369.951379,64165.4
1373.516452,64165.4
1377.076436,64165.2
1380.631343,64164.2
1384.181184,64163.8
1387.725969,64164.2
1391.26571,64164
1394.800417,64164
1398.330102,64164
1401.854776,64164
1405.374448,64164
1408.889132,64164.6
1412.398837,64163.6
1415.903574,64163.4
1419.403355,64163.4
1422.89819,64162.8
1426.388091,64162
1429.873069,64161.8
1433.353134,64161.8
1436.828298,64161.8
1440.298571,64161.6
1443.763965,64161.4
1447.224491,64160.8
1450.68016,64161.2
1454.130983,64160.8
1457.576971,64160.8
1461.018135,64161.4
1464.454486,64161.6
1467.886036,64161.8
1471.312794,64161.6
1474.734774,64162.8
1478.151985,64163
1481.564439,64163.4
1484.972146,64163.8
1488.375119,64164.6
1491.773368,64165.4
1495.166904,64165.8
1498.555739,64166
1501.939883,64167.2
1505.319349,64167.4
1508.694146,64168.2
1512.064286,64168
1515.429781,64168.2
1518.790642,64168.6
1522.146879,64168.2
1525.498505,64167.4
1528.845529,64168.4
1532.187965,64168.2
1535.525822,64167.6
1538.859112,64168
1542.187846,64166.8
1545.512036,64166.6
1548.831693,64166.6
1552.146829,64165.4
1555.457453,64165
1558.763579,64164.4
1562.065216,64163.2
1565.362377,64162.2
1568.655073,64162.6
1571.943315,64161
1575.227114,64161
1578.506482,64161
1581.781431,64160.4
1585.051971,64160.6
1588.318114,64160.8
1591.579872,64161.2
1594.837255,64161.6
1598.090275,64160.6
1601.338945,64160.6
1604.583274,64159.6
1607.823275,64159.8
1611.058959,64160.6
1614.290338,64164.2
1617.517422,64174
1620.740224,64199.6
1623.958755,64262.2
1627.173027,64301.2
1630.38305,64036.6
1633.588838,63616
1636.7904,62789.4
1639.987749,62607.6
1643.180896,62116.6
1646.369853,60753.2
1649.554632,61357.8
1652.735244,59733
1655.9117,59081.2
1659.084013,58769.4
1662.252193,59101.8
1665.416254,57994.8
1668.576205,57686
1671.732059,57461
1674.883828,57517.2
1678.031523,56552.2
1681.175157,56505.2
1684.314739,56337.8
1687.450284,55709.6
1690.581801,55280.8
1693.709304,55029.8
1696.832803,54685.6
1699.952311,54574.4
1703.067839,54411.8
1706.179399,54055.8
1709.287003,54213.4
1712.390663,53687.6
1715.49039,53425.8
1718.586197,53645.8
1721.678095,53264.6
1724.766096,53012
1727.850213,51899.8
1730.930456,51874.2
1734.006838,51764.8
1737.079372,51723.2
1740.148067,50860.6
1743.212938,51866.2
1746.273996,50420.2
1749.331252,50385.2
1752.384718,49952.6
1755.434408,49694.6
1758.480332,49239.6
1761.522503,48786.2
1764.560933,48310.2
1767.595634,47559.8
1770.626618,48232.6
1773.653896,48029
1776.677482,47149
1779.697388,47169.4
1782.713625,47838.2
1785.726205,47439.4
1788.735141,47386
1791.740445,46816.6
1794.742129,46624.4
1797.740206,47199.8
1800.734687,46900.6
1803.725585,47058.2
1806.712912,46482.8
1809.69668,46315.6
1812.676902,46146
1815.65359,45592.8
1818.626756,45715.2
1821.596413,45661.6
1824.562573,45165
1827.525247,45590
1830.48445,45486.2
1833.440192,45254.2
1836.392487,45005
1839.341347,45079.2
1842.286784,44803.4
1845.22881,44222.6
1848.167439,44942
1851.102682,44498.6
1854.034553,44219.4
1856.963063,44192.8
1859.888226,44678
1862.810053,44084.6
1865.728557,43891.8
1868.643751,43460.8
1871.555648,43481.4
1874.46426,42732
1877.369599,43339.6
1880.271679,42757.6
1883.170512,42686
1886.06611,42995.2
1888.958487,42920.2
1891.847655,42529.8
1894.733626,42879.2
1897.616414,42819.8
1900.496032,41837.2
1903.372491,42132.2
1906.245805,42419.6
1909.115987,42350
1911.983049,42049.8
1914.847004,41795.6
1917.707866,41704.8
1920.565646,41442.4
1923.420359,40973.4
1926.272016,41030.8
1929.120631,40962.8
1931.966216,40639
1934.808786,40713.8
1937.648351,40590.8
1940.484927,40445.8
1943.318525,40279.2
1946.149158,40311.6
1948.97684,41542.4
1951.801584,40048.8
1954.623403,39784
1957.44231,39791.2
1960.258318,39117.6
1963.071439,39251.2
1965.881688,39048.8
1968.689078,39364.4
1971.493621,38549.4
