Ramanshift[cm-1],Intensity
-93.47115107,14356.6
-87.69374369,12985.2
-81.9253076,12890
-76.16582701,13007.6
-70.41528615,13042.2
-64.67366933,12802.4
-58.94096086,12762.2
-53.21714512,12927
-47.50220652,13026.6
-41.79612954,13098.4
-36.09889866,13534.4
-30.41049843,13600.2
-24.73091343,13212.4
-19.0601283,13309.4
-13.39812769,13095.8
-7.744896327,12784.4
-2.100418946,12731.2
3.535319659,13366.8
9.162334658,12739.8
14.78064118,12914.4
20.39025432,12658.4
25.99118913,12722.6
31.58346061,13262.4
37.16708375,12985.4
42.74207347,12665.6
48.30844468,12728.4
53.86621222,12486.2
59.41539093,12305.8
64.95599558,12133.6
70.48804091,12596
76.01154164,12697.4
81.52651243,12124.4
87.03296792,12756.4
92.5309227,12914.8
98.02039134,12306.2
103.5013884,12556.4
108.9739282,12471.2
114.4380255,12370.8
119.8936944,12653.4
125.3409495,13491.8
130.779805,12334.2
136.2102753,12054.8
141.6323747,12152.6
147.0461174,12853.2
152.4515176,12363
157.8485895,12274.4
163.2373472,12107.6
168.6178049,12577
173.9899766,12847.2
179.3538764,12287.6
184.7095182,12436.2
190.0569161,12609
195.396084,12843.2
200.7270358,12191.8
206.0497854,12216
211.3643466,12016
216.6707333,12384.6
221.9689593,11956.6
227.2590382,12190
232.5409839,12155.8
237.8148101,12083.2
243.0805303,12138.4
248.3381582,12127
253.5877075,11978.6
258.8291917,12133.2
264.0626244,12351.2
269.288019,12458.2
274.5053891,12574.2
279.7147481,12302.4
284.9161094,12328.6
290.1094865,13464.6
295.2948927,16585.2
300.4723414,24104.4
305.6418459,33960.4
310.8034194,42874.4
315.9570752,48242.4
321.1028267,50001
326.2406869,51192.2
331.370669,52164.2
336.4927863,53134.2
341.6070517,54055.2
346.7134786,54726.6
351.8120798,55284.4
356.9028684,55408.4
361.9858576,55537
367.0610602,56239.8
372.1284892,56639.6
377.1881577,58725.6
382.2400784,62373
387.2842644,64164.4
392.3207284,64177.2
397.3494833,64219.6
402.370542,64337.8
407.3839172,64091
412.3896217,61549
417.3876683,59633.4
422.3780697,58168.2
427.3608386,56505.4
432.3359876,56478.8
437.3035295,55754.6
442.2634769,55545.4
447.2158423,53875.8
452.1606383,53221.2
457.0978776,52743.6
462.0275727,52754.8
466.9497361,53311.8
471.8643802,51887.4
476.7715176,51616
481.6711608,51634.4
486.5633221,52051.8
491.448014,51788.8
496.3252488,51320.2
501.195039,51379.6
506.0573969,51293
510.9123349,50402.6
515.7598651,49336.2
520.6,49648.2
525.4327518,49025.2
530.2581327,48780.2
535.076155,47787.6
539.8868309,48236.4
544.6901726,48022.4
549.4861922,47116
554.2749019,47871.8
559.0563139,46936.2
563.8304402,46555
568.597293,47621.2
573.3568844,47138.4
578.1092263,47067.6
582.8543308,47430.8
587.5922101,47414.4
592.322876,46492.4
597.0463405,46900.4
601.7626157,47377.4
606.4717135,46764.6
611.1736458,46883
615.8684246,46683
620.5560617,46946.8
625.2365691,46948.2
629.9099585,47900.4
634.5762419,48447.2
639.2354312,48230.4
643.887538,48252.8
648.5325743,47428.2
653.1705518,46290.6
657.8014823,45655.8
662.4253775,44816
667.0422493,45139.6
671.6521092,44698.2
676.2549691,44819.4
680.8508407,44572.4
685.4397355,44375.2
690.0216654,44585.6
694.5966419,44517.4
699.1646767,45722.6
703.7257814,45645.2
708.2799676,45742
712.827247,46398.6
717.367631,45932.2
721.9011314,45358
726.4277595,43918
730.9475271,43907.2
735.4604456,43714.6
739.9665264,44307.6
744.4657813,43830.2
748.9582215,43274
753.4438587,42291.8
757.9227042,42020.6
762.3947696,42116.4
766.8600662,41330.2
771.3186056,42610.8
775.770399,41563.4
780.215458,41772
784.6537939,40831.4
789.0854181,40716.2
793.510342,40851.8
797.9285769,41627.2
802.3401342,41627.6
806.7450253,42207
811.1432614,42327
815.5348538,42122
819.9198139,41455.4
824.2981531,41255.8
828.6698824,40820.2
833.0350133,40124.4
837.393557,39460.8
841.7455248,39736.4
846.0909278,38925
850.4297774,39040.4
854.7620848,38914.4
859.0878611,39142.8
863.4071176,38442.2
867.7198655,39114.8
872.026116,39203.8
876.3258802,39495.8
880.6191693,38983.4
884.9059946,38917.2
889.186367,39074.2
893.4602979,37839.8
897.7277982,37721
901.9888793,38654.8
906.2435521,39230
910.4918277,39034.8
914.7337174,39292.4
918.9692321,39431.8
923.1983831,40145.6
927.4211813,39152.6
931.6376378,40381.2
935.8477637,39852.2
940.0515701,40438.8
944.249068,40786.4
948.4402684,39812
952.6251825,40740.6
956.8038212,40346
960.9761955,40964.4
965.1423166,40276.4
969.3021953,40334.4
973.4558427,40228.4
977.6032699,40013.6
981.7444877,39866
985.8795072,39882
990.0083394,40146.6
994.1309953,39937.2
998.2474857,41531
1002.357822,42540.4
1006.462014,45167.8
1010.560075,44339.8
1014.652013,42435.8
1018.737841,41248.2
1022.81757,39925.6
1026.891209,39723.4
1030.958771,39711.8
1035.020266,40079.6
1039.075705,40555.6
1043.1251,40822.4
1047.16846,42146
1051.205797,43016.8
1055.237121,44350.6
1059.262444,47310.2
1063.281777,51974.4
1067.295131,59780.6
1071.302515,64159
1075.303942,64175.2
1079.299422,64225.8
1083.288966,64394
1087.272585,63090.6
1091.250289,53266.2
1095.222091,47327.2
1099.187999,43768.4
1103.148026,42682.2
1107.102183,42278.4
1111.050479,42349
1114.992927,42752.6
1118.929536,43733
1122.860318,45704
1126.785283,48272.4
1130.704443,53066.8
1134.617808,60457.8
1138.52539,64194.6
1142.427198,64266.4
1146.323244,64413.8
1150.213538,58444.6
1154.098093,54409
1157.976917,51535.8
1161.850023,51216.8
1165.717421,52915.8
1169.579121,53690
1173.435135,54090.2
1177.285474,52596.2
1181.130148,52777
1184.969169,52325
1188.802547,50456.8
1192.630292,47811.4
1196.452416,45444.8
1200.26893,43966
1204.079844,42656
1207.88517,41889.6
1211.684917,42510.4
1215.479098,41849.4
1219.267722,43868.8
1223.050801,41637.2
1226.828346,41782.8
1230.600366,41612.8
1234.366874,41343.2
1238.12788,40843.6
1241.883395,40658.2
1245.633429,40555.8
1249.377994,40444.4
1253.1171,39933.6
1256.850759,39943.2
1260.578981,39955.2
1264.301776,39507.8
1268.019157,39552.6
1271.731133,38849.4
1275.437715,38971.2
1279.138915,39244
1282.834743,39576.4
1286.52521,39367
1290.210328,39194.4
1293.890106,40006
1297.564555,41030
1301.233688,40712
1304.897514,41177.2
1308.556044,41175.2
1312.209289,41311.4
1315.857261,40576.2
1319.499969,40971.4
1323.137425,41556.2
1326.769641,41035.4
1330.396626,41954.8
1334.018391,41153
1337.634948,41642.8
1341.246307,41219.8
1344.85248,41316.8
1348.453477,41380.8
1352.049309,41397
1355.639987,41599.2
1359.225522,42204.2
1362.805925,41675.8
1366.381207,41722.4
1369.951379,42319.8
1373.516452,43113
1377.076436,43968.8
1380.631343,45266.4
1384.181184,47378.8
1387.725969,50371.8
1391.26571,51707.8
1394.800417,49894.2
1398.330102,46469.2
1401.854776,43563.4
1405.374448,41308.6
1408.889132,39993.2
1412.398837,39362.8
1415.903574,40247.6
1419.403355,42444.4
1422.89819,44383.4
1426.388091,47836
1429.873069,51822.4
1433.353134,53555.4
1436.828298,54159.2
1440.298571,52698.8
1443.763965,49972.6
1447.224491,46686.6
1450.68016,43966
1454.130983,42049.4
1457.576971,40452.8
1461.018135,39819
1464.454486,39579.4
1467.886036,39382.6
1471.312794,39680.6
1474.734774,39286.2
1478.151985,39377.2
1481.564439,38410.6
1484.972146,37812
1488.375119,37333.6
1491.773368,37863.4
1495.166904,38081.2
1498.555739,37190.8
1501.939883,37142
1505.319349,36656
1508.694146,37266.6
1512.064286,37451.8
1515.429781,37350.6
1518.790642,37181.2
1522.146879,37701
1525.498505,37035.6
1528.845529,37405
1532.187965,39079
1535.525822,39358.6
1538.859112,40198
1542.187846,41274
1545.512036,41236
1548.831693,43455
1552.146829,44077
1555.457453,44460.4
1558.763579,44705.6
1562.065216,45966
1565.362377,47126.2
1568.655073,47843.4
1571.943315,48164.8
1575.227114,48497
1578.506482,48622.6
1581.781431,48382.2
1585.051971,47315
1588.318114,46724.6
1591.579872,45195.6
1594.837255,42429.2
1598.090275,39275.8
1601.338945,36498.8
1604.583274,34735
1607.823275,33087.2
1611.058959,31759
1614.290338,31879
1617.517422,30207.4
1620.740224,30185.6
1623.958755,29188.4
1627.173027,28414.2
1630.38305,27691
1633.588838,27658.8
1636.7904,26935.2
1639.987749,26729
1643.180896,26481.8
1646.369853,25451.2
1649.554632,25988.2
1652.735244,24932.4
1655.9117,24215.6
1659.084013,24209.8
1662.252193,24740.2
1665.416254,23727.4
1668.576205,23854.8
1671.732059,23905.8
1674.883828,23930.4
1678.031523,23331.6
1681.175157,23128.8
1684.314739,23121.4
1687.450284,22823.4
1690.581801,22714.4
1693.709304,22463.2
1696.832803,22359.6
1699.952311,22412.6
1703.067839,22337.2
1706.179399,22307.6
1709.287003,22700.4
1712.390663,22155.2
1715.49039,22077
1718.586197,22398.2
1721.678095,22147.6
1724.766096,22084.4
1727.850213,21334.2
1730.930456,21683.4
1734.006838,21326
1737.079372,21461.8
1740.148067,21033.8
1743.212938,21923.4
1746.273996,21041.8
1749.331252,21002.6
1752.384718,20844.4
1755.434408,20760.8
1758.480332,20693.6
1761.522503,20600
1764.560933,20246.2
1767.595634,19736.6
1770.626618,20627.2
1773.653896,20487
1776.677482,19962.6
1779.697388,20088.2
1782.713625,20493.4
1785.726205,20389.8
1788.735141,20395.2
1791.740445,19920.8
1794.742129,19758
1797.740206,20248
1800.734687,20276.2
1803.725585,20038
1806.712912,19817
1809.69668,19600
1812.676902,19674.2
1815.65359,19263
1818.626756,19401.2
1821.596413,19522.4
1824.562573,19034.4
1827.525247,19478.6
1830.48445,19247
1833.440192,19323.8
1836.392487,19200.8
1839.341347,19352
1842.286784,19436.2
1845.22881,18824.6
1848.167439,19507.2
1851.102682,19255.8
1854.034553,19061.6
1856.963063,18846.2
1859.888226,19803.8
1862.810053,19222.6
1865.728557,19063.2
1868.643751,18717.8
1871.555648,18717
1874.46426,18346.8
1877.369599,18853.4
1880.271679,18770
1883.170512,18695.2
1886.06611,18997.8
1888.958487,18779.4
1891.847655,18768.6
1894.733626,18858.4
1897.616414,18836.4
1900.496032,18228.8
1903.372491,18655
1906.245805,19005.4
1909.115987,18785.6
1911.983049,18862.6
1914.847004,18615.4
1917.707866,18698.4
1920.565646,18673.8
1923.420359,18122
1926.272016,18423.8
1929.120631,18111
1931.966216,18220.8
1934.808786,18252.4
1937.648351,18334.2
1940.484927,18240.8
1943.318525,18333.2
1946.149158,18634.2
1948.97684,19664.6
1951.801584,18493
1954.623403,18174
1957.44231,18397
1960.258318,17766.4
1963.071439,17893.6
1965.881688,18062.8
1968.689078,18059.4
1971.493621,17727.2
