Ramanshift[cm-1],Intensity
-93.47115107,14466
-87.69374369,13072.8
-81.9253076,12887.2
-76.16582701,13087.6
-70.41528615,13065
-64.67366933,12734.4
-58.94096086,12717
-53.21714512,13145.8
-47.50220652,13131.2
-41.79612954,13213
-36.09889866,13542.4
-30.41049843,13644.6
-24.73091343,13291.2
-19.0601283,13396.4
-13.39812769,13120.4
-7.744896327,12940.4
-2.100418946,12704.8
3.535319659,13378.8
9.162334658,12692
14.78064118,13141.4
20.39025432,12784.4
25.99118913,12826.4
31.58346061,13227.6
37.16708375,13118.8
42.74207347,12756.2
48.30844468,12767.6
53.86621222,12582.4
59.41539093,12352.6
64.95599558,12369.6
70.48804091,12708.6
76.01154164,12900.2
81.52651243,12182.6
87.03296792,12752.8
92.5309227,13163
98.02039134,12389.2
103.5013884,12627
108.9739282,12470.4
114.4380255,12428
119.8936944,12725.6
125.3409495,13665.2
130.779805,12411.2
136.2102753,12130.2
141.6323747,12200.2
147.0461174,12830.4
152.4515176,12400.8
157.8485895,12329
163.2373472,12244.8
168.6178049,12474.4
173.9899766,12874.8
179.3538764,12349.6
184.7095182,12518
190.0569161,12645.4
195.396084,12772
200.7270358,12296.8
206.0497854,12405
211.3643466,12087.4
216.6707333,12422.2
221.9689593,12048.8
227.2590382,12174.8
232.5409839,12224.4
237.8148101,12100.2
243.0805303,12293.4
248.3381582,12201
253.5877075,12130.2
258.8291917,12262
264.0626244,12387
269.288019,12492.4
274.5053891,12741.2
279.7147481,12538.4
284.9161094,12896
290.1094865,14877.2
295.2948927,21100
300.4723414,35730.4
305.6418459,55541.4
310.8034194,64162.2
315.9570752,64161.6
321.1028267,64162
326.2406869,64162.4
331.370669,64161.8
336.4927863,64161.8
341.6070517,64162.2
346.7134786,64161.8
351.8120798,64161.6
356.9028684,64162.4
361.9858576,64162.4
367.0610602,64163.4
372.1284892,64162.8
377.1881577,64163.2
382.2400784,64163.8
387.2842644,64163.4
392.3207284,64163.4
397.3494833,64164
402.370542,64164
407.3839172,64163.8
412.3896217,64164.6
417.3876683,64164.6
422.3780697,64164.6
427.3608386,64165.6
432.3359876,64164.8
437.3035295,64164.6
442.2634769,64165.4
447.2158423,64164.8
452.1606383,64165.4
457.0978776,64165.6
462.0275727,64165
466.9497361,64164.2
471.8643802,64165
476.7715176,64164.2
481.6711608,64164.2
486.5633221,64164
491.448014,64164
496.3252488,64164
501.195039,64163.8
506.0573969,64163.4
510.9123349,64163.2
515.7598651,64162.6
520.6,64161.8
525.4327518,64162
530.2581327,64162.2
535.076155,64161.6
539.8868309,64161.4
544.6901726,64161.6
549.4861922,64161
554.2749019,64161.2
559.0563139,64161
563.8304402,64161.2
568.597293,64161.6
573.3568844,64161.6
578.1092263,64162
582.8543308,64161.4
587.5922101,64162.4
592.322876,64162
597.0463405,64162.6
601.7626157,64162.8
606.4717135,64163.2
611.1736458,64163.4
615.8684246,64163.4
620.5560617,64163.8
625.2365691,64164.2
629.9099585,64164.6
634.5762419,64165
639.2354312,64165.8
643.887538,64165.8
648.5325743,64165.6
653.1705518,64165.8
657.8014823,64165.6
662.4253775,64166
667.0422493,64166.2
671.6521092,64166
676.2549691,64165.6
680.8508407,64165.4
685.4397355,64166
690.0216654,64165.6
694.5966419,64164.8
699.1646767,64165.4
703.7257814,64165
708.2799676,64164.4
712.827247,64163.8
717.367631,64164
721.9011314,64163.4
726.4277595,64164
730.9475271,64163.6
735.4604456,64163.8
739.9665264,64164
744.4657813,64164
748.9582215,64163.4
753.4438587,64163.8
757.9227042,64164.4
762.3947696,64164.6
766.8600662,64164
771.3186056,64164.8
775.770399,64165.6
780.215458,64168
784.6537939,64167.4
789.0854181,64169
793.510342,64169
797.9285769,64169
802.3401342,64170.4
806.7450253,64172.8
811.1432614,64184.6
815.5348538,64213.4
819.9198139,64195.4
824.2981531,64276
828.6698824,64311.2
833.0350133,64037
837.393557,63510.2
841.7455248,63864.6
846.0909278,62881.4
850.4297774,63332.6
854.7620848,63395
859.0878611,63363.8
863.4071176,62846.4
867.7198655,63251.6
872.026116,63695.2
876.3258802,63863.2
880.6191693,63151.2
884.9059946,62948.2
889.186367,63036
893.4602979,61413.8
897.7277982,61255.2
901.9888793,62226
906.2435521,63181.6
910.4918277,62716.8
914.7337174,63146.8
918.9692321,63265.4
923.1983831,63970
927.4211813,63079.2
931.6376378,63663.8
935.8477637,63409.8
940.0515701,63901.6
944.249068,63962.2
948.4402684,63144
952.6251825,63938.4
956.8038212,63588
960.9761955,64109.4
965.1423166,63739.2
969.3021953,63826.4
973.4558427,63761.4
977.6032699,63548.4
981.7444877,63334.4
985.8795072,63458.4
990.0083394,63334.8
994.1309953,63144.4
998.2474857,63761.8
1002.357822,63649.8
1006.462014,64298.8
1010.560075,64343.6
1014.652013,63516.4
1018.737841,63068.2
1022.81757,62387.4
1026.891209,61955
1030.958771,61672
1035.020266,61875.4
1039.075705,62166.4
1043.1251,61725
1047.16846,62363.4
1051.205797,63181.6
1055.237121,63911.2
1059.262444,64167.8
1063.281777,64164.6
1067.295131,64161.6
1071.302515,64159.6
1075.303942,64159.6
1079.299422,64160.8
1083.288966,64169.4
1087.272585,64194.2
1091.250289,64259.4
1095.222091,64406.2
1099.187999,63166.8
1103.148026,62925.2
1107.102183,63069.4
1111.050479,63379.8
1114.992927,63896
1118.929536,64171.6
1122.860318,64166.6
1126.785283,64164.4
1130.704443,64163.4
1134.617808,64162
1138.52539,64161
1142.427198,64159.8
1146.323244,64160.2
1150.213538,64162.8
1154.098093,64169.4
1157.976917,64185.4
1161.850023,64214
1165.717421,64278.8
1169.579121,64168.6
1173.435135,64106.4
1177.285474,63650.2
1181.130148,64051
1184.969169,64191.8
1188.802547,64239
1192.630292,64377.4
1196.452416,63763.2
1200.26893,62340.4
1204.079844,60667.4
1207.88517,59795.6
1211.684917,60002.6
1215.479098,59376.6
1219.267722,61236
1223.050801,59243.8
1226.828346,59566.4
1230.600366,59538.4
1234.366874,59444.2
1238.12788,59014
1241.883395,59256.8
1245.633429,59279.6
1249.377994,59550.4
1253.1171,59221.2
1256.850759,58915
1260.578981,59157.4
1264.301776,59065.6
1268.019157,59152.4
1271.731133,58630.4
1275.437715,58496.6
1279.138915,58868.6
1282.834743,59379.4
1286.52521,59153.6
1290.210328,58471.6
1293.890106,59134.8
1297.564555,60469.2
1301.233688,60137.2
1304.897514,60665.4
1308.556044,60212.4
1312.209289,59602
1315.857261,58364.6
1319.499969,58242.6
1323.137425,58956
1326.769641,58130.6
1330.396626,58815
1334.018391,58200.4
1337.634948,58280.4
1341.246307,58138.6
1344.85248,58525.6
1348.453477,58164.2
1352.049309,58582.2
1355.639987,58855.4
1359.225522,59517.8
1362.805925,58978.8
1366.381207,58809
1369.951379,59576.8
1373.516452,60293.8
1377.076436,61095.2
1380.631343,62480.2
1384.181184,64171.8
1387.725969,64181.4
1391.26571,64233.8
1394.800417,64396.6
1398.330102,63017.2
1401.854776,59810.4
1405.374448,57401.2
1408.889132,56593
1412.398837,55968.6
1415.903574,57123
1419.403355,59910.6
1422.89819,62971.8
1426.388091,64161.6
1429.873069,64158.4
1433.353134,64159.8
1436.828298,64167.6
1440.298571,64195
1443.763965,64281.6
1447.224491,64355.4
1450.68016,60957
1454.130983,58043.8
1457.576971,55950.2
1461.018135,55147.6
1464.454486,54239.2
1467.886036,54014.4
1471.312794,54032.4
1474.734774,53704.8
1478.151985,53107.2
1481.564439,51962.2
1484.972146,50374.2
1488.375119,49558.6
1491.773368,49450.8
1495.166904,49639
1498.555739,48800.4
1501.939883,48694.4
1505.319349,47680
1508.694146,48147.4
1512.064286,47834
1515.429781,48204.2
1518.790642,47783.8
1522.146879,48279.2
1525.498505,47416.4
1528.845529,47036.8
1532.187965,47878
1535.525822,47773.8
1538.859112,47685
1542.187846,48494
1545.512036,47635.6
1548.831693,49039.6
1552.146829,49004.8
1555.457453,48766
1558.763579,48510
1562.065216,49689.8
1565.362377,50892.6
1568.655073,51566.6
1571.943315,52319.2
1575.227114,52268.6
1578.506482,52126
1581.781431,51422
1585.051971,49680.2
1588.318114,48509.2
1591.579872,47349.2
1594.837255,45433
1598.090275,43970.2
1601.338945,42369.4
1604.583274,42031.4
1607.823275,40978.8
1611.058959,40099.8
1614.290338,40015.2
1617.517422,38776.2
1620.740224,38745
1623.958755,38017.6
1627.173027,37298.4
1630.38305,36577.2
1633.588838,36440.6
1636.7904,36210.6
1639.987749,35899.4
1643.180896,35753.4
1646.369853,34582.6
1649.554632,35309.6
1652.735244,34194.2
1655.9117,33339.4
1659.084013,33521
1662.252193,34000
1665.416254,32892.2
1668.576205,32855.4
1671.732059,33011.6
1674.883828,32877.4
1678.031523,32084.2
1681.175157,31944
1684.314739,31907.8
1687.450284,31578.6
1690.581801,31263
1693.709304,30861.6
1696.832803,30788
1699.952311,30819.8
1703.067839,31020.2
1706.179399,30710.6
1709.287003,30974.8
1712.390663,30204
1715.49039,30424.8
1718.586197,30572.6
1721.678095,30308.2
1724.766096,30107.4
1727.850213,29489.6
1730.930456,29508.2
1734.006838,29259.2
1737.079372,29395.4
1740.148067,28719.4
1743.212938,29714.2
1746.273996,28677.4
1749.331252,28582.6
1752.384718,28394.8
1755.434408,28350.4
1758.480332,27982.2
1761.522503,28028.2
1764.560933,27414.6
1767.595634,27113.8
1770.626618,27603.6
1773.653896,27644.8
1776.677482,27087.2
1779.697388,27058.4
1782.713625,27622.6
1785.726205,27525.8
1788.735141,27411.6
1791.740445,26691.8
1794.742129,26655
1797.740206,27245.8
1800.734687,27325.4
1803.725585,26976
1806.712912,26850.6
1809.69668,26436
1812.676902,26614
1815.65359,26115.8
1818.626756,26128.6
1821.596413,26320.8
1824.562573,25852.2
1827.525247,26199
1830.48445,25898.8
1833.440192,26009.8
1836.392487,25782.4
1839.341347,26016.6
1842.286784,25669.2
1845.22881,25365.2
1848.167439,25813.8
1851.102682,25699.4
1854.034553,25414
1856.963063,25418.6
1859.888226,26253.4
1862.810053,25446.4
1865.728557,25279.4
1868.643751,24778
1871.555648,24846.2
1874.46426,24377
1877.369599,25113.2
1880.271679,24914.2
1883.170512,24580.4
1886.06611,25111.8
1888.958487,24647.8
1891.847655,24741
1894.733626,24667.8
1897.616414,24570.2
1900.496032,24094.6
1903.372491,24475.6
1906.245805,24715.2
1909.115987,24622.8
1911.983049,24455.6
1914.847004,24077
1917.707866,24414
1920.565646,24196
1923.420359,23719.6
1926.272016,23983.6
1929.120631,23797.6
1931.966216,23970.6
1934.808786,23688
1937.648351,23884
1940.484927,23557
1943.318525,23744.8
1946.149158,23945.8
1948.97684,25028.8
1951.801584,23570.4
1954.623403,23501.4
1957.44231,23679
1960.258318,22882
1963.071439,23054.8
1965.881688,23152
1968.689078,23404.4
1971.493621,22938.4
