Ramanshift[cm-1],Intensity
-93.47115107,14365.8
-87.69374369,13102.8
-81.9253076,12809.6
-76.16582701,13026.6
-70.41528615,13031.6
-64.67366933,12757.6
-58.94096086,12801
-53.21714512,12926.8
-47.50220652,13135
-41.79612954,13124
-36.09889866,13579.4
-30.41049843,13689.2
-24.73091343,13219.4
-19.0601283,13273
-13.39812769,13218.6
-7.744896327,12814.2
-2.100418946,12614.4
3.535319659,13388.8
9.162334658,12627
14.78064118,13067.8
20.39025432,12537.8
25.99118913,12774.6
31.58346061,13218.6
37.16708375,13071.4
42.74207347,12631
48.30844468,12702.6
53.86621222,12620
59.41539093,12242
64.95599558,12233.6
70.48804091,12605.2
76.01154164,12703.2
81.52651243,12186.4
87.03296792,12584.6
92.5309227,12981.2
98.02039134,12181
103.5013884,12661.6
108.9739282,12334
114.4380255,12430
119.8936944,12673
125.3409495,13527.6
130.779805,12311
136.2102753,12100.8
141.6323747,12090.6
147.0461174,12789.4
152.4515176,12345.4
157.8485895,12284.4
163.2373472,12074.8
168.6178049,12462.8
173.9899766,12708.2
179.3538764,12350.8
184.7095182,12371.6
190.0569161,12626
195.396084,12785.6
200.7270358,12083.2
206.0497854,12206.8
211.3643466,11937
216.6707333,12291.4
221.9689593,11926.4
227.2590382,12132.2
232.5409839,12158.4
237.8148101,11946
243.0805303,12202
248.3381582,12139
253.5877075,11971.8
258.8291917,12155
264.0626244,12195.6
269.288019,12353.8
274.5053891,12523.2
279.7147481,12231.8
284.9161094,12065.4
290.1094865,12514.2
295.2948927,13726.2
300.4723414,16456.2
305.6418459,19461.2
310.8034194,22282.8
315.9570752,24595.4
321.1028267,25193.6
326.2406869,25496.6
331.370669,25827.4
336.4927863,26067.6
341.6070517,26491.8
346.7134786,26459.6
351.8120798,27140.4
356.9028684,26733
361.9858576,26809.4
367.0610602,27183.8
372.1284892,26879.2
377.1881577,27324
382.2400784,27796.6
387.2842644,28679.2
392.3207284,29909.8
397.3494833,29265.2
402.370542,28922.8
407.3839172,27861.6
412.3896217,26871.2
417.3876683,26169.2
422.3780697,25985
427.3608386,25898.6
432.3359876,26166.2
437.3035295,26090.4
442.2634769,26180.8
447.2158423,25194
452.1606383,25324.8
457.0978776,25528.4
462.0275727,24810.6
466.9497361,25291.6
471.8643802,24770.2
476.7715176,25392.8
481.6711608,25311.6
486.5633221,25599.4
491.448014,25442
496.3252488,25273.4
501.195039,25196.4
506.0573969,25635.4
510.9123349,25283.8
515.7598651,24599
520.6,25093.6
525.4327518,24767.6
530.2581327,24882.8
535.076155,24190.4
539.8868309,24613
544.6901726,24641.8
549.4861922,24174.8
554.2749019,25224.4
559.0563139,24241.6
563.8304402,23856.2
568.597293,25011.6
573.3568844,24705.8
578.1092263,24059
582.8543308,24478
587.5922101,24417.2
592.322876,24113
597.0463405,24366.8
601.7626157,24616.2
606.4717135,23991.6
611.1736458,24127.4
615.8684246,24181.4
620.5560617,24417.4
625.2365691,24229.8
629.9099585,24514.6
634.5762419,24772
639.2354312,24032.2
643.887538,24327.4
648.5325743,23731.2
653.1705518,23872
657.8014823,24206.6
662.4253775,23365.4
667.0422493,23866
671.6521092,23780.4
676.2549691,23922
680.8508407,23813.4
685.4397355,23661.8
690.0216654,23819.6
694.5966419,23423.4
699.1646767,24018.2
703.7257814,23732.4
708.2799676,23961.6
712.827247,23985.8
717.367631,23801
721.9011314,23570.6
726.4277595,22833.8
730.9475271,23529
735.4604456,23425.6
739.9665264,23835.4
744.4657813,23373.6
748.9582215,23266.2
753.4438587,22603.6
757.9227042,22585.4
762.3947696,22857.8
766.8600662,22335.2
771.3186056,23706.6
775.770399,22767.8
780.215458,23171.4
784.6537939,22232.4
789.0854181,22168.6
793.510342,22145.2
797.9285769,22791.4
802.3401342,22135.8
806.7450253,22428.8
811.1432614,22097
815.5348538,21886.6
819.9198139,21652
824.2981531,21800
828.6698824,21875.4
833.0350133,21576.6
837.393557,21304.6
841.7455248,21588
846.0909278,21246.6
850.4297774,21226.6
854.7620848,21319
859.0878611,21524
863.4071176,20779.8
867.7198655,21442.2
872.026116,21799.8
876.3258802,22169.4
880.6191693,21552.4
884.9059946,21636.8
889.186367,22076.4
893.4602979,20815.4
897.7277982,20751.2
901.9888793,21148.2
906.2435521,21771.2
910.4918277,21176
914.7337174,21185
918.9692321,21033.8
923.1983831,21758
927.4211813,21370
931.6376378,22160.4
935.8477637,21510.6
940.0515701,21682
944.249068,21714
948.4402684,20870.2
952.6251825,21787.4
956.8038212,21342.6
960.9761955,22137
965.1423166,21553.6
969.3021953,21640.6
973.4558427,21525.8
977.6032699,21371
981.7444877,21419.4
985.8795072,21493.6
990.0083394,21433
994.1309953,21104
998.2474857,21550.4
1002.357822,20606.6
1006.462014,21563.4
1010.560075,21156
1014.652013,21360.4
1018.737841,21612.6
1022.81757,21007.2
1026.891209,20927.4
1030.958771,20803.6
1035.020266,21178.2
1039.075705,20854.4
1043.1251,20477.6
1047.16846,20951.4
1051.205797,20775.8
1055.237121,20560.2
1059.262444,20739.8
1063.281777,20795.4
1067.295131,21476.6
1071.302515,23449.4
1075.303942,23477.8
1079.299422,24379
1083.288966,23461.2
1087.272585,22306.4
1091.250289,21393
1095.222091,21179.4
1099.187999,20581.2
1103.148026,20525.8
1107.102183,20526.2
1111.050479,20733.8
1114.992927,20771.4
1118.929536,20539
1122.860318,20979.2
1126.785283,20480.4
1130.704443,20690.2
1134.617808,21833.8
1138.52539,21992
1142.427198,21808.6
1146.323244,21523
1150.213538,20907.2
1154.098093,21205.4
1157.976917,20478.4
1161.850023,20484.6
1165.717421,20958
1169.579121,20650.6
1173.435135,21043.6
1177.285474,20347.8
1181.130148,20530
1184.969169,20913.2
1188.802547,20584.2
1192.630292,20118.2
1196.452416,19648
1200.26893,19802
1204.079844,19408.2
1207.88517,18989.8
1211.684917,19682.4
1215.479098,19188.8
1219.267722,20832
1223.050801,19252
1226.828346,19314.6
1230.600366,19589.6
1234.366874,19589.8
1238.12788,19409.4
1241.883395,19564.8
1245.633429,19903.2
1249.377994,19814.8
1253.1171,18936.4
1256.850759,19465.4
1260.578981,19228.4
1264.301776,19401.4
1268.019157,19327.8
1271.731133,19142.6
1275.437715,18979.6
1279.138915,19611.8
1282.834743,19889.2
1286.52521,19381.4
1290.210328,19204
1293.890106,19263.8
1297.564555,19791.4
1301.233688,19053
1304.897514,19580
1308.556044,19645.8
1312.209289,19600.6
1315.857261,19098.2
1319.499969,19287.2
1323.137425,19959
1326.769641,19385.8
1330.396626,20151.6
1334.018391,19645.4
1337.634948,19673.2
1341.246307,19337.2
1344.85248,19255
1348.453477,19065.6
1352.049309,18982.2
1355.639987,19079.2
1359.225522,19579.8
1362.805925,19141.8
1366.381207,19233.6
1369.951379,19198.8
1373.516452,19351.6
1377.076436,19452
1380.631343,19320.6
1384.181184,19383.2
1387.725969,19484
1391.26571,19140.4
1394.800417,19005.6
1398.330102,18952.6
1401.854776,19068.2
1405.374448,18751
1408.889132,18405.8
1412.398837,18006.6
1415.903574,18299.6
1419.403355,19056.2
1422.89819,18704.4
1426.388091,18717.8
1429.873069,19354.6
1433.353134,18698
1436.828298,18587.8
1440.298571,18691.6
1443.763965,18283.4
1447.224491,17985.4
1450.68016,17842.8
1454.130983,18435.6
1457.576971,18144.2
1461.018135,18239.4
1464.454486,18312.8
1467.886036,17851.4
1471.312794,17810.2
1474.734774,17525.6
1478.151985,18400
1481.564439,18039.4
1484.972146,17888.8
1488.375119,17415.6
1491.773368,17729.2
1495.166904,18259.8
1498.555739,17447.4
1501.939883,17539.6
1505.319349,17085
1508.694146,17497.4
1512.064286,17559.2
1515.429781,17473.4
1518.790642,17249.8
1522.146879,17659.2
1525.498505,17018.8
1528.845529,16905.8
1532.187965,17703
1535.525822,17337.4
1538.859112,17222.8
1542.187846,17773.2
1545.512036,16953.4
1548.831693,18291.2
1552.146829,17735.8
1555.457453,17155.8
1558.763579,16745.2
1562.065216,17240.6
1565.362377,17639.4
1568.655073,17916.8
1571.943315,17919
1575.227114,17832.8
1578.506482,17867.4
1581.781431,18509.2
1585.051971,18150.4
1588.318114,18040.6
1591.579872,17914.6
1594.837255,17362.2
1598.090275,16873.6
1601.338945,16801.6
1604.583274,16960
1607.823275,16530.6
1611.058959,16036.8
1614.290338,16753.4
1617.517422,15815.6
1620.740224,16184.8
1623.958755,15784.6
1627.173027,15817
1630.38305,15406.8
1633.588838,15761.2
1636.7904,15501.4
1639.987749,15832.4
1643.180896,15841.2
1646.369853,15108
1649.554632,16027
1652.735244,15359.8
1655.9117,14816.6
1659.084013,15239
1662.252193,15854
1665.416254,14860.6
1668.576205,15195.2
1671.732059,15382.6
1674.883828,15330
1678.031523,14763.6
1681.175157,14946.4
1684.314739,14789.2
1687.450284,14773.6
1690.581801,14652
1693.709304,14419
1696.832803,14499
1699.952311,14643.4
1703.067839,14689.6
1706.179399,14603.6
1709.287003,15070.4
1712.390663,14440.4
1715.49039,14597.6
1718.586197,14896
1721.678095,14646.4
1724.766096,14757.4
1727.850213,14103.6
1730.930456,14395.4
1734.006838,14256.4
1737.079372,14447.6
1740.148067,14107.2
1743.212938,15167.8
1746.273996,14370.6
1749.331252,14263
1752.384718,14318.4
1755.434408,14267.8
1758.480332,14354.4
1761.522503,14228
1764.560933,14116.8
1767.595634,13769.6
1770.626618,14469.6
1773.653896,14450.8
1776.677482,13976.2
1779.697388,13986.4
1782.713625,14608.8
1785.726205,14436.4
1788.735141,14404.6
1791.740445,13998.6
1794.742129,13922
1797.740206,14381.6
1800.734687,14428
1803.725585,14203
1806.712912,14235.2
1809.69668,13833
1812.676902,13953.2
1815.65359,13646.8
1818.626756,13672
1821.596413,13892.4
1824.562573,13573.4
1827.525247,13821.8
1830.48445,13717.4
1833.440192,13896.2
1836.392487,13665
1839.341347,13893
1842.286784,13990.6
1845.22881,13361
1848.167439,13929.8
1851.102682,13833.8
1854.034553,13865
1856.963063,13417
1859.888226,14358
1862.810053,13948.2
1865.728557,13740.4
1868.643751,13356.6
1871.555648,13492.2
1874.46426,13167.2
1877.369599,13795.2
1880.271679,13547.6
1883.170512,13479.6
1886.06611,13979
1888.958487,13696.2
1891.847655,13606.6
1894.733626,13701.4
1897.616414,13869.2
1900.496032,13231.2
1903.372491,13588.2
1906.245805,13883.4
1909.115987,13950.4
1911.983049,13791.6
1914.847004,13713.6
1917.707866,13925.2
1920.565646,13832.4
1923.420359,13319
1926.272016,13624
1929.120631,13363.8
1931.966216,13482.4
1934.808786,13544.8
1937.648351,13710.6
1940.484927,13630.6
1943.318525,13858.6
1946.149158,13963.4
1948.97684,15016.8
1951.801584,13894.2
1954.623403,13644
1957.44231,13795.4
1960.258318,13317.4
1963.071439,13329.6
1965.881688,13540.8
1968.689078,13644.6
1971.493621,13348
