Ramanshift[cm-1],Intensity
-93.47115107,14544.4
-87.69374369,13224.8
-81.9253076,13011.4
-76.16582701,13107.8
-70.41528615,13240.6
-64.67366933,12817.2
-58.94096086,12917.8
-53.21714512,13167.2
-47.50220652,13307
-41.79612954,13280.2
-36.09889866,13743.8
-30.41049843,13723.2
-24.73091343,13428.6
-19.0601283,13404.2
-13.39812769,13233.6
-7.744896327,13021.8
-2.100418946,12847.6
3.535319659,13551.4
9.162334658,12927.8
14.78064118,13143.4
20.39025432,12839.2
25.99118913,12983.4
31.58346061,13416.2
37.16708375,13204.2
42.74207347,12803.2
48.30844468,12853.6
53.86621222,12697.4
59.41539093,12419.6
64.95599558,12360.6
70.48804091,12777
76.01154164,12944.4
81.52651243,12254.6
87.03296792,12879.2
92.5309227,13166.4
98.02039134,12406.2
103.5013884,12737
108.9739282,12534
114.4380255,12589
119.8936944,12826.4
125.3409495,13659.4
130.779805,12563.8
136.2102753,12299.4
141.6323747,12306.8
147.0461174,12983.4
152.4515176,12545
157.8485895,12431
163.2373472,12327.6
168.6178049,12690
173.9899766,12925.6
179.3538764,12515.8
184.7095182,12581.8
190.0569161,12880.6
195.396084,13002
200.7270358,12418.6
206.0497854,12411.2
211.3643466,12230.6
216.6707333,12638.2
221.9689593,12160
227.2590382,12272.2
232.5409839,12421.6
237.8148101,12307
243.0805303,12381.6
248.3381582,12444.6
253.5877075,12236
258.8291917,12468.4
264.0626244,12449.2
269.288019,12819.4
274.5053891,13112.2
279.7147481,12965.4
284.9161094,13640
290.1094865,17069.8
295.2948927,27800.4
300.4723414,52477.8
305.6418459,64162.6
310.8034194,64162
315.9570752,64162.4
321.1028267,64161.8
326.2406869,64161.6
331.370669,64162.4
336.4927863,64161.2
341.6070517,64161.6
346.7134786,64161.6
351.8120798,64160.8
356.9028684,64161
361.9858576,64160.6
367.0610602,64160
372.1284892,64160.8
377.1881577,64160.2
382.2400784,64159.8
387.2842644,64159.2
392.3207284,64159.8
397.3494833,64159.6
402.370542,64159
407.3839172,64160
412.3896217,64159.8
417.3876683,64160.6
422.3780697,64159.8
427.3608386,64160.4
432.3359876,64160.6
437.3035295,64160.6
442.2634769,64160.8
447.2158423,64160.8
452.1606383,64161
457.0978776,64161.2
462.0275727,64160
466.9497361,64161.2
471.8643802,64161.2
476.7715176,64161.2
481.6711608,64161.2
486.5633221,64161.8
491.448014,64162.2
496.3252488,64161.8
501.195039,64162.4
506.0573969,64161.8
510.9123349,64161.2
515.7598651,64161.4
520.6,64161.4
525.4327518,64162.2
530.2581327,64161.2
535.076155,64162
539.8868309,64161.4
544.6901726,64161.2
549.4861922,64161
554.2749019,64161.4
559.0563139,64161.6
563.8304402,64161
568.597293,64161
573.3568844,64161.2
578.1092263,64160.8
582.8543308,64161.2
587.5922101,64160.4
592.322876,64160.4
597.0463405,64160.6
601.7626157,64160.2
606.4717135,64160.8
611.1736458,64160.4
615.8684246,64160.8
620.5560617,64160
625.2365691,64160.4
629.9099585,64160.6
634.5762419,64160.2
639.2354312,64160.4
643.887538,64160
648.5325743,64160
653.1705518,64159.8
657.8014823,64160
662.4253775,64159
667.0422493,64159.2
671.6521092,64160.2
676.2549691,64160.2
680.8508407,64160
685.4397355,64160
690.0216654,64159.8
694.5966419,64160.6
699.1646767,64160
703.7257814,64160.8
708.2799676,64160.2
712.827247,64160.6
717.367631,64160.4
721.9011314,64160.8
726.4277595,64160.6
730.9475271,64161.2
735.4604456,64160.8
739.9665264,64161
744.4657813,64162
748.9582215,64162.2
753.4438587,64161.6
757.9227042,64161.2
762.3947696,64162.2
766.8600662,64161.6
771.3186056,64161.8
775.770399,64161.8
780.215458,64161.4
784.6537939,64161.6
789.0854181,64161.4
793.510342,64161.2
797.9285769,64161.2
802.3401342,64161.6
806.7450253,64161.6
811.1432614,64162.2
815.5348538,64163.2
819.9198139,64161.8
824.2981531,64162.4
828.6698824,64162
833.0350133,64161.6
837.393557,64162.8
841.7455248,64162
846.0909278,64162.2
850.4297774,64161.8
854.7620848,64161.8
859.0878611,64162.2
863.4071176,64162.2
867.7198655,64162
872.026116,64161.4
876.3258802,64162.6
880.6191693,64162
884.9059946,64162
889.186367,64162.2
893.4602979,64162.2
897.7277982,64162.2
901.9888793,64160.8
906.2435521,64161.8
910.4918277,64161.8
914.7337174,64161.8
918.9692321,64161.4
923.1983831,64161.6
927.4211813,64162
931.6376378,64162.4
935.8477637,64162.2
940.0515701,64162
944.249068,64162.2
948.4402684,64162.4
952.6251825,64161.8
956.8038212,64161.8
960.9761955,64161.4
965.1423166,64162
969.3021953,64161.8
973.4558427,64162.2
977.6032699,64162.6
981.7444877,64162.2
985.8795072,64161.6
990.0083394,64161.8
994.1309953,64162.2
998.2474857,64162
1002.357822,64161.8
1006.462014,64162
1010.560075,64162.8
1014.652013,64162.6
1018.737841,64163
1022.81757,64163
1026.891209,64162.8
1030.958771,64163.6
1035.020266,64163.6
1039.075705,64163.4
1043.1251,64163.6
1047.16846,64163.4
1051.205797,64163.2
1055.237121,64163.2
1059.262444,64162.8
1063.281777,64161.8
1067.295131,64161.4
1071.302515,64162.8
1075.303942,64161.2
1079.299422,64162.6
1083.288966,64161.4
1087.272585,64162
1091.250289,64162
1095.222091,64161.2
1099.187999,64161.8
1103.148026,64162
1107.102183,64161.4
1111.050479,64161.4
1114.992927,64161.8
1118.929536,64161.8
1122.860318,64161.6
1126.785283,64160.6
1130.704443,64160.8
1134.617808,64161
1138.52539,64161.6
1142.427198,64161.2
1146.323244,64161.2
1150.213538,64162.2
1154.098093,64161.8
1157.976917,64162.2
1161.850023,64161.6
1165.717421,64162.2
1169.579121,64161.8
1173.435135,64162.2
1177.285474,64162.2
1181.130148,64163
1184.969169,64163
1188.802547,64162.8
1192.630292,64163.4
1196.452416,64163.8
1200.26893,64163.6
1204.079844,64164
1207.88517,64164.2
1211.684917,64164.4
1215.479098,64164.2
1219.267722,64164.4
1223.050801,64164
1226.828346,64163.8
1230.600366,64164.2
1234.366874,64164.2
1238.12788,64164.8
1241.883395,64164.2
1245.633429,64163
1249.377994,64164.2
1253.1171,64162.8
1256.850759,64163.6
1260.578981,64162.8
1264.301776,64163.4
1268.019157,64163.4
1271.731133,64163.4
1275.437715,64163.2
1279.138915,64163
1282.834743,64162.2
1286.52521,64161.8
1290.210328,64161.6
1293.890106,64162
1297.564555,64161.8
1301.233688,64161.4
1304.897514,64160.8
1308.556044,64162
1312.209289,64162.4
1315.857261,64161.6
1319.499969,64162
1323.137425,64162.4
1326.769641,64161.8
1330.396626,64162.4
1334.018391,64162.6
1337.634948,64162.6
1341.246307,64163
1344.85248,64164.2
1348.453477,64164.2
1352.049309,64164
1355.639987,64164.6
1359.225522,64164.2
1362.805925,64164.8
1366.381207,64164.8
1369.951379,64164.6
1373.516452,64165.2
1377.076436,64164.2
1380.631343,64165.4
1384.181184,64164.2
1387.725969,64164.8
1391.26571,64164.8
1394.800417,64164.2
1398.330102,64164.4
1401.854776,64164.2
1405.374448,64164.4
1408.889132,64163.8
1412.398837,64164
1415.903574,64163.6
1419.403355,64163.6
1422.89819,64163.2
1426.388091,64163
1429.873069,64162.4
1433.353134,64162.4
1436.828298,64161.4
1440.298571,64162.2
1443.763965,64162
1447.224491,64162.2
1450.68016,64161.8
1454.130983,64161.4
1457.576971,64161.6
1461.018135,64161.4
1464.454486,64162
1467.886036,64161.6
1471.312794,64162
1474.734774,64162.6
1478.151985,64163.2
1481.564439,64162.8
1484.972146,64163.2
1488.375119,64163.2
1491.773368,64163.2
1495.166904,64164.2
1498.555739,64164
1501.939883,64164.6
1505.319349,64164.6
1508.694146,64165
1512.064286,64165.2
1515.429781,64165.8
1518.790642,64166
1522.146879,64165.8
1525.498505,64165
1528.845529,64166.6
1532.187965,64166.2
1535.525822,64166.4
1538.859112,64165.2
1542.187846,64165.6
1545.512036,64166
1548.831693,64165.6
1552.146829,64165.4
1555.457453,64164.8
1558.763579,64164.4
1562.065216,64163.2
1565.362377,64163.6
1568.655073,64162
1571.943315,64162.8
1575.227114,64161.8
1578.506482,64161.6
1581.781431,64161.8
1585.051971,64161
1588.318114,64161
1591.579872,64161
1594.837255,64160.8
1598.090275,64160.4
1601.338945,64160.2
1604.583274,64159.8
1607.823275,64159
1611.058959,64159.2
1614.290338,64162.8
1617.517422,64172.8
1620.740224,64197.6
1623.958755,64267.8
1627.173027,64218.4
1630.38305,64178.8
1633.588838,63331.8
1636.7904,63196.6
1639.987749,62199.2
1643.180896,61983.8
1646.369853,60123.2
1649.554632,60888.2
1652.735244,59293.2
1655.9117,58407
1659.084013,58055.8
1662.252193,58413.6
1665.416254,56983
1668.576205,57069.8
1671.732059,56771.2
1674.883828,57011.8
1678.031523,55911
1681.175157,55611
1684.314739,55432.4
1687.450284,54920.6
1690.581801,54545.2
1693.709304,54020.2
1696.832803,53961.2
1699.952311,53777.6
1703.067839,53854.8
1706.179399,53341.4
1709.287003,53499.8
1712.390663,52721.6
1715.49039,52867.6
1718.586197,52447.8
1721.678095,52426.2
1724.766096,51888.8
1727.850213,51294.6
1730.930456,50605.2
1734.006838,50732.6
1737.079372,50345.2
1740.148067,50161.6
1743.212938,50624
1746.273996,49381.4
1749.331252,49125.2
1752.384718,48688.6
1755.434408,48542.8
1758.480332,48171.4
1761.522503,48069
1764.560933,47080.6
1767.595634,46584.2
1770.626618,47013
1773.653896,46771.6
1776.677482,45996.6
1779.697388,46268.8
1782.713625,46667.4
1785.726205,46485.8
1788.735141,46419
1791.740445,45855
1794.742129,45569
1797.740206,45916
1800.734687,46081.8
1803.725585,45577.4
1806.712912,45608.8
1809.69668,45196.4
1812.676902,45337.8
1815.65359,44661.4
1818.626756,44724.6
1821.596413,44664
1824.562573,44232.4
1827.525247,44548
1830.48445,44068
1833.440192,44396.4
1836.392487,43663.2
1839.341347,43994.2
1842.286784,43554.6
1845.22881,43339.6
1848.167439,43477.6
1851.102682,43406.4
1854.034553,43074.2
1856.963063,42796.6
1859.888226,43573
1862.810053,42785.8
1865.728557,42551.8
1868.643751,42047
1871.555648,42146.2
1874.46426,41011
1877.369599,42258.4
1880.271679,41623.4
1883.170512,41434.6
1886.06611,41835
1888.958487,41331.8
1891.847655,41264.6
1894.733626,41171.6
1897.616414,41339
1900.496032,40502.2
1903.372491,40845.8
1906.245805,40845.4
1909.115987,40869.6
1911.983049,40392
1914.847004,40311.2
1917.707866,40461.6
1920.565646,40139.2
1923.420359,39732.8
1926.272016,39542.2
1929.120631,39276.2
1931.966216,39341.6
1934.808786,39152
1937.648351,39364.6
1940.484927,38778.6
1943.318525,38846.8
1946.149158,38918.6
1948.97684,39998.2
1951.801584,38598.6
1954.623403,38160.8
1957.44231,38416.4
1960.258318,37600.2
1963.071439,37792.2
1965.881688,37676.4
1968.689078,38029.2
1971.493621,37038.6
