Ramanshift[cm-1],Intensity
-93.47115107,14415
-87.69374369,13120.8
-81.9253076,12875.4
-76.16582701,13010.6
-70.41528615,13060.6
-64.67366933,12675.6
-58.94096086,12769
-53.21714512,12943
-47.50220652,13218.8
-41.79612954,13068
-36.09889866,13577
-30.41049843,13621
-24.73091343,13291.8
-19.0601283,13213.6
-13.39812769,13077.2
-7.744896327,12860.8
-2.100418946,12749.6
3.535319659,13287.8
9.162334658,12625.8
14.78064118,13003.4
20.39025432,12652
25.99118913,12695
31.58346061,13248.2
37.16708375,13017.2
42.74207347,12621.6
48.30844468,12669.2
53.86621222,12612.4
59.41539093,12311
64.95599558,12177.8
70.48804091,12600
76.01154164,12746.8
81.52651243,12122.2
87.03296792,12596.8
92.5309227,12952.4
98.02039134,12265.2
103.5013884,12662
108.9739282,12395.4
114.4380255,12352.4
119.8936944,12670.4
125.3409495,13532.4
130.779805,12323.8
136.2102753,12022.8
141.6323747,12157.8
147.0461174,12760.4
152.4515176,12298
157.8485895,12251.2
163.2373472,12120.6
168.6178049,12491.6
173.9899766,12721.4
179.3538764,12296.4
184.7095182,12302.2
190.0569161,12517.4
195.396084,12703.2
200.7270358,12214.6
206.0497854,12267.2
211.3643466,11950.2
216.6707333,12401.8
221.9689593,11973.4
227.2590382,12102.2
232.5409839,12111.8
237.8148101,12029
243.0805303,12173.4
248.3381582,12150.6
253.5877075,12039.8
258.8291917,12086.8
264.0626244,12078.4
269.288019,12374.4
274.5053891,12555.6
279.7147481,12232
284.9161094,12013
290.1094865,12489.2
295.2948927,13416.6
300.4723414,15986.2
305.6418459,18720.4
310.8034194,21180.8
315.9570752,23063.6
321.1028267,23507.2
326.2406869,23613.6
331.370669,23870.2
336.4927863,24145.8
341.6070517,24381.8
346.7134786,24545.4
351.8120798,24818.6
356.9028684,24471.8
361.9858576,24599.6
367.0610602,25026
372.1284892,24519.8
377.1881577,25203.8
382.2400784,25657.6
387.2842644,26227.8
392.3207284,26541.2
397.3494833,25700.2
402.370542,25618
407.3839172,24783.2
412.3896217,24255
417.3876683,23700.8
422.3780697,23738.8
427.3608386,23659.4
432.3359876,23957.4
437.3035295,23836.4
442.2634769,23897.2
447.2158423,22964.2
452.1606383,23018.8
457.0978776,23154
462.0275727,22418.4
466.9497361,23119.6
471.8643802,22340.6
476.7715176,23005.4
481.6711608,22863.4
486.5633221,23239.6
491.448014,22922.2
496.3252488,22751.2
501.195039,22796
506.0573969,23023.4
510.9123349,22705.2
515.7598651,22026.2
520.6,22537.4
525.4327518,22460.4
530.2581327,22491.2
535.076155,21943.2
539.8868309,22309.6
544.6901726,22260.4
549.4861922,21880.6
554.2749019,22789.2
559.0563139,21881.8
563.8304402,21496
568.597293,22843.4
573.3568844,22262.8
578.1092263,21751.6
582.8543308,22277.8
587.5922101,22150.8
592.322876,21842.8
597.0463405,21952.2
601.7626157,22195.2
606.4717135,21669
611.1736458,21662.4
615.8684246,21692
620.5560617,21955.4
625.2365691,21748.8
629.9099585,22144.2
634.5762419,22337
639.2354312,21623.2
643.887538,21800.8
648.5325743,21460.4
653.1705518,21273.6
657.8014823,21470.6
662.4253775,20712
667.0422493,21122.4
671.6521092,21073.4
676.2549691,21323.6
680.8508407,21169.6
685.4397355,20932.8
690.0216654,21048.6
694.5966419,20839.4
699.1646767,21525
703.7257814,21246.2
708.2799676,21285
712.827247,21415.8
717.367631,21042.8
721.9011314,20969.2
726.4277595,20369.8
730.9475271,20920.4
735.4604456,20760.8
739.9665264,21187.6
744.4657813,20686.8
748.9582215,20646.2
753.4438587,20083.4
757.9227042,19997.8
762.3947696,20410
766.8600662,19779.2
771.3186056,21285.6
775.770399,20149.8
780.215458,20499
784.6537939,19823.6
789.0854181,19800
793.510342,19616
797.9285769,20298
802.3401342,19745.8
806.7450253,19753.4
811.1432614,19740
815.5348538,19504
819.9198139,19142.4
824.2981531,19459.6
828.6698824,19463
833.0350133,19241.2
837.393557,18980
841.7455248,19374.8
846.0909278,19079
850.4297774,19142.4
854.7620848,19110
859.0878611,19330.2
863.4071176,18610
867.7198655,19311.2
872.026116,19484.8
876.3258802,19861.4
880.6191693,19497.4
884.9059946,19457
889.186367,19794.2
893.4602979,18577.4
897.7277982,18651.8
901.9888793,19023.4
906.2435521,19424
910.4918277,18789.6
914.7337174,18896.8
918.9692321,18684.4
923.1983831,19337
927.4211813,18865.6
931.6376378,19609.4
935.8477637,19048.2
940.0515701,19260.2
944.249068,19300.6
948.4402684,18435.6
952.6251825,19216.6
956.8038212,18853.4
960.9761955,19478.8
965.1423166,19041.6
969.3021953,18989.6
973.4558427,19022.2
977.6032699,18849.6
981.7444877,18813.2
985.8795072,18790.4
990.0083394,18977.2
994.1309953,18639.8
998.2474857,19050.6
1002.357822,18223.4
1006.462014,18865.8
1010.560075,18565.6
1014.652013,18930.6
1018.737841,19185
1022.81757,18699
1026.891209,18447.2
1030.958771,18387
1035.020266,18755.4
1039.075705,18327.8
1043.1251,18070.6
1047.16846,18489.8
1051.205797,18390.4
1055.237121,18082.6
1059.262444,18425.2
1063.281777,18524.2
1067.295131,19336.2
1071.302515,20913
1075.303942,20847
1079.299422,21544.8
1083.288966,20403.8
1087.272585,19316
1091.250289,18796
1095.222091,18602.2
1099.187999,18226
1103.148026,18178
1107.102183,18072.6
1111.050479,18311
1114.992927,18220.8
1118.929536,18101
1122.860318,18428.6
1126.785283,17955
1130.704443,18082.2
1134.617808,19252
1138.52539,19196.6
1142.427198,18907.8
1146.323244,18842.6
1150.213538,18205
1154.098093,18547.6
1157.976917,17892
1161.850023,17810
1165.717421,18478.4
1169.579121,18192.8
1173.435135,18700.6
1177.285474,17898.8
1181.130148,18066.8
1184.969169,18339.4
1188.802547,18183.4
1192.630292,17603.4
1196.452416,17326
1200.26893,17362.4
1204.079844,16974.8
1207.88517,16646.6
1211.684917,17354.6
1215.479098,16879.2
1219.267722,18441.6
1223.050801,16929.4
1226.828346,17023.6
1230.600366,17308.2
1234.366874,17201
1238.12788,17029.6
1241.883395,17056.4
1245.633429,17332.6
1249.377994,17371.6
1253.1171,16484.6
1256.850759,17012.6
1260.578981,16813
1264.301776,16977
1268.019157,16866.8
1271.731133,16567.6
1275.437715,16405.4
1279.138915,17023
1282.834743,17196.6
1286.52521,16683.8
1290.210328,16429.6
1293.890106,16589
1297.564555,17216.8
1301.233688,16506.6
1304.897514,16867.4
1308.556044,16978.6
1312.209289,16904.2
1315.857261,16352.8
1319.499969,16494.8
1323.137425,17255.4
1326.769641,16748.8
1330.396626,17365.8
1334.018391,16767.6
1337.634948,16840.2
1341.246307,16504.8
1344.85248,16479.2
1348.453477,16403.6
1352.049309,16408
1355.639987,16293.8
1359.225522,16933.8
1362.805925,16545.8
1366.381207,16499.2
1369.951379,16572.2
1373.516452,16796
1377.076436,16812.6
1380.631343,16826.2
1384.181184,16613.8
1387.725969,16895.2
1391.26571,16573.6
1394.800417,16283.4
1398.330102,16325.6
1401.854776,16475.2
1405.374448,16270.4
1408.889132,15895.8
1412.398837,15498.4
1415.903574,16021.4
1419.403355,16587.6
1422.89819,16403.6
1426.388091,16377.4
1429.873069,16891.2
1433.353134,16222.8
1436.828298,16112.8
1440.298571,16394.2
1443.763965,15844.2
1447.224491,15717.2
1450.68016,15693.2
1454.130983,16087
1457.576971,15968.2
1461.018135,16102.2
1464.454486,16253.6
1467.886036,15726.6
1471.312794,15687
1474.734774,15358.8
1478.151985,16148.4
1481.564439,15896.4
1484.972146,15758.6
1488.375119,15287.4
1491.773368,15690.2
1495.166904,16178.6
1498.555739,15503
1501.939883,15677.2
1505.319349,15165.4
1508.694146,15500.4
1512.064286,15478.6
1515.429781,15564
1518.790642,15443.2
1522.146879,15647.8
1525.498505,15173.8
1528.845529,15086
1532.187965,15797.8
1535.525822,15330
1538.859112,15385.6
1542.187846,15964.6
1545.512036,15195.6
1548.831693,16494.8
1552.146829,16003.8
1555.457453,15402.6
1558.763579,15011.4
1562.065216,15544.8
1565.362377,15929.4
1568.655073,16192.4
1571.943315,16129
1575.227114,16141.2
1578.506482,16027.6
1581.781431,16771.4
1585.051971,16190.6
1588.318114,16105
1591.579872,15860
1594.837255,15461.8
1598.090275,15166.8
1601.338945,15024
1604.583274,15427.4
1607.823275,15019.4
1611.058959,14541.4
1614.290338,15247.4
1617.517422,14351.2
1620.740224,14730.2
1623.958755,14381
1627.173027,14402.6
1630.38305,14000.6
1633.588838,14501.4
1636.7904,14181.2
1639.987749,14388.2
1643.180896,14575.4
1646.369853,13856
1649.554632,14732.2
1652.735244,14055
1655.9117,13632.2
1659.084013,14010.6
1662.252193,14732.4
1665.416254,13631.2
1668.576205,14069.8
1671.732059,14239.8
1674.883828,14162.4
1678.031523,13770.4
1681.175157,13857.4
1684.314739,13905
1687.450284,13770
1690.581801,13699.2
1693.709304,13455.4
1696.832803,13623.2
1699.952311,13661
1703.067839,13760.4
1706.179399,13683.6
1709.287003,14077.4
1712.390663,13707.2
1715.49039,13670.8
1718.586197,13983.2
1721.678095,13820.6
1724.766096,13744.2
1727.850213,13255
1730.930456,13605
1734.006838,13267.8
1737.079372,13651.8
1740.148067,13283.2
1743.212938,14316
1746.273996,13459.2
1749.331252,13407.8
1752.384718,13502.4
1755.434408,13586.8
1758.480332,13444.4
1761.522503,13488.8
1764.560933,13196
1767.595634,12877.2
1770.626618,13628.2
1773.653896,13590.4
1776.677482,13252
1779.697388,13116.6
1782.713625,13790
1785.726205,13710.2
1788.735141,13641.6
1791.740445,13226.4
1794.742129,13075.6
1797.740206,13704.4
1800.734687,13739.4
1803.725585,13450.8
1806.712912,13327.6
1809.69668,13123.8
1812.676902,13199.6
1815.65359,12784.2
1818.626756,12960.2
1821.596413,13061.6
1824.562573,12770.6
1827.525247,13108.4
1830.48445,12974.6
1833.440192,13105
1836.392487,12975.4
1839.341347,13251.6
1842.286784,13268.4
1845.22881,12721.4
1848.167439,13260.6
1851.102682,12947.2
1854.034553,12981.8
1856.963063,12819
1859.888226,13795
1862.810053,13215.6
1865.728557,12994
1868.643751,12742.2
1871.555648,12792.2
1874.46426,12473
1877.369599,13097.4
1880.271679,12977.2
1883.170512,12878.4
1886.06611,13366.4
1888.958487,12968.4
1891.847655,12914.4
1894.733626,13091.4
1897.616414,13135.2
1900.496032,12657.4
1903.372491,12971.4
1906.245805,13245.8
1909.115987,13320.4
1911.983049,13149.4
1914.847004,13036
1917.707866,13226.4
1920.565646,13136.8
1923.420359,12736.4
1926.272016,13031.8
1929.120631,12802
1931.966216,12976.6
1934.808786,12865.2
1937.648351,13097.4
1940.484927,13047.4
1943.318525,13169
1946.149158,13388.6
1948.97684,14364.6
1951.801584,13361.2
1954.623403,13199.4
1957.44231,13286.8
1960.258318,12705.6
1963.071439,12711.6
1965.881688,12877.4
1968.689078,13112.8
1971.493621,12752.4
