Ramanshift[cm-1],Intensity
-93.47115107,14555.6
-87.69374369,13145.4
-81.9253076,13049.4
-76.16582701,13222.6
-70.41528615,13134.6
-64.67366933,12873.2
-58.94096086,12881.6
-53.21714512,13091
-47.50220652,13186.4
-41.79612954,13321.8
-36.09889866,13613.6
-30.41049843,13801.6
-24.73091343,13490.6
-19.0601283,13496.2
-13.39812769,13226
-7.744896327,13009.8
-2.100418946,12737
3.535319659,13443.6
9.162334658,12845.6
14.78064118,13247.8
20.39025432,12846.6
25.99118913,12970.2
31.58346061,13316.2
37.16708375,13106.8
42.74207347,12845.2
48.30844468,12881.2
53.86621222,12773
59.41539093,12391.2
64.95599558,12302
70.48804091,12731.4
76.01154164,12938.4
81.52651243,12224
87.03296792,12750.4
92.5309227,13038.4
98.02039134,12433.2
103.5013884,12798.2
108.9739282,12506.6
114.4380255,12504.4
119.8936944,12794.6
125.3409495,13667
130.779805,12534
136.2102753,12338.2
141.6323747,12299.4
147.0461174,12953
152.4515176,12458.4
157.8485895,12549.2
163.2373472,12397.4
168.6178049,12694.8
173.9899766,12958.6
179.3538764,12476.8
184.7095182,12592
190.0569161,12790.2
195.396084,12914.2
200.7270358,12344
206.0497854,12427.2
211.3643466,12108.2
216.6707333,12526.2
221.9689593,12208.6
227.2590382,12321.6
232.5409839,12324.2
237.8148101,12233
243.0805303,12338.2
248.3381582,12389.6
253.5877075,12247
258.8291917,12467.2
264.0626244,12432.2
269.288019,12755
274.5053891,12907.6
279.7147481,12864.2
284.9161094,13326.6
290.1094865,16427.6
295.2948927,25820
300.4723414,47105.8
305.6418459,64163.8
310.8034194,64162
315.9570752,64161.2
321.1028267,64161.2
326.2406869,64161.8
331.370669,64161.2
336.4927863,64161.8
341.6070517,64161.4
346.7134786,64161.4
351.8120798,64161.4
356.9028684,64161.4
361.9858576,64161
367.0610602,64161.4
372.1284892,64161.4
377.1881577,64161.2
382.2400784,64161.4
387.2842644,64160.8
392.3207284,64160.6
397.3494833,64161
402.370542,64160.6
407.3839172,64161.6
412.3896217,64160.6
417.3876683,64160.2
422.3780697,64160.2
427.3608386,64160.2
432.3359876,64160
437.3035295,64159.6
442.2634769,64160.2
447.2158423,64159.8
452.1606383,64159.6
457.0978776,64160.4
462.0275727,64159.6
466.9497361,64160.6
471.8643802,64160.2
476.7715176,64161.2
481.6711608,64160.4
486.5633221,64161
491.448014,64160
496.3252488,64161.2
501.195039,64161
506.0573969,64161
510.9123349,64161.2
515.7598651,64160.8
520.6,64160.6
525.4327518,64160.4
530.2581327,64161
535.076155,64161.4
539.8868309,64160.6
544.6901726,64161.8
549.4861922,64160.4
554.2749019,64161
559.0563139,64161
563.8304402,64160.8
568.597293,64160.4
573.3568844,64160
578.1092263,64160.4
582.8543308,64160.8
587.5922101,64161.2
592.322876,64160.8
597.0463405,64161.2
601.7626157,64160.4
606.4717135,64160.6
611.1736458,64161.2
615.8684246,64161.2
620.5560617,64160.6
625.2365691,64160.4
629.9099585,64160.2
634.5762419,64161
639.2354312,64161.6
643.887538,64161.2
648.5325743,64160.6
653.1705518,64161.4
657.8014823,64161
662.4253775,64160.6
667.0422493,64160.6
671.6521092,64161.2
676.2549691,64161.2
680.8508407,64160.8
685.4397355,64160.6
690.0216654,64160.6
694.5966419,64160.6
699.1646767,64161
703.7257814,64160.6
708.2799676,64160.6
712.827247,64160.6
717.367631,64160.8
721.9011314,64161
726.4277595,64161.2
730.9475271,64161.6
735.4604456,64161.6
739.9665264,64162
744.4657813,64161.2
748.9582215,64162.2
753.4438587,64162.2
757.9227042,64161.6
762.3947696,64162.8
766.8600662,64162.4
771.3186056,64163
775.770399,64163.4
780.215458,64162.8
784.6537939,64162.8
789.0854181,64163.2
793.510342,64163
797.9285769,64163
802.3401342,64163.8
806.7450253,64163.2
811.1432614,64163.2
815.5348538,64163.6
819.9198139,64164
824.2981531,64163.2
828.6698824,64163.8
833.0350133,64162.4
837.393557,64163.6
841.7455248,64163
846.0909278,64163.4
850.4297774,64163
854.7620848,64163.2
859.0878611,64162
863.4071176,64163
867.7198655,64162.6
872.026116,64162
876.3258802,64162.2
880.6191693,64162.2
884.9059946,64161.8
889.186367,64162.8
893.4602979,64162.4
897.7277982,64162.4
901.9888793,64162.6
906.2435521,64162.6
910.4918277,64162.4
914.7337174,64162.6
918.9692321,64161.2
923.1983831,64162.6
927.4211813,64162
931.6376378,64162
935.8477637,64162
940.0515701,64162.4
944.249068,64162.6
948.4402684,64162.4
952.6251825,64162.4
956.8038212,64162
960.9761955,64162.8
965.1423166,64162.4
969.3021953,64162.6
973.4558427,64162.6
977.6032699,64163
981.7444877,64163.2
985.8795072,64163.2
990.0083394,64163
994.1309953,64162.8
998.2474857,64163.6
1002.357822,64163
1006.462014,64163.4
1010.560075,64162.6
1014.652013,64163.6
1018.737841,64164.2
1022.81757,64164
1026.891209,64164.4
1030.958771,64164.8
1035.020266,64164.8
1039.075705,64164.6
1043.1251,64164.2
1047.16846,64164.6
1051.205797,64163.8
1055.237121,64163.6
1059.262444,64163
1063.281777,64163
1067.295131,64161.6
1071.302515,64161.8
1075.303942,64161.6
1079.299422,64162
1083.288966,64161
1087.272585,64161.4
1091.250289,64161.8
1095.222091,64162
1099.187999,64161.2
1103.148026,64161.8
1107.102183,64161
1111.050479,64162
1114.992927,64161.6
1118.929536,64161.6
1122.860318,64160.8
1126.785283,64160.6
1130.704443,64160.4
1134.617808,64160.4
1138.52539,64160.6
1142.427198,64160.8
1146.323244,64161.8
1150.213538,64162.2
1154.098093,64162.2
1157.976917,64163.8
1161.850023,64163.6
1165.717421,64163.4
1169.579121,64163.8
1173.435135,64164.4
1177.285474,64164.6
1181.130148,64164.8
1184.969169,64165.2
1188.802547,64165.2
1192.630292,64166.2
1196.452416,64166
1200.26893,64166.4
1204.079844,64166
1207.88517,64166.4
1211.684917,64165.8
1215.479098,64165
1219.267722,64165
1223.050801,64165.2
1226.828346,64164.8
1230.600366,64163.8
1234.366874,64163.8
1238.12788,64163.8
1241.883395,64163
1245.633429,64162.2
1249.377994,64162.2
1253.1171,64162.2
1256.850759,64161.8
1260.578981,64161.8
1264.301776,64161.6
1268.019157,64161.6
1271.731133,64161.4
1275.437715,64161.6
1279.138915,64161.8
1282.834743,64161.6
1286.52521,64161.6
1290.210328,64161.4
1293.890106,64161.6
1297.564555,64162.6
1301.233688,64162.8
1304.897514,64162.6
1308.556044,64163
1312.209289,64163.8
1315.857261,64164.4
1319.499969,64163.8
1323.137425,64164.8
1326.769641,64164
1330.396626,64165
1334.018391,64164.8
1337.634948,64165.2
1341.246307,64165.6
1344.85248,64165.8
1348.453477,64166.2
1352.049309,64165.6
1355.639987,64166
1359.225522,64166.6
1362.805925,64166.2
1366.381207,64166.4
1369.951379,64166.4
1373.516452,64166.8
1377.076436,64166
1380.631343,64165.6
1384.181184,64165
1387.725969,64165.4
1391.26571,64165
1394.800417,64164.6
1398.330102,64164.6
1401.854776,64164.2
1405.374448,64164.6
1408.889132,64164
1412.398837,64164.8
1415.903574,64164
1419.403355,64163.6
1422.89819,64163.2
1426.388091,64162.4
1429.873069,64161.6
1433.353134,64161
1436.828298,64161
1440.298571,64161.8
1443.763965,64160.8
1447.224491,64161.6
1450.68016,64161.6
1454.130983,64162.2
1457.576971,64161.2
1461.018135,64161.6
1464.454486,64161.6
1467.886036,64161.8
1471.312794,64162
1474.734774,64162
1478.151985,64163
1481.564439,64163.6
1484.972146,64164.6
1488.375119,64164.2
1491.773368,64164.6
1495.166904,64165.2
1498.555739,64165.8
1501.939883,64165.8
1505.319349,64166.4
1508.694146,64166.8
1512.064286,64166.4
1515.429781,64167
1518.790642,64167.2
1522.146879,64167.6
1525.498505,64167.2
1528.845529,64167.2
1532.187965,64167.2
1535.525822,64167
1538.859112,64167
1542.187846,64167.2
1545.512036,64166.8
1548.831693,64166.2
1552.146829,64165.4
1555.457453,64164.8
1558.763579,64164.6
1562.065216,64164
1565.362377,64163.4
1568.655073,64163.2
1571.943315,64162.6
1575.227114,64161.2
1578.506482,64161.6
1581.781431,64161
1585.051971,64161
1588.318114,64160.8
1591.579872,64160.2
1594.837255,64160.8
1598.090275,64160.4
1601.338945,64160.4
1604.583274,64160.4
1607.823275,64159.6
1611.058959,64159.4
1614.290338,64163.4
1617.517422,64171.4
1620.740224,64190.8
1623.958755,64242.6
1627.173027,64373
1630.38305,64075.4
1633.588838,63530.8
1636.7904,62986.2
1639.987749,62640.2
1643.180896,61980.8
1646.369853,60655.4
1649.554632,61063.6
1652.735244,59617.4
1655.9117,58676.4
1659.084013,58427.8
1662.252193,58796
1665.416254,57666.2
1668.576205,57508.4
1671.732059,57643
1674.883828,57404.2
1678.031523,56368.2
1681.175157,56106.2
1684.314739,56025.2
1687.450284,55281.6
1690.581801,55050.8
1693.709304,54538.8
1696.832803,54504.6
1699.952311,54292.2
1703.067839,54245
1706.179399,53896
1709.287003,54085
1712.390663,53322.2
1715.49039,53168.2
1718.586197,53241.4
1721.678095,52885.4
1724.766096,52726.4
1727.850213,51837.2
1730.930456,51478
1734.006838,51430.6
1737.079372,51287.8
1740.148067,50695.8
1743.212938,51453
1746.273996,50106.4
1749.331252,49887.8
1752.384718,49611.6
1755.434408,49395.6
1758.480332,48948.2
1761.522503,48479.6
1764.560933,47960.2
1767.595634,47180.6
1770.626618,47847.6
1773.653896,47541.6
1776.677482,47055
1779.697388,46729
1782.713625,47574.8
1785.726205,47087
1788.735141,47011.4
1791.740445,46556
1794.742129,46236.8
1797.740206,46852
1800.734687,46833.2
1803.725585,46825.8
1806.712912,46047.8
1809.69668,46116.6
1812.676902,46017.6
1815.65359,45259.2
1818.626756,45430
1821.596413,45347.2
1824.562573,44916
1827.525247,45278.8
1830.48445,44976
1833.440192,45097.2
1836.392487,44787
1839.341347,44673
1842.286784,44611.4
1845.22881,43792.2
1848.167439,44600.8
1851.102682,44187.4
1854.034553,44035.6
1856.963063,43852.6
1859.888226,44455.8
1862.810053,43793.6
1865.728557,43423.8
1868.643751,43184.8
1871.555648,43075.4
1874.46426,42318.2
1877.369599,43008.2
1880.271679,42646.2
1883.170512,42422.8
1886.06611,42733.4
1888.958487,42682.6
1891.847655,42241
1894.733626,42425
1897.616414,42329
1900.496032,41597
1903.372491,41780.8
1906.245805,42106.8
1909.115987,41928.8
1911.983049,41593.6
1914.847004,41401
1917.707866,41400.2
1920.565646,41355
1923.420359,40728.2
1926.272016,40805
1929.120631,40567.4
1931.966216,40468.8
1934.808786,40425.6
1937.648351,40442
1940.484927,40002.6
1943.318525,39998.2
1946.149158,40327.6
1948.97684,40987.4
1951.801584,39740.6
1954.623403,39395
1957.44231,39483.8
1960.258318,38977
1963.071439,38726.8
1965.881688,38938
1968.689078,38932.4
1971.493621,38340.4
