Ramanshift[cm-1],Intensity
-93.47115107,14307.8
-87.69374369,13072
-81.9253076,12761.4
-76.16582701,12880.6
-70.41528615,12986.2
-64.67366933,12575.8
-58.94096086,12692.8
-53.21714512,12921.6
-47.50220652,13038
-41.79612954,13067.4
-36.09889866,13534.4
-30.41049843,13557
-24.73091343,13241.2
-19.0601283,13133.8
-13.39812769,12954.2
-7.744896327,12806.8
-2.100418946,12577.4
3.535319659,13325
9.162334658,12579
14.78064118,12983.8
20.39025432,12523.8
25.99118913,12710
31.58346061,13122.6
37.16708375,12889.8
42.74207347,12534
48.30844468,12719.2
53.86621222,12575.8
59.41539093,12164.2
64.95599558,12162
70.48804091,12494.6
76.01154164,12724
81.52651243,12105.8
87.03296792,12602.2
92.5309227,12910.6
98.02039134,12240.6
103.5013884,12521.8
108.9739282,12275.2
114.4380255,12323.8
119.8936944,12582.8
125.3409495,13444.6
130.779805,12228.8
136.2102753,11926.2
141.6323747,12089.8
147.0461174,12734.4
152.4515176,12197.4
157.8485895,12230.4
163.2373472,12063
168.6178049,12347.2
173.9899766,12719
179.3538764,12185
184.7095182,12316
190.0569161,12589.4
195.396084,12675.4
200.7270358,12155.2
206.0497854,12210.8
211.3643466,11938
216.6707333,12351
221.9689593,11848.6
227.2590382,12127.6
232.5409839,12013.2
237.8148101,11932
243.0805303,12081.6
248.3381582,12069.2
253.5877075,11950.4
258.8291917,12076
264.0626244,12061.2
269.288019,12344.4
274.5053891,12470.8
279.7147481,12172.8
284.9161094,11920.4
290.1094865,12108.6
295.2948927,12692
300.4723414,14015.8
305.6418459,14889.6
310.8034194,15693.4
315.9570752,16945.4
321.1028267,17179.8
326.2406869,17202
331.370669,17561.2
336.4927863,17420.2
341.6070517,17502.4
346.7134786,17460.4
351.8120798,17669.2
356.9028684,17425.8
361.9858576,17407.8
367.0610602,17801.8
372.1284892,17554.8
377.1881577,17963.6
382.2400784,18138.8
387.2842644,18783
392.3207284,19633.2
397.3494833,19089
402.370542,19078.4
407.3839172,18172.8
412.3896217,17473.2
417.3876683,16902
422.3780697,17021.4
427.3608386,16998.6
432.3359876,17416.2
437.3035295,17565.4
442.2634769,17576
447.2158423,16700
452.1606383,16795.2
457.0978776,17115.8
462.0275727,16440.4
466.9497361,16929.6
471.8643802,16312.2
476.7715176,16888.4
481.6711608,16842.8
486.5633221,17059.4
491.448014,16823.4
496.3252488,16729.2
501.195039,16792.6
506.0573969,17145.4
510.9123349,16893.6
515.7598651,16351.6
520.6,16857.2
525.4327518,16776.8
530.2581327,16763.6
535.076155,16293.2
539.8868309,16612.8
544.6901726,16834.2
549.4861922,16491
554.2749019,17379.4
559.0563139,16435.4
563.8304402,16205.2
568.597293,17389.6
573.3568844,16958.6
578.1092263,16472.2
582.8543308,16818
587.5922101,16817.6
592.322876,16531.2
597.0463405,16590.4
601.7626157,16788.4
606.4717135,16423.2
611.1736458,16384
615.8684246,16472.2
620.5560617,16772.4
625.2365691,16516.2
629.9099585,16891.4
634.5762419,17250.4
639.2354312,16555.4
643.887538,16796.2
648.5325743,16398.8
653.1705518,16464
657.8014823,16577.8
662.4253775,15903.2
667.0422493,16267.8
671.6521092,16298.4
676.2549691,16442.4
680.8508407,16452.8
685.4397355,16346.4
690.0216654,16445
694.5966419,16273
699.1646767,16718
703.7257814,16409.6
708.2799676,16570.2
712.827247,16672.6
717.367631,16393.6
721.9011314,16371.4
726.4277595,15784.4
730.9475271,16493.4
735.4604456,16228.4
739.9665264,16790.4
744.4657813,16319.4
748.9582215,16246
753.4438587,15848.6
757.9227042,15716.6
762.3947696,16255.8
766.8600662,15849.8
771.3186056,17258.8
775.770399,16077.8
780.215458,16452.2
784.6537939,15863
789.0854181,15666.6
793.510342,15917.6
797.9285769,16479
802.3401342,15895
806.7450253,16030
811.1432614,16059.6
815.5348538,15785.6
819.9198139,15573.2
824.2981531,15783.2
828.6698824,15875.6
833.0350133,15772
837.393557,15499
841.7455248,15800.4
846.0909278,15630.8
850.4297774,15501
854.7620848,15661.8
859.0878611,15912
863.4071176,15215.6
867.7198655,15650.8
872.026116,15962.6
876.3258802,16519.2
880.6191693,15871
884.9059946,16001.6
889.186367,16387.6
893.4602979,15364.8
897.7277982,15271
901.9888793,15672.6
906.2435521,15990
910.4918277,15493.4
914.7337174,15444
918.9692321,15259.8
923.1983831,16044
927.4211813,15560
931.6376378,16350.6
935.8477637,15918.8
940.0515701,16030.6
944.249068,16089.4
948.4402684,15329.8
952.6251825,16147.6
956.8038212,15663.2
960.9761955,16401.6
965.1423166,15761
969.3021953,15822.8
973.4558427,15862.2
977.6032699,15608
981.7444877,15878.2
985.8795072,15799.8
990.0083394,15906.6
994.1309953,15577
998.2474857,15912
1002.357822,15083.8
1006.462014,15602.6
1010.560075,15415
1014.652013,15767.2
1018.737841,16100.2
1022.81757,15465.6
1026.891209,15413
1030.958771,15304.6
1035.020266,15693
1039.075705,15413.2
1043.1251,15113.2
1047.16846,15323.8
1051.205797,15177.6
1055.237121,15074.6
1059.262444,14965.2
1063.281777,14689.2
1067.295131,14918
1071.302515,16132.2
1075.303942,16008.6
1079.299422,17194
1083.288966,16555
1087.272585,15940
1091.250289,15684
1095.222091,15521
1099.187999,15223.8
1103.148026,15220.2
1107.102183,15110.2
1111.050479,15280.2
1114.992927,15251.2
1118.929536,15008.8
1122.860318,15312.2
1126.785283,14740
1130.704443,14807.8
1134.617808,15467.6
1138.52539,15445
1142.427198,15293.2
1146.323244,15383
1150.213538,15040.8
1154.098093,15501.2
1157.976917,14774
1161.850023,14736.6
1165.717421,15314.8
1169.579121,14911.2
1173.435135,15487.6
1177.285474,14628.2
1181.130148,14867.2
1184.969169,15311.8
1188.802547,15150.6
1192.630292,14656.8
1196.452416,14389.4
1200.26893,14515.6
1204.079844,14229.4
1207.88517,13830.6
1211.684917,14576.8
1215.479098,14227.4
1219.267722,15782.4
1223.050801,14267.6
1226.828346,14330.2
1230.600366,14548.6
1234.366874,14574.8
1238.12788,14308.2
1241.883395,14347.4
1245.633429,14712
1249.377994,14769.2
1253.1171,13915.2
1256.850759,14325.2
1260.578981,14310.6
1264.301776,14377
1268.019157,14181.2
1271.731133,13995.4
1275.437715,13868.4
1279.138915,14511.8
1282.834743,14632.8
1286.52521,14155.6
1290.210328,13955.2
1293.890106,14112.2
1297.564555,14566.8
1301.233688,13913.2
1304.897514,14319.2
1308.556044,14439.2
1312.209289,14364.2
1315.857261,13793.6
1319.499969,13980.8
1323.137425,14741.6
1326.769641,14139.2
1330.396626,14857
1334.018391,14216.8
1337.634948,14362.8
1341.246307,14098.4
1344.85248,14012.6
1348.453477,13783.8
1352.049309,13897.2
1355.639987,13957.6
1359.225522,14567.2
1362.805925,14239
1366.381207,14278.4
1369.951379,14191.4
1373.516452,14217.4
1377.076436,14511.6
1380.631343,14273.2
1384.181184,14078
1387.725969,14229.8
1391.26571,13927.6
1394.800417,13775.4
1398.330102,13994.8
1401.854776,14157
1405.374448,13964.4
1408.889132,13720
1412.398837,13305.6
1415.903574,13530.4
1419.403355,14207.6
1422.89819,13745.8
1426.388091,13776.4
1429.873069,14363
1433.353134,13652.2
1436.828298,13772
1440.298571,13906.8
1443.763965,13718.4
1447.224491,13515.6
1450.68016,13551
1454.130983,14089.6
1457.576971,13998.6
1461.018135,14167.4
1464.454486,14264.8
1467.886036,13649.4
1471.312794,13752.2
1474.734774,13312.2
1478.151985,14175
1481.564439,13855
1484.972146,13868
1488.375119,13391
1491.773368,13728.4
1495.166904,14401.8
1498.555739,13731.6
1501.939883,13773.6
1505.319349,13361.8
1508.694146,13626.2
1512.064286,13680
1515.429781,13575.6
1518.790642,13449.2
1522.146879,13915.6
1525.498505,13350.8
1528.845529,13216
1532.187965,13959.6
1535.525822,13595.4
1538.859112,13531.4
1542.187846,14121.2
1545.512036,13232.6
1548.831693,14565.4
1552.146829,14070.6
1555.457453,13314.2
1558.763579,12924.6
1562.065216,13358.4
1565.362377,13664.8
1568.655073,14035.6
1571.943315,13756.6
1575.227114,13701.2
1578.506482,13785.8
1581.781431,14260.2
1585.051971,13928.6
1588.318114,14186.6
1591.579872,14119.2
1594.837255,13856.4
1598.090275,13668.4
1601.338945,13485
1604.583274,13856.2
1607.823275,13543
1611.058959,12998.4
1614.290338,13871
1617.517422,12924.4
1620.740224,13271
1623.958755,13033.4
1627.173027,13028
1630.38305,12626.4
1633.588838,13207.8
1636.7904,12954.4
1639.987749,13144.2
1643.180896,13384.8
1646.369853,12713.2
1649.554632,13520
1652.735244,12970.2
1655.9117,12524.6
1659.084013,12974.2
1662.252193,13600.8
1665.416254,12618.2
1668.576205,12985
1671.732059,13320.2
1674.883828,13320.6
1678.031523,12681
1681.175157,12924
1684.314739,12890.4
1687.450284,12812.8
1690.581801,12774.8
1693.709304,12523.6
1696.832803,12619.8
1699.952311,12817.8
1703.067839,12760.2
1706.179399,12787.8
1709.287003,13187.6
1712.390663,12848.8
1715.49039,12816.6
1718.586197,13159.2
1721.678095,13071.6
1724.766096,13050.2
1727.850213,12426.8
1730.930456,12770
1734.006838,12687.8
1737.079372,13048.6
1740.148067,12575.2
1743.212938,13588
1746.273996,12761.2
1749.331252,12720.8
1752.384718,12777.2
1755.434408,12799
1758.480332,12827.2
1761.522503,12863.6
1764.560933,12561.6
1767.595634,12217.8
1770.626618,13042.6
1773.653896,13004.4
1776.677482,12560.6
1779.697388,12622.6
1782.713625,13156.6
1785.726205,13148.8
1788.735141,13109
1791.740445,12594.6
1794.742129,12577
1797.740206,13115.2
1800.734687,13047.8
1803.725585,12857.2
1806.712912,12771
1809.69668,12501.4
1812.676902,12644.6
1815.65359,12296.8
1818.626756,12437.6
1821.596413,12566.6
1824.562573,12198
1827.525247,12605.2
1830.48445,12406
1833.440192,12593.4
1836.392487,12449.2
1839.341347,12615
1842.286784,12750.8
1845.22881,12176.2
1848.167439,12780.6
1851.102682,12540.4
1854.034553,12569.4
1856.963063,12318
1859.888226,13293.6
1862.810053,12717.6
1865.728557,12510.2
1868.643751,12304.6
1871.555648,12332.6
1874.46426,12025.6
1877.369599,12629.6
1880.271679,12522.6
1883.170512,12242.2
1886.06611,12891
1888.958487,12452.4
1891.847655,12510.4
1894.733626,12604.8
1897.616414,12688.8
1900.496032,12168.2
1903.372491,12645.6
1906.245805,12815.4
1909.115987,12928.4
1911.983049,12766.8
1914.847004,12679
1917.707866,12821.8
1920.565646,12781.6
1923.420359,12370.4
1926.272016,12589
1929.120631,12323.4
1931.966216,12546.6
1934.808786,12532.2
1937.648351,12653.6
1940.484927,12635.2
1943.318525,12829.4
1946.149158,13009.4
1948.97684,14144.4
1951.801584,12952.6
1954.623403,12726.8
1957.44231,12867.4
1960.258318,12285.6
1963.071439,12309.6
1965.881688,12548.4
1968.689078,12648.2
1971.493621,12420.2
