Ramanshift[cm-1],Intensity
-93.47115107,14247.6
-87.69374369,12952.4
-81.9253076,12840.8
-76.16582701,12901.8
-70.41528615,13016.2
-64.67366933,12641.8
-58.94096086,12708.8
-53.21714512,12934.4
-47.50220652,13067.2
-41.79612954,13024.4
-36.09889866,13528
-30.41049843,13538.6
-24.73091343,13196.8
-19.0601283,13325.4
-13.39812769,12981.2
-7.744896327,12817.6
-2.100418946,12632.4
3.535319659,13238.2
9.162334658,12598
14.78064118,12931.4
20.39025432,12584.2
25.99118913,12685.2
31.58346061,13089.6
37.16708375,12948.6
42.74207347,12590
48.30844468,12670.6
53.86621222,12420
59.41539093,12153.6
64.95599558,12046
70.48804091,12502.2
76.01154164,12652
81.52651243,12061.6
87.03296792,12574.6
92.5309227,12910
98.02039134,12169.4
103.5013884,12556.4
108.9739282,12346.2
114.4380255,12280.8
119.8936944,12491.4
125.3409495,13434.8
130.779805,12321
136.2102753,11938.8
141.6323747,12045
147.0461174,12695.6
152.4515176,12234.6
157.8485895,12231
163.2373472,12058.6
168.6178049,12372.4
173.9899766,12772
179.3538764,12236.8
184.7095182,12290.8
190.0569161,12551.4
195.396084,12761.4
200.7270358,12076.2
206.0497854,12159.6
211.3643466,11926.6
216.6707333,12338.6
221.9689593,11909
227.2590382,12209.8
232.5409839,12049
237.8148101,11934.4
243.0805303,12062.8
248.3381582,12075.2
253.5877075,11859.2
258.8291917,12100.2
264.0626244,12067
269.288019,12353.2
274.5053891,12470.2
279.7147481,12172.2
284.9161094,11903.8
290.1094865,12080.2
295.2948927,12639.4
300.4723414,14014.6
305.6418459,14625.2
310.8034194,15645.2
315.9570752,16780
321.1028267,17006.6
326.2406869,17144.8
331.370669,17341.8
336.4927863,17222.6
341.6070517,17402.2
346.7134786,17332.6
351.8120798,17566
356.9028684,17189.8
361.9858576,17417.8
367.0610602,17716
372.1284892,17513
377.1881577,17856.2
382.2400784,18004.2
387.2842644,18649
392.3207284,19345.8
397.3494833,18974
402.370542,18771.4
407.3839172,18095.6
412.3896217,17491.8
417.3876683,16934.6
422.3780697,16942.8
427.3608386,17035.6
432.3359876,17168
437.3035295,17455.2
442.2634769,17456.2
447.2158423,16618
452.1606383,16635.8
457.0978776,16929.4
462.0275727,16269.6
466.9497361,16771.4
471.8643802,16233.2
476.7715176,16741.2
481.6711608,16648.6
486.5633221,16991.2
491.448014,16637
496.3252488,16538
501.195039,16729.2
506.0573969,17050
510.9123349,16737
515.7598651,16210
520.6,16657.4
525.4327518,16680.2
530.2581327,16647.6
535.076155,16140
539.8868309,16403.6
544.6901726,16661.8
549.4861922,16393.8
554.2749019,17347
559.0563139,16396.2
563.8304402,16166.4
568.597293,17183
573.3568844,16892.2
578.1092263,16283.4
582.8543308,16814.4
587.5922101,16736.6
592.322876,16365.4
597.0463405,16479.8
601.7626157,16734.4
606.4717135,16212.2
611.1736458,16257.8
615.8684246,16399.8
620.5560617,16686.2
625.2365691,16363
629.9099585,16801.6
634.5762419,17029.2
639.2354312,16515.4
643.887538,16664.2
648.5325743,16429.2
653.1705518,16202.4
657.8014823,16503.2
662.4253775,15878.2
667.0422493,16271.4
671.6521092,16272.2
676.2549691,16396.6
680.8508407,16301
685.4397355,16247.8
690.0216654,16400
694.5966419,16116
699.1646767,16718.2
703.7257814,16291.4
708.2799676,16466.2
712.827247,16570.8
717.367631,16294.2
721.9011314,16242.2
726.4277595,15589.8
730.9475271,16266.2
735.4604456,16259.2
739.9665264,16691.8
744.4657813,16128.2
748.9582215,16189.2
753.4438587,15785.4
757.9227042,15527.2
762.3947696,16236
766.8600662,15721.2
771.3186056,17151.6
775.770399,16024.8
780.215458,16377
784.6537939,15742.2
789.0854181,15596.2
793.510342,15752.8
797.9285769,16331.4
802.3401342,15827.2
806.7450253,15959.8
811.1432614,15864.6
815.5348538,15664.8
819.9198139,15351.6
824.2981531,15734.2
828.6698824,15849
833.0350133,15725
837.393557,15372
841.7455248,15732.4
846.0909278,15486.2
850.4297774,15427
854.7620848,15536.2
859.0878611,15863.4
863.4071176,15151.2
867.7198655,15635.8
872.026116,16019.2
876.3258802,16318.8
880.6191693,15892.2
884.9059946,15879.4
889.186367,16343.4
893.4602979,15263.8
897.7277982,15186.8
901.9888793,15634.8
906.2435521,16010.2
910.4918277,15283.2
914.7337174,15375.4
918.9692321,15215.4
923.1983831,16034.2
927.4211813,15478.2
931.6376378,16324.8
935.8477637,15684.6
940.0515701,15911
944.249068,15878.8
948.4402684,15144.2
952.6251825,16070.2
956.8038212,15705.2
960.9761955,16314.2
965.1423166,15775.8
969.3021953,15709.6
973.4558427,15814.2
977.6032699,15552.6
981.7444877,15797.2
985.8795072,15690.8
990.0083394,15808
994.1309953,15340.8
998.2474857,15884.6
1002.357822,15018.6
1006.462014,15635.6
1010.560075,15370.4
1014.652013,15656.6
1018.737841,15878.2
1022.81757,15479.2
1026.891209,15351.8
1030.958771,15231.8
1035.020266,15575.2
1039.075705,15311
1043.1251,15061
1047.16846,15377.2
1051.205797,15291.2
1055.237121,14899.8
1059.262444,14925.4
1063.281777,14696.8
1067.295131,14803
1071.302515,16145
1075.303942,15810.6
1079.299422,17063.8
1083.288966,16415
1087.272585,16042.4
1091.250289,15574.2
1095.222091,15425.4
1099.187999,15095.2
1103.148026,15151.8
1107.102183,15082
1111.050479,15099.2
1114.992927,15069.4
1118.929536,14910.2
1122.860318,15268.6
1126.785283,14678
1130.704443,14583
1134.617808,15440.6
1138.52539,15438.4
1142.427198,15245.8
1146.323244,15311
1150.213538,14915.6
1154.098093,15415.6
1157.976917,14757.8
1161.850023,14666
1165.717421,15260
1169.579121,14845.4
1173.435135,15274
1177.285474,14471.2
1181.130148,14797.6
1184.969169,15199.6
1188.802547,15149.2
1192.630292,14578.8
1196.452416,14371.8
1200.26893,14410.6
1204.079844,14206.4
1207.88517,13789.4
1211.684917,14553.4
1215.479098,14118.2
1219.267722,15676.6
1223.050801,14279.2
1226.828346,14262.4
1230.600366,14495
1234.366874,14476.2
1238.12788,14299
1241.883395,14286
1245.633429,14729.8
1249.377994,14612
1253.1171,13831.2
1256.850759,14323.8
1260.578981,14191.8
1264.301776,14225.8
1268.019157,14276.2
1271.731133,13979
1275.437715,13838.8
1279.138915,14391.6
1282.834743,14629.6
1286.52521,14049
1290.210328,13854.2
1293.890106,14149
1297.564555,14560
1301.233688,13910.8
1304.897514,14193
1308.556044,14294.6
1312.209289,14296.6
1315.857261,13760.2
1319.499969,13899.8
1323.137425,14810.8
1326.769641,14177
1330.396626,14845.8
1334.018391,14201
1337.634948,14316.8
1341.246307,13970.8
1344.85248,13982.4
1348.453477,13914.6
1352.049309,13838.6
1355.639987,13899.6
1359.225522,14600
1362.805925,14124.2
1366.381207,14102.6
1369.951379,14171
1373.516452,14269
1377.076436,14399
1380.631343,14280.8
1384.181184,14003.2
1387.725969,14114.8
1391.26571,13887.8
1394.800417,13740.4
1398.330102,13978.8
1401.854776,14150
1405.374448,13970.4
1408.889132,13563
1412.398837,13163.2
1415.903574,13630
1419.403355,14168.8
1422.89819,13716.8
1426.388091,13659.4
1429.873069,14242.6
1433.353134,13672.6
1436.828298,13696
1440.298571,13916.2
1443.763965,13691.4
1447.224491,13535.8
1450.68016,13554
1454.130983,14003.4
1457.576971,13861.4
1461.018135,13950.4
1464.454486,14184
1467.886036,13662.6
1471.312794,13701.4
1474.734774,13451.8
1478.151985,14053
1481.564439,13751.6
1484.972146,13709.4
1488.375119,13408.2
1491.773368,13693.6
1495.166904,14325
1498.555739,13631.6
1501.939883,13726.8
1505.319349,13289.4
1508.694146,13566.2
1512.064286,13686.6
1515.429781,13612.4
1518.790642,13367
1522.146879,13753.4
1525.498505,13189
1528.845529,13144
1532.187965,13920.6
1535.525822,13526.8
1538.859112,13491
1542.187846,14239.6
1545.512036,13080.4
1548.831693,14512.2
1552.146829,13872
1555.457453,13200.8
1558.763579,12891.8
1562.065216,13400.4
1565.362377,13609.8
1568.655073,13963.6
1571.943315,13687.8
1575.227114,13638
1578.506482,13619.2
1581.781431,14341.6
1585.051971,13960.4
1588.318114,14017.6
1591.579872,14080
1594.837255,13792
1598.090275,13608.4
1601.338945,13423.4
1604.583274,13711.2
1607.823275,13375.8
1611.058959,12984.2
1614.290338,13678.8
1617.517422,12878.2
1620.740224,13284.8
1623.958755,12866.8
1627.173027,12979
1630.38305,12590.2
1633.588838,13060.6
1636.7904,12836.6
1639.987749,13207.6
1643.180896,13328.4
1646.369853,12824.8
1649.554632,13531
1652.735244,12846.4
1655.9117,12502
1659.084013,12881
1662.252193,13577
1665.416254,12683
1668.576205,12926
1671.732059,13139.8
1674.883828,13249.8
1678.031523,12770
1681.175157,12901.2
1684.314739,12733.6
1687.450284,12757
1690.581801,12754
1693.709304,12487
1696.832803,12617.8
1699.952311,12819.6
1703.067839,12797.2
1706.179399,12753.8
1709.287003,13237
1712.390663,12722
1715.49039,12804.8
1718.586197,13119.8
1721.678095,12994.6
1724.766096,13114.8
1727.850213,12513
1730.930456,12795.8
1734.006838,12656.4
1737.079372,12810.8
1740.148067,12496.8
1743.212938,13496.2
1746.273996,12826.8
1749.331252,12653.8
1752.384718,12728.2
1755.434408,12887.8
1758.480332,12753.2
1761.522503,12875.6
1764.560933,12539
1767.595634,12263.2
1770.626618,12991.6
1773.653896,12975.4
1776.677482,12633.8
1779.697388,12531.2
1782.713625,13186.6
1785.726205,13108.8
1788.735141,12994.2
1791.740445,12530.8
1794.742129,12531.8
1797.740206,12969.6
1800.734687,13014.8
1803.725585,12825.8
1806.712912,12807.2
1809.69668,12580
1812.676902,12496.8
1815.65359,12348
1818.626756,12326.4
1821.596413,12580.8
1824.562573,12174.2
1827.525247,12546
1830.48445,12376.6
1833.440192,12521.4
1836.392487,12464.8
1839.341347,12672.4
1842.286784,12653.6
1845.22881,12207
1848.167439,12706.2
1851.102682,12485.6
1854.034553,12628
1856.963063,12197.8
1859.888226,13202.6
1862.810053,12710
1865.728557,12529.8
1868.643751,12314.6
1871.555648,12252.2
1874.46426,12026.8
1877.369599,12608.8
1880.271679,12391.6
1883.170512,12205.2
1886.06611,12812.2
1888.958487,12444.4
1891.847655,12506.2
1894.733626,12589.8
1897.616414,12702.4
1900.496032,12166.6
1903.372491,12402
1906.245805,12803
1909.115987,12751.2
1911.983049,12746.2
1914.847004,12695
1917.707866,12814.8
1920.565646,12745
1923.420359,12319.4
1926.272016,12568.2
1929.120631,12206.2
1931.966216,12517.8
1934.808786,12568.4
1937.648351,12722.2
1940.484927,12631.2
1943.318525,12684.4
1946.149158,12883.6
1948.97684,14031.2
1951.801584,12846.2
1954.623403,12733.6
1957.44231,12821.2
1960.258318,12283
1963.071439,12410.6
1965.881688,12580.8
1968.689078,12733.6
1971.493621,12406
