Ramanshift[cm-1],Intensity
-93.47115107,14375.6
-87.69374369,13065.2
-81.9253076,12814
-76.16582701,12958.8
-70.41528615,13013.4
-64.67366933,12727.4
-58.94096086,12713.6
-53.21714512,12952.8
-47.50220652,13094.6
-41.79612954,13038.2
-36.09889866,13542.8
-30.41049843,13613.4
-24.73091343,13363.6
-19.0601283,13312.6
-13.39812769,13070
-7.744896327,12785.8
-2.100418946,12685.8
3.535319659,13319.2
9.162334658,12642.2
14.78064118,13079.6
20.39025432,12640.2
25.99118913,12751.4
31.58346061,13249.6
37.16708375,13028.6
42.74207347,12644.6
48.30844468,12744.2
53.86621222,12547.4
59.41539093,12266.8
64.95599558,12266.8
70.48804091,12587.6
76.01154164,12759.6
81.52651243,11976.4
87.03296792,12733.6
92.5309227,12886.4
98.02039134,12202.6
103.5013884,12535.2
108.9739282,12410.6
114.4380255,12454.8
119.8936944,12626.4
125.3409495,13524.8
130.779805,12265.8
136.2102753,12067.2
141.6323747,12163.6
147.0461174,12814.4
152.4515176,12311.4
157.8485895,12286.4
163.2373472,12158.8
168.6178049,12396.6
173.9899766,12783
179.3538764,12232.4
184.7095182,12375.8
190.0569161,12552.2
195.396084,12776.8
200.7270358,12156.8
206.0497854,12213.8
211.3643466,11914.2
216.6707333,12378.8
221.9689593,11943.6
227.2590382,12107.4
232.5409839,12066.2
237.8148101,12048.4
243.0805303,12113.2
248.3381582,12082
253.5877075,11954.6
258.8291917,12162.6
264.0626244,12146.8
269.288019,12377.4
274.5053891,12528.8
279.7147481,12222
284.9161094,11943.4
290.1094865,12426
295.2948927,13559.2
300.4723414,16420.2
305.6418459,19243.8
310.8034194,21735.4
315.9570752,23704.4
321.1028267,24145.4
326.2406869,24339.2
331.370669,24533
336.4927863,24937.4
341.6070517,25041.8
346.7134786,25228.6
351.8120798,25609.8
356.9028684,25190.2
361.9858576,25409
367.0610602,25644.6
372.1284892,25187.4
377.1881577,25494.2
382.2400784,25355
387.2842644,25472.6
392.3207284,25929.6
397.3494833,25523.2
402.370542,25839.8
407.3839172,25400.6
412.3896217,25006.8
417.3876683,24629.6
422.3780697,24770.8
427.3608386,24686.4
432.3359876,24909
437.3035295,25042.8
442.2634769,25221.4
447.2158423,24228.6
452.1606383,24294.6
457.0978776,24440.4
462.0275727,23913.6
466.9497361,24303
471.8643802,23841.2
476.7715176,24571.8
481.6711608,24517
486.5633221,24582.8
491.448014,24595.8
496.3252488,24358.8
501.195039,24328.4
506.0573969,24500
510.9123349,24280
515.7598651,23523.2
520.6,24075
525.4327518,24030.6
530.2581327,23974.8
535.076155,23305.2
539.8868309,23778.8
544.6901726,23754
549.4861922,23451
554.2749019,24373.4
559.0563139,23515.8
563.8304402,23197.8
568.597293,24269
573.3568844,23892
578.1092263,23475
582.8543308,23932.2
587.5922101,23804.2
592.322876,23426.6
597.0463405,23646.8
601.7626157,23934.4
606.4717135,23534.2
611.1736458,23320.4
615.8684246,23397
620.5560617,23726.2
625.2365691,23325
629.9099585,23827.4
634.5762419,23982.8
639.2354312,23267
643.887538,23404.2
648.5325743,23154.2
653.1705518,23048.2
657.8014823,23336.2
662.4253775,22706
667.0422493,22880.2
671.6521092,23051.6
676.2549691,23099
680.8508407,23027
685.4397355,22913.2
690.0216654,23024
694.5966419,22782.2
699.1646767,23201.2
703.7257814,23017.8
708.2799676,23092.2
712.827247,23222
717.367631,22947.6
721.9011314,22857.2
726.4277595,22245.2
730.9475271,22837.2
735.4604456,22727
739.9665264,23163
744.4657813,22657.8
748.9582215,22629.4
753.4438587,22158.4
757.9227042,21851
762.3947696,22414.2
766.8600662,21770
771.3186056,23300.4
775.770399,22089.6
780.215458,22372.8
784.6537939,21654.8
789.0854181,21543.6
793.510342,21527.8
797.9285769,21987.8
802.3401342,21383.8
806.7450253,21558.4
811.1432614,21424.4
815.5348538,21135.2
819.9198139,20895.6
824.2981531,21253.6
828.6698824,21307.8
833.0350133,20985.6
837.393557,20771.4
841.7455248,21079.4
846.0909278,20667.6
850.4297774,20767.2
854.7620848,20749.4
859.0878611,21134.8
863.4071176,20574.2
867.7198655,20995
872.026116,21443
876.3258802,21713.2
880.6191693,21184.2
884.9059946,21162.8
889.186367,21604.2
893.4602979,20366.8
897.7277982,20297.6
901.9888793,20724.2
906.2435521,21134.8
910.4918277,20525.2
914.7337174,20550.4
918.9692321,20429.2
923.1983831,21047.6
927.4211813,20548.8
931.6376378,21303.8
935.8477637,20778.6
940.0515701,20993.4
944.249068,21028
948.4402684,20155.2
952.6251825,20988.8
956.8038212,20650.6
960.9761955,21250.6
965.1423166,20739.8
969.3021953,20880.2
973.4558427,20847.4
977.6032699,20601.2
981.7444877,20715.2
985.8795072,20722.6
990.0083394,20694.4
994.1309953,20373.6
998.2474857,20771.4
1002.357822,19828.8
1006.462014,20625.6
1010.560075,20378
1014.652013,20688.8
1018.737841,21108.8
1022.81757,20483.8
1026.891209,20402.8
1030.958771,20294.8
1035.020266,20680
1039.075705,20231.8
1043.1251,19995.6
1047.16846,20405.2
1051.205797,20230.8
1055.237121,20013.2
1059.262444,19918.6
1063.281777,19680.6
1067.295131,20067.4
1071.302515,21390.6
1075.303942,20879.6
1079.299422,21893
1083.288966,21308
1087.272585,20887.8
1091.250289,20638.4
1095.222091,20649.4
1099.187999,19913.8
1103.148026,20284
1107.102183,20173.4
1111.050479,20292
1114.992927,20149.4
1118.929536,20036.4
1122.860318,20499.8
1126.785283,20186
1130.704443,20168.2
1134.617808,21216.6
1138.52539,21155.6
1142.427198,21102.8
1146.323244,20981.8
1150.213538,20532.8
1154.098093,20742.4
1157.976917,20094
1161.850023,19889.2
1165.717421,20366.2
1169.579121,19940.6
1173.435135,20300.6
1177.285474,19455.4
1181.130148,19955.6
1184.969169,20226.2
1188.802547,20059.6
1192.630292,19773
1196.452416,19362
1200.26893,19572.8
1204.079844,19268.2
1207.88517,18849.2
1211.684917,19431
1215.479098,19152.6
1219.267722,20707.4
1223.050801,19035
1226.828346,19121.4
1230.600366,19488.6
1234.366874,19302.2
1238.12788,19064.8
1241.883395,19281
1245.633429,19470.8
1249.377994,19371.8
1253.1171,18569
1256.850759,19097.6
1260.578981,19041.8
1264.301776,19101.2
1268.019157,19072
1271.731133,18751.2
1275.437715,18684
1279.138915,19207.4
1282.834743,19447.2
1286.52521,18879.4
1290.210328,18749.8
1293.890106,18929
1297.564555,19502
1301.233688,18780.2
1304.897514,19302.2
1308.556044,19404.2
1312.209289,19318.4
1315.857261,18630.2
1319.499969,18957.2
1323.137425,19645.6
1326.769641,19056.8
1330.396626,19633
1334.018391,19070.2
1337.634948,19080
1341.246307,18900.6
1344.85248,18734.6
1348.453477,18584.4
1352.049309,18563.2
1355.639987,18652
1359.225522,19195.4
1362.805925,18829.4
1366.381207,18862.6
1369.951379,18904.8
1373.516452,18994.6
1377.076436,19115.4
1380.631343,19030
1384.181184,18776.2
1387.725969,19177.6
1391.26571,18776
1394.800417,18588.4
1398.330102,18654.2
1401.854776,18799.4
1405.374448,18599.6
1408.889132,18169.6
1412.398837,17780.6
1415.903574,18044.4
1419.403355,18760.2
1422.89819,18366
1426.388091,18376.6
1429.873069,18984.6
1433.353134,18497
1436.828298,18433.6
1440.298571,18381
1443.763965,18080
1447.224491,17764.6
1450.68016,17662.2
1454.130983,18107.8
1457.576971,17916.4
1461.018135,18207.2
1464.454486,18197.2
1467.886036,17755.2
1471.312794,17824.8
1474.734774,17469
1478.151985,18134.4
1481.564439,17882.6
1484.972146,17736
1488.375119,17264.6
1491.773368,17521.4
1495.166904,18186.8
1498.555739,17474.8
1501.939883,17588.6
1505.319349,16974
1508.694146,17463
1512.064286,17430.8
1515.429781,17561.2
1518.790642,17248.4
1522.146879,17544.4
1525.498505,16930.2
1528.845529,16930
1532.187965,17507.2
1535.525822,17254.8
1538.859112,17246
1542.187846,17805.2
1545.512036,16862
1548.831693,18250
1552.146829,17577.4
1555.457453,17005.6
1558.763579,16413.8
1562.065216,16918.8
1565.362377,17136.2
1568.655073,17454
1571.943315,17125.2
1575.227114,17023.4
1578.506482,17091.4
1581.781431,17674
1585.051971,16931.4
1588.318114,17004.6
1591.579872,16992.8
1594.837255,16773.4
1598.090275,16586
1601.338945,16545.2
1604.583274,16879
1607.823275,16574.6
1611.058959,15905.8
1614.290338,16760.2
1617.517422,15852.6
1620.740224,16293.2
1623.958755,15837.8
1627.173027,15949.4
1630.38305,15459.4
1633.588838,15842.4
1636.7904,15616.8
1639.987749,15813.8
1643.180896,15850.6
1646.369853,15270.8
1649.554632,16028.2
1652.735244,15335.4
1655.9117,14943.2
1659.084013,15282.6
1662.252193,15877.8
1665.416254,14940.6
1668.576205,15063
1671.732059,15477.2
1674.883828,15528.8
1678.031523,15004.8
1681.175157,15046.8
1684.314739,15066.4
1687.450284,14885.2
1690.581801,14876.8
1693.709304,14630
1696.832803,14753.8
1699.952311,14865.2
1703.067839,14912.4
1706.179399,14866
1709.287003,15236.2
1712.390663,14816.2
1715.49039,14822.6
1718.586197,15128.6
1721.678095,14958.4
1724.766096,14986.8
1727.850213,14377
1730.930456,14703.4
1734.006838,14469.6
1737.079372,14807.8
1740.148067,14320.6
1743.212938,15433.4
1746.273996,14531.6
1749.331252,14497.8
1752.384718,14492.8
1755.434408,14578
1758.480332,14525
1761.522503,14459.8
1764.560933,14376
1767.595634,13950.6
1770.626618,14706.6
1773.653896,14613.4
1776.677482,14241.2
1779.697388,14163.8
1782.713625,14801.8
1785.726205,14792.4
1788.735141,14788.4
1791.740445,14239.8
1794.742129,14156
1797.740206,14695.2
1800.734687,14640.8
1803.725585,14403.6
1806.712912,14313.4
1809.69668,14004.2
1812.676902,14150.6
1815.65359,13826.4
1818.626756,13910.8
1821.596413,14122
1824.562573,13690.8
1827.525247,14024.2
1830.48445,13917.2
1833.440192,14039
1836.392487,13890.2
1839.341347,14105.4
1842.286784,14114.4
1845.22881,13634.2
1848.167439,14261.8
1851.102682,14026.2
1854.034553,13992.6
1856.963063,13728.6
1859.888226,14654.8
1862.810053,14146.6
1865.728557,13946.6
1868.643751,13628
1871.555648,13689.6
1874.46426,13420.6
1877.369599,14037.6
1880.271679,13788.4
1883.170512,13666
1886.06611,14222.6
1888.958487,13886
1891.847655,13854.8
1894.733626,13947
1897.616414,13996.4
1900.496032,13508.4
1903.372491,13918
1906.245805,14163.6
1909.115987,14056.6
1911.983049,14082.2
1914.847004,13961.6
1917.707866,14089.8
1920.565646,14045.6
1923.420359,13536.2
1926.272016,13910.8
1929.120631,13509
1931.966216,13774.6
1934.808786,13547.2
1937.648351,13957
1940.484927,13831
1943.318525,13845.8
1946.149158,14130.2
1948.97684,15147.2
1951.801584,14106.4
1954.623403,13897.4
1957.44231,13996
1960.258318,13403.8
1963.071439,13456.6
1965.881688,13746.4
1968.689078,13733
1971.493621,13602.8
