Ramanshift[cm-1],Intensity
-93.47115107,14308.4
-87.69374369,12950.4
-81.9253076,12710.8
-76.16582701,12956.8
-70.41528615,12940.8
-64.67366933,12648.4
-58.94096086,12647.8
-53.21714512,12867.4
-47.50220652,12999.8
-41.79612954,13052.4
-36.09889866,13533.6
-30.41049843,13588
-24.73091343,13155.2
-19.0601283,13145.6
-13.39812769,13054
-7.744896327,12702
-2.100418946,12565.2
3.535319659,13251.6
9.162334658,12652.2
14.78064118,12970
20.39025432,12655.2
25.99118913,12553.8
31.58346061,13159
37.16708375,12941
42.74207347,12639.4
48.30844468,12602.4
53.86621222,12470.8
59.41539093,12164
64.95599558,12143.6
70.48804091,12503.2
76.01154164,12665.4
81.52651243,11993.6
87.03296792,12529.6
92.5309227,12868.6
98.02039134,12175.8
103.5013884,12486.4
108.9739282,12320.4
114.4380255,12414.4
119.8936944,12567.6
125.3409495,13370.2
130.779805,12280.2
136.2102753,11977.2
141.6323747,12015.8
147.0461174,12686.6
152.4515176,12262.8
157.8485895,12195
163.2373472,12110.4
168.6178049,12396.2
173.9899766,12650.2
179.3538764,12297.4
184.7095182,12225.2
190.0569161,12514.2
195.396084,12665.4
200.7270358,12124.8
206.0497854,12098.8
211.3643466,11835.8
216.6707333,12307.8
221.9689593,11841.6
227.2590382,12008
232.5409839,12056
237.8148101,11922.6
243.0805303,12084.4
248.3381582,12012
253.5877075,11918.6
258.8291917,12050.2
264.0626244,12062.6
269.288019,12309.4
274.5053891,12392.2
279.7147481,12046.8
284.9161094,11850.2
290.1094865,12138
295.2948927,12899.6
300.4723414,14593.6
305.6418459,15909.2
310.8034194,17266.6
315.9570752,18690.8
321.1028267,19015.2
326.2406869,19126.2
331.370669,19273.6
336.4927863,19382.2
341.6070517,19626
346.7134786,19431.6
351.8120798,19741.6
356.9028684,19441.8
361.9858576,19496.8
367.0610602,19800
372.1284892,19423
377.1881577,20132.8
382.2400784,20412.8
387.2842644,20952
392.3207284,21724.2
397.3494833,21029.2
402.370542,20752.4
407.3839172,19997
412.3896217,19412.8
417.3876683,18918.2
422.3780697,18970.8
427.3608386,18855.4
432.3359876,19348
437.3035295,19445
442.2634769,19537.4
447.2158423,18655.4
452.1606383,18718.8
457.0978776,18892.2
462.0275727,18137.2
466.9497361,18686.2
471.8643802,18084.4
476.7715176,18558.2
481.6711608,18542.8
486.5633221,18942.4
491.448014,18644
496.3252488,18517
501.195039,18529.6
506.0573969,19031.8
510.9123349,18654
515.7598651,18038.2
520.6,18478.2
525.4327518,18455.4
530.2581327,18547.4
535.076155,18003.4
539.8868309,18332
544.6901726,18529
549.4861922,18209.8
554.2749019,19253.4
559.0563139,18319.4
563.8304402,18249.6
568.597293,19215
573.3568844,18769.4
578.1092263,18026
582.8543308,18524.2
587.5922101,18379.8
592.322876,18031.4
597.0463405,18054.8
601.7626157,18447.6
606.4717135,17982.6
611.1736458,17948.4
615.8684246,18007.6
620.5560617,18270.4
625.2365691,18051.8
629.9099585,18532.6
634.5762419,18715.8
639.2354312,18040.2
643.887538,18226.6
648.5325743,17871.8
653.1705518,17829.8
657.8014823,18028.8
662.4253775,17347.8
667.0422493,17786.4
671.6521092,17740.4
676.2549691,17956.2
680.8508407,17918.2
685.4397355,17743
690.0216654,17883
694.5966419,17650.8
699.1646767,18200
703.7257814,17872.2
708.2799676,18118.8
712.827247,18122.6
717.367631,17884.4
721.9011314,17878.2
726.4277595,17103
730.9475271,17822.2
735.4604456,17790.4
739.9665264,18169.4
744.4657813,17676.4
748.9582215,17670.4
753.4438587,17192.4
757.9227042,17050.8
762.3947696,17469.4
766.8600662,17111.2
771.3186056,18373.2
775.770399,17421.4
780.215458,17779.8
784.6537939,16978
789.0854181,16913.2
793.510342,17053.6
797.9285769,17650.4
802.3401342,17023
806.7450253,17214
811.1432614,17106.6
815.5348538,16944
819.9198139,16692.6
824.2981531,17022
828.6698824,17059
833.0350133,17062.6
837.393557,16676.2
841.7455248,16907.8
846.0909278,16799
850.4297774,16633.6
854.7620848,16697.6
859.0878611,17094.4
863.4071176,16321.2
867.7198655,16834.8
872.026116,17246.6
876.3258802,17575.6
880.6191693,17098.6
884.9059946,17153.2
889.186367,17550.6
893.4602979,16469.2
897.7277982,16332.6
901.9888793,16773.6
906.2435521,17247
910.4918277,16469.2
914.7337174,16505
918.9692321,16403.4
923.1983831,16912.4
927.4211813,16682
931.6376378,17321.8
935.8477637,16769.6
940.0515701,17113.8
944.249068,17109.4
948.4402684,16166.4
952.6251825,17126.6
956.8038212,16746.8
960.9761955,17193.2
965.1423166,16744.6
969.3021953,16830.6
973.4558427,16852.6
977.6032699,16563.6
981.7444877,16732
985.8795072,16608.2
990.0083394,16756.2
994.1309953,16428.2
998.2474857,16930.8
1002.357822,15988.4
1006.462014,16588
1010.560075,16357.6
1014.652013,16688.4
1018.737841,17000.2
1022.81757,16379.2
1026.891209,16278
1030.958771,16210.4
1035.020266,16574.2
1039.075705,16308.8
1043.1251,15998.8
1047.16846,16389.8
1051.205797,16172.8
1055.237121,15903
1059.262444,15900.4
1063.281777,15833.6
1067.295131,15989.2
1071.302515,17644.4
1075.303942,17546.2
1079.299422,18573.2
1083.288966,17765.8
1087.272585,16903.2
1091.250289,16561.2
1095.222091,16462
1099.187999,15993.4
1103.148026,16110
1107.102183,15967
1111.050479,16112.8
1114.992927,15966.4
1118.929536,15853.8
1122.860318,16322.8
1126.785283,15834.2
1130.704443,15908.6
1134.617808,16841
1138.52539,16775.2
1142.427198,16563.6
1146.323244,16408.8
1150.213538,16044
1154.098093,16369.8
1157.976917,15681.8
1161.850023,15607.8
1165.717421,16102
1169.579121,15769.4
1173.435135,16362.2
1177.285474,15537.4
1181.130148,15700.6
1184.969169,16010.4
1188.802547,15982.8
1192.630292,15467.8
1196.452416,15293.6
1200.26893,15336
1204.079844,15003.6
1207.88517,14606.4
1211.684917,15332.2
1215.479098,14888
1219.267722,16382.4
1223.050801,14934.8
1226.828346,14992.8
1230.600366,15390.2
1234.366874,15296
1238.12788,15091
1241.883395,15040.2
1245.633429,15323.8
1249.377994,15414.8
1253.1171,14576.8
1256.850759,15023.4
1260.578981,14844.2
1264.301776,14928.2
1268.019157,14882.2
1271.731133,14671.6
1275.437715,14454.8
1279.138915,15165.4
1282.834743,15271.2
1286.52521,14728.2
1290.210328,14485.4
1293.890106,14731.4
1297.564555,15344.6
1301.233688,14559
1304.897514,14967.4
1308.556044,15055.4
1312.209289,14971.4
1315.857261,14409.2
1319.499969,14446.4
1323.137425,15392.4
1326.769641,14681.4
1330.396626,15476.4
1334.018391,14754.6
1337.634948,14931.8
1341.246307,14576
1344.85248,14603.2
1348.453477,14512
1352.049309,14486.2
1355.639987,14495.6
1359.225522,15163.8
1362.805925,14768.8
1366.381207,14815.8
1369.951379,14875.4
1373.516452,15040.4
1377.076436,15224
1380.631343,15048.2
1384.181184,14885.6
1387.725969,15011.6
1391.26571,14576.8
1394.800417,14398.8
1398.330102,14532.6
1401.854776,14665.4
1405.374448,14461.2
1408.889132,14091.8
1412.398837,13693.6
1415.903574,14072.6
1419.403355,14776.4
1422.89819,14424.8
1426.388091,14394.6
1429.873069,15036
1433.353134,14302.8
1436.828298,14310.4
1440.298571,14480.4
1443.763965,14129
1447.224491,14014
1450.68016,13980.2
1454.130983,14489.4
1457.576971,14439.6
1461.018135,14565.6
1464.454486,14658.8
1467.886036,14210.8
1471.312794,14184
1474.734774,13853.4
1478.151985,14613.4
1481.564439,14302.8
1484.972146,14203.4
1488.375119,13748
1491.773368,14214
1495.166904,14822.8
1498.555739,14040.4
1501.939883,14019.2
1505.319349,13715
1508.694146,14096
1512.064286,13963.4
1515.429781,14029
1518.790642,13803.2
1522.146879,14111.8
1525.498505,13547.4
1528.845529,13585.6
1532.187965,14257
1535.525822,13881.6
1538.859112,13818
1542.187846,14503.8
1545.512036,13602
1548.831693,14948.4
1552.146829,14304.2
1555.457453,13678.8
1558.763579,13258.2
1562.065216,13751
1565.362377,14023.6
1568.655073,14421.2
1571.943315,14145.2
1575.227114,14202
1578.506482,14162.2
1581.781431,14754.4
1585.051971,14331.8
1588.318114,14522.8
1591.579872,14375.4
1594.837255,13954.2
1598.090275,13786.6
1601.338945,13712
1604.583274,14038
1607.823275,13644.4
1611.058959,13248.6
1614.290338,14010.6
1617.517422,13143.4
1620.740224,13528.6
1623.958755,13247
1627.173027,13262
1630.38305,12842
1633.588838,13313
1636.7904,13081.8
1639.987749,13367
1643.180896,13494.4
1646.369853,12820.4
1649.554632,13803.8
1652.735244,13037.6
1655.9117,12628.2
1659.084013,13063.2
1662.252193,13729.2
1665.416254,12863.6
1668.576205,13122.8
1671.732059,13422.4
1674.883828,13420.4
1678.031523,12814.8
1681.175157,12999.8
1684.314739,13054
1687.450284,13006
1690.581801,12934.6
1693.709304,12670.6
1696.832803,12697
1699.952311,12944.2
1703.067839,12883.2
1706.179399,12920.2
1709.287003,13372.6
1712.390663,12885
1715.49039,12889.2
1718.586197,13246
1721.678095,13124
1724.766096,13134.8
1727.850213,12504.4
1730.930456,12993.6
1734.006838,12665.8
1737.079372,13027.4
1740.148067,12583.6
1743.212938,13696.4
1746.273996,12809.8
1749.331252,12824
1752.384718,12770.8
1755.434408,12880
1758.480332,12878.6
1761.522503,12899.8
1764.560933,12641
1767.595634,12242.2
1770.626618,13091
1773.653896,13006.8
1776.677482,12671.4
1779.697388,12622.4
1782.713625,13211.4
1785.726205,13121.8
1788.735141,13098.2
1791.740445,12691.6
1794.742129,12608.6
1797.740206,13016.8
1800.734687,13032.2
1803.725585,12819.6
1806.712912,12773.6
1809.69668,12548.6
1812.676902,12562
1815.65359,12295.6
1818.626756,12353.6
1821.596413,12544
1824.562573,12291
1827.525247,12696.4
1830.48445,12344.6
1833.440192,12620.6
1836.392487,12413.2
1839.341347,12657.6
1842.286784,12658.4
1845.22881,12138
1848.167439,12691
1851.102682,12427.2
1854.034553,12617.2
1856.963063,12341
1859.888226,13197.8
1862.810053,12683.4
1865.728557,12565.4
1868.643751,12259.4
1871.555648,12287.8
1874.46426,11989
1877.369599,12620.4
1880.271679,12442.4
1883.170512,12300.6
1886.06611,12886
1888.958487,12428.6
1891.847655,12494.8
1894.733626,12572.8
1897.616414,12648.2
1900.496032,12155.8
1903.372491,12497.6
1906.245805,12768.2
1909.115987,12862.4
1911.983049,12829.8
1914.847004,12608
1917.707866,12746.4
1920.565646,12768.4
1923.420359,12283
1926.272016,12478.2
1929.120631,12239
1931.966216,12481.4
1934.808786,12327
1937.648351,12668.6
1940.484927,12583.8
1943.318525,12724.4
1946.149158,12940.2
1948.97684,14042
1951.801584,12824.6
1954.623403,12635.8
1957.44231,12772.4
1960.258318,12354.8
1963.071439,12315.4
1965.881688,12520.6
1968.689078,12679.4
1971.493621,12413.2
