Ramanshift[cm-1],Intensity
-93.47115107,14431.6
-87.69374369,13025.2
-81.9253076,12793.4
-76.16582701,12968
-70.41528615,12971.6
-64.67366933,12704.2
-58.94096086,12676.4
-53.21714512,12922.4
-47.50220652,12984
-41.79612954,13012
-36.09889866,13494.8
-30.41049843,13583.8
-24.73091343,13165.8
-19.0601283,13196.4
-13.39812769,13048.4
-7.744896327,12840
-2.100418946,12530.2
3.535319659,13276.2
9.162334658,12638.4
14.78064118,12937.6
20.39025432,12653.2
25.99118913,12741.4
31.58346061,13198.4
37.16708375,12976.8
42.74207347,12591
48.30844468,12702.2
53.86621222,12477.8
59.41539093,12263.8
64.95599558,12124.6
70.48804091,12476.2
76.01154164,12723.6
81.52651243,12044.4
87.03296792,12542.4
92.5309227,12989
98.02039134,12273
103.5013884,12464.8
108.9739282,12329.4
114.4380255,12452.2
119.8936944,12523.6
125.3409495,13574.4
130.779805,12332
136.2102753,12006.8
141.6323747,12011.6
147.0461174,12791
152.4515176,12261
157.8485895,12283
163.2373472,12077.8
168.6178049,12515.4
173.9899766,12791.8
179.3538764,12262.2
184.7095182,12283.8
190.0569161,12610.8
195.396084,12730.4
200.7270358,12096.6
206.0497854,12220.8
211.3643466,11971.8
216.6707333,12254.8
221.9689593,11985.2
227.2590382,12075.4
232.5409839,12080.6
237.8148101,12054.2
243.0805303,12146.8
248.3381582,12161.2
253.5877075,11993.4
258.8291917,12218.2
264.0626244,12254.6
269.288019,12358
274.5053891,12496
279.7147481,12274.4
284.9161094,12078.8
290.1094865,12826.6
295.2948927,15052
300.4723414,19933
305.6418459,25823.2
310.8034194,31130
315.9570752,34901.2
321.1028267,35894.8
326.2406869,36599.8
331.370669,37225.2
336.4927863,37782.4
341.6070517,38164.6
346.7134786,38861.4
351.8120798,39388.2
356.9028684,39267.4
361.9858576,39300.6
367.0610602,39407.8
372.1284892,39394.8
377.1881577,40720.2
382.2400784,42330.4
387.2842644,45089
392.3207284,47286
397.3494833,47159.2
402.370542,46001
407.3839172,44147.4
412.3896217,42053
417.3876683,40224.2
422.3780697,39100.6
427.3608386,38256.6
432.3359876,38232.6
437.3035295,38118.4
442.2634769,37745.2
447.2158423,36608.8
452.1606383,36188
457.0978776,36428.4
462.0275727,36039.2
466.9497361,36601.6
471.8643802,35841.4
476.7715176,36567
481.6711608,37358.2
486.5633221,38538.8
491.448014,38064.8
496.3252488,37237.4
501.195039,36325.2
506.0573969,35871.6
510.9123349,34925.8
515.7598651,34269.2
520.6,34623.8
525.4327518,34058.4
530.2581327,33956.2
535.076155,33435.6
539.8868309,34092
544.6901726,34037.4
549.4861922,33084.8
554.2749019,33533.6
559.0563139,32453.6
563.8304402,32065.4
568.597293,33207
573.3568844,32699.4
578.1092263,32082.8
582.8543308,32746.2
587.5922101,32390.4
592.322876,31817.2
597.0463405,32196
601.7626157,32592.6
606.4717135,32181.6
611.1736458,32329
615.8684246,32338.6
620.5560617,32623.2
625.2365691,32313.2
629.9099585,32933.2
634.5762419,33545.2
639.2354312,33082
643.887538,33107.4
648.5325743,32227.4
653.1705518,31786.8
657.8014823,31513.6
662.4253775,30979.2
667.0422493,31292.8
671.6521092,31230.8
676.2549691,31289.6
680.8508407,31141
685.4397355,31124.6
690.0216654,31168.8
694.5966419,31158
699.1646767,31819.8
703.7257814,31995.6
708.2799676,32703.8
712.827247,33433.2
717.367631,33196.2
721.9011314,32642.8
726.4277595,31170.6
730.9475271,31160.4
735.4604456,30833.8
739.9665264,31319
744.4657813,30707.2
748.9582215,30568.8
753.4438587,29898.2
757.9227042,29250.6
762.3947696,29815.6
766.8600662,29159.4
771.3186056,30406.8
775.770399,29292.4
780.215458,29637.6
784.6537939,28873.6
789.0854181,28770.4
793.510342,29039.8
797.9285769,29659
802.3401342,29389.2
806.7450253,29625.6
811.1432614,29404
815.5348538,29196.6
819.9198139,28645.8
824.2981531,28833.8
828.6698824,28679.8
833.0350133,28116.8
837.393557,27655
841.7455248,27871
846.0909278,27494.4
850.4297774,27471.8
854.7620848,27485
859.0878611,27824.4
863.4071176,27012.4
867.7198655,27501
872.026116,28031
876.3258802,28276.4
880.6191693,27834.6
884.9059946,27812.6
889.186367,28326.8
893.4602979,27136.6
897.7277982,27221.4
901.9888793,28036.4
906.2435521,28555.6
910.4918277,28115
914.7337174,28527.8
918.9692321,28715.4
923.1983831,29507.8
927.4211813,28789
931.6376378,29668.2
935.8477637,29106.6
940.0515701,29497
944.249068,29722.4
948.4402684,28882
952.6251825,29724.2
956.8038212,29313.2
960.9761955,30014.6
965.1423166,29512.2
969.3021953,29581.2
973.4558427,29410.6
977.6032699,29319.4
981.7444877,29281.8
985.8795072,29229.4
990.0083394,29344.6
994.1309953,29206.6
998.2474857,30097.4
1002.357822,30381.6
1006.462014,32200.6
1010.560075,31632.4
1014.652013,30630.8
1018.737841,29919
1022.81757,28928.2
1026.891209,28709.8
1030.958771,28676.8
1035.020266,29359.2
1039.075705,29557.6
1043.1251,29838.4
1047.16846,30740.8
1051.205797,31470.8
1055.237121,32959
1059.262444,35897.4
1063.281777,41330.4
1067.295131,48662.2
1071.302515,56574
1075.303942,58256.6
1079.299422,56854.6
1083.288966,49837.6
1087.272585,41893.4
1091.250289,35955.2
1095.222091,33189.2
1099.187999,31010
1103.148026,30629
1107.102183,30305.6
1111.050479,30693
1114.992927,31021.6
1118.929536,32207.8
1122.860318,34683.8
1126.785283,38446.6
1130.704443,45142.8
1134.617808,54900.6
1138.52539,62746.6
1142.427198,64148.8
1146.323244,59476.2
1150.213538,49903.2
1154.098093,42110.2
1157.976917,36762.4
1161.850023,34938.4
1165.717421,35099.4
1169.579121,35025.4
1173.435135,35338.4
1177.285474,34412.6
1181.130148,35074.8
1184.969169,36103.8
1188.802547,36183.4
1192.630292,35389
1196.452416,33609.8
1200.26893,31733.2
1204.079844,30144.2
1207.88517,28973.4
1211.684917,29181.6
1215.479098,28656
1219.267722,30255.8
1223.050801,28633.6
1226.828346,28738
1230.600366,28753.6
1234.366874,28683
1238.12788,28441
1241.883395,28433
1245.633429,28614.4
1249.377994,28771
1253.1171,27933
1256.850759,28381.2
1260.578981,28218.4
1264.301776,28078.2
1268.019157,27915
1271.731133,27739.4
1275.437715,27635.2
1279.138915,28185.4
1282.834743,28682.6
1286.52521,28026.2
1290.210328,28084
1293.890106,28682
1297.564555,29797.8
1301.233688,29651.2
1304.897514,30268.4
1308.556044,30060.6
1312.209289,29604.2
1315.857261,28781.4
1319.499969,28423.8
1323.137425,29291
1326.769641,28739.6
1330.396626,29215.4
1334.018391,28630.4
1337.634948,28876.6
1341.246307,28478.6
1344.85248,28701.6
1348.453477,28966.2
1352.049309,29309.8
1355.639987,29688.8
1359.225522,30676.4
1362.805925,30106.2
1366.381207,30353.2
1369.951379,30766.8
1373.516452,31549.2
1377.076436,32742
1380.631343,34697.6
1384.181184,37685.2
1387.725969,41619
1391.26571,43190
1394.800417,41021.2
1398.330102,36986.4
1401.854776,33001.4
1405.374448,30255
1408.889132,29012.2
1412.398837,28583
1415.903574,29748.4
1419.403355,32579.2
1422.89819,35797.2
1426.388091,40548.4
1429.873069,45822.2
1433.353134,48348.2
1436.828298,48856.4
1440.298571,46616.4
1443.763965,42585.4
1447.224491,38247.2
1450.68016,34425.6
1454.130983,31796.6
1457.576971,29755.8
1461.018135,28966.2
1464.454486,28481.6
1467.886036,28206.8
1471.312794,28915.6
1474.734774,28438
1478.151985,28369.6
1481.564439,27262.8
1484.972146,26266
1488.375119,25412
1491.773368,25562.8
1495.166904,26103.8
1498.555739,25235.2
1501.939883,25457.6
1505.319349,25048.4
1508.694146,25664.4
1512.064286,25677.2
1515.429781,25680.8
1518.790642,25340.8
1522.146879,25841
1525.498505,25133.8
1528.845529,25239.4
1532.187965,26261
1535.525822,26234.2
1538.859112,26386.4
1542.187846,27487.6
1545.512036,26735
1548.831693,28484
1552.146829,28529.6
1555.457453,28508
1558.763579,28702.4
1562.065216,30179.2
1565.362377,31557.4
1568.655073,32989.4
1571.943315,33888.6
1575.227114,34538
1578.506482,34352
1581.781431,34016
1585.051971,32182.4
1588.318114,31214.8
1591.579872,29508.8
1594.837255,27558.6
1598.090275,25690.4
1601.338945,24451.8
1604.583274,23892
1607.823275,23114.2
1611.058959,22131.4
1614.290338,22595.4
1617.517422,21490.2
1620.740224,21657.2
1623.958755,20834.6
1627.173027,20737.4
1630.38305,20158
1633.588838,20436.2
1636.7904,19925
1639.987749,20036
1643.180896,20017.8
1646.369853,19247.8
1649.554632,19914
1652.735244,19070
1655.9117,18481.2
1659.084013,18888.2
1662.252193,19344.2
1665.416254,18312
1668.576205,18580.6
1671.732059,18763.6
1674.883828,18709.4
1678.031523,18114.4
1681.175157,18187.2
1684.314739,18013.6
1687.450284,17968.6
1690.581801,17799.8
1693.709304,17509.2
1696.832803,17570.2
1699.952311,17673.2
1703.067839,17727.6
1706.179399,17540.4
1709.287003,17924.8
1712.390663,17357.2
1715.49039,17442.4
1718.586197,17724
1721.678095,17435.4
1724.766096,17479.4
1727.850213,16737.2
1730.930456,17118
1734.006838,16909
1737.079372,17143.8
1740.148067,16760
1743.212938,17683
1746.273996,16799.8
1749.331252,16736.6
1752.384718,16799.6
1755.434408,16773.8
1758.480332,16763.6
1761.522503,16715
1764.560933,16413.6
1767.595634,16017.4
1770.626618,16727.4
1773.653896,16691
1776.677482,16274
1779.697388,16263.2
1782.713625,16965.6
1785.726205,16733.4
1788.735141,16645
1791.740445,16196.6
1794.742129,16181.8
1797.740206,16577.6
1800.734687,16653.8
1803.725585,16485.4
1806.712912,16315.2
1809.69668,16054.2
1812.676902,16097.2
1815.65359,15780.6
1818.626756,15940.2
1821.596413,16011.4
1824.562573,15690.4
1827.525247,15985.6
1830.48445,15781.6
1833.440192,15918
1836.392487,15829.4
1839.341347,15944.8
1842.286784,16017
1845.22881,15456.4
1848.167439,16153.2
1851.102682,15753
1854.034553,15842
1856.963063,15468.8
1859.888226,16419.2
1862.810053,15812
1865.728557,15769.2
1868.643751,15583.8
1871.555648,15550.6
1874.46426,15117.4
1877.369599,15820
1880.271679,15521
1883.170512,15549.4
1886.06611,15894
1888.958487,15519.6
1891.847655,15463.4
1894.733626,15637
1897.616414,15699.8
1900.496032,15267.6
1903.372491,15621.6
1906.245805,15829.4
1909.115987,15825.4
1911.983049,15733
1914.847004,15639.8
1917.707866,15715.4
1920.565646,15715.6
1923.420359,15111.4
1926.272016,15520
1929.120631,15286.8
1931.966216,15429.2
1934.808786,15261.2
1937.648351,15507.8
1940.484927,15481
1943.318525,15479.8
1946.149158,15681
1948.97684,16718
1951.801584,15719.6
1954.623403,15365.2
1957.44231,15456
1960.258318,15086.8
1963.071439,14975.8
1965.881688,15267.2
1968.689078,15264.4
1971.493621,15094.6
