Ramanshift[cm-1],Intensity
-93.47115107,14313.8
-87.69374369,13020.8
-81.9253076,12830.8
-76.16582701,12895.4
-70.41528615,13011.4
-64.67366933,12783
-58.94096086,12666.6
-53.21714512,12969.6
-47.50220652,12989
-41.79612954,13152.2
-36.09889866,13456.2
-30.41049843,13546
-24.73091343,13087.2
-19.0601283,13202.2
-13.39812769,12997.2
-7.744896327,12696
-2.100418946,12501.4
3.535319659,13321.6
9.162334658,12514.8
14.78064118,12859.2
20.39025432,12561.4
25.99118913,12649.4
31.58346061,13236.8
37.16708375,12928.2
42.74207347,12554.2
48.30844468,12670.8
53.86621222,12556.6
59.41539093,12177.8
64.95599558,12242
70.48804091,12522.6
76.01154164,12714.8
81.52651243,12018.4
87.03296792,12486
92.5309227,12881.2
98.02039134,12247.4
103.5013884,12550
108.9739282,12333.6
114.4380255,12333.8
119.8936944,12549.2
125.3409495,13462.4
130.779805,12251.4
136.2102753,12041.8
141.6323747,12036.4
147.0461174,12796.4
152.4515176,12278
157.8485895,12138
163.2373472,12057.8
168.6178049,12395.4
173.9899766,12756.6
179.3538764,12284.2
184.7095182,12341.4
190.0569161,12497.2
195.396084,12689.2
200.7270358,12043.6
206.0497854,12182.8
211.3643466,11896.2
216.6707333,12318.4
221.9689593,11828.8
227.2590382,12026
232.5409839,12113.8
237.8148101,11920.4
243.0805303,12015.6
248.3381582,12068.4
253.5877075,11892.8
258.8291917,12079.6
264.0626244,12197.8
269.288019,12280
274.5053891,12512.2
279.7147481,12138.6
284.9161094,12005.8
290.1094865,12385.4
295.2948927,13410.2
300.4723414,15850.4
305.6418459,18253.8
310.8034194,20606.8
315.9570752,22795.2
321.1028267,23164
326.2406869,23837.6
331.370669,23898.4
336.4927863,24203
341.6070517,24384.4
346.7134786,24420.6
351.8120798,24935.6
356.9028684,24647
361.9858576,24983.4
367.0610602,25536.4
372.1284892,25775.2
377.1881577,27640.6
382.2400784,30374.2
387.2842644,34132.6
392.3207284,36175.4
397.3494833,34483.8
402.370542,32330.4
407.3839172,29994
412.3896217,27983.8
417.3876683,26265.6
422.3780697,25309.4
427.3608386,24557
432.3359876,24842
437.3035295,24829.2
442.2634769,24746.8
447.2158423,23653.4
452.1606383,23373.2
457.0978776,23285.8
462.0275727,22796.6
466.9497361,23416.8
471.8643802,22337.2
476.7715176,22670.4
481.6711608,22802.4
486.5633221,23221.6
491.448014,22872.4
496.3252488,22806.4
501.195039,22581.4
506.0573969,22697
510.9123349,22217.2
515.7598651,21539.4
520.6,21855.2
525.4327518,21801.4
530.2581327,21623
535.076155,20975.4
539.8868309,21392
544.6901726,21576.4
549.4861922,20888.2
554.2749019,21616.4
559.0563139,20538.8
563.8304402,20218.4
568.597293,21403.8
573.3568844,21069.4
578.1092263,20518.8
582.8543308,20920.6
587.5922101,20751.4
592.322876,20371.2
597.0463405,20517.2
601.7626157,20968.8
606.4717135,20516.6
611.1736458,20548.8
615.8684246,20471
620.5560617,20662.2
625.2365691,20696
629.9099585,21357.8
634.5762419,22094.8
639.2354312,21754.6
643.887538,21625.8
648.5325743,20959.4
653.1705518,20513.2
657.8014823,20575.4
662.4253775,19771
667.0422493,20156.6
671.6521092,20064.6
676.2549691,20254
680.8508407,20179
685.4397355,20099
690.0216654,20283.2
694.5966419,20102
699.1646767,21009
703.7257814,20893.6
708.2799676,21141.8
712.827247,21387
717.367631,21021.6
721.9011314,20656.6
726.4277595,19629.6
730.9475271,19947.8
735.4604456,19709.8
739.9665264,20155
744.4657813,19808.8
748.9582215,19755.8
753.4438587,19150.8
757.9227042,18857.6
762.3947696,19337
766.8600662,18840.2
771.3186056,20336.2
775.770399,19294.8
780.215458,19675.4
784.6537939,18850.6
789.0854181,18844.4
793.510342,18991.4
797.9285769,19898.8
802.3401342,19557
806.7450253,19928.2
811.1432614,19920.4
815.5348538,19806
819.9198139,19260.8
824.2981531,19429.4
828.6698824,19275.2
833.0350133,18976
837.393557,18477.2
841.7455248,18693.4
846.0909278,18389.4
850.4297774,18269.4
854.7620848,18330.2
859.0878611,18564.4
863.4071176,17882.6
867.7198655,18456.4
872.026116,18804.4
876.3258802,19056.8
880.6191693,18631.8
884.9059946,18741.4
889.186367,19265.8
893.4602979,18008.6
897.7277982,18011.6
901.9888793,18576.2
906.2435521,19039.2
910.4918277,18685.2
914.7337174,18693.2
918.9692321,18885.8
923.1983831,19722.8
927.4211813,19257.8
931.6376378,19911.2
935.8477637,19339.6
940.0515701,19812
944.249068,19995
948.4402684,19165.8
952.6251825,19937.6
956.8038212,19657
960.9761955,20304.8
965.1423166,19725.4
969.3021953,19742.2
973.4558427,19888.8
977.6032699,19527.8
981.7444877,19577.2
985.8795072,19609.8
990.0083394,19734.2
994.1309953,19470.2
998.2474857,20424.4
1002.357822,20724.4
1006.462014,22282.4
1010.560075,21644.4
1014.652013,20671.4
1018.737841,20114.4
1022.81757,19114.4
1026.891209,18876
1030.958771,18877
1035.020266,19419.8
1039.075705,19250.2
1043.1251,19299.2
1047.16846,19938.6
1051.205797,20343.2
1055.237121,20871.8
1059.262444,22458.8
1063.281777,25395.4
1067.295131,30288.2
1071.302515,37517.6
1075.303942,41796.2
1079.299422,43743.6
1083.288966,38821.6
1087.272585,31128.2
1091.250289,25225.2
1095.222091,22355.2
1099.187999,20326.2
1103.148026,20121
1107.102183,19795.6
1111.050479,19917.4
1114.992927,20052
1118.929536,20456
1122.860318,21787
1126.785283,23059.2
1130.704443,25888.2
1134.617808,30659
1138.52539,34350
1142.427198,35035.8
1146.323244,32640.2
1150.213538,28582.6
1154.098093,26171.8
1157.976917,24305.8
1161.850023,24451.2
1165.717421,25712.8
1169.579121,26071.2
1173.435135,26207.6
1177.285474,24891
1181.130148,25093.6
1184.969169,25077.4
1188.802547,24170.4
1192.630292,22483.6
1196.452416,21167
1200.26893,20415.8
1204.079844,19537.2
1207.88517,18950.4
1211.684917,19532.2
1215.479098,18998.6
1219.267722,20553.6
1223.050801,18860
1226.828346,18867.2
1230.600366,19074
1234.366874,18915
1238.12788,18668.6
1241.883395,18672
1245.633429,18819.8
1249.377994,18809.8
1253.1171,17926.6
1256.850759,18469.6
1260.578981,18063.2
1264.301776,18222.2
1268.019157,17973
1271.731133,17796
1275.437715,17628.8
1279.138915,18248.8
1282.834743,18554.6
1286.52521,18061.8
1290.210328,18152
1293.890106,18567.4
1297.564555,19427.8
1301.233688,18880
1304.897514,19216
1308.556044,19188.4
1312.209289,18936.4
1315.857261,18240
1319.499969,18359.4
1323.137425,18980
1326.769641,18565.2
1330.396626,19226.6
1334.018391,18529.8
1337.634948,18587.8
1341.246307,18434.6
1344.85248,18531.4
1348.453477,18413.8
1352.049309,18537.8
1355.639987,18650
1359.225522,19389.4
1362.805925,18888.8
1366.381207,18947.6
1369.951379,19255.2
1373.516452,19699.4
1377.076436,20295.8
1380.631343,21124.8
1384.181184,22401.6
1387.725969,24273.6
1391.26571,24863
1394.800417,23687
1398.330102,21907.8
1401.854776,20181.4
1405.374448,18868.6
1408.889132,17998.6
1412.398837,17504.2
1415.903574,18367.4
1419.403355,20019
1422.89819,21303.2
1426.388091,23645.6
1429.873069,26409.6
1433.353134,27134.8
1436.828298,26941
1440.298571,25925.2
1443.763965,23858.6
1447.224491,21795.2
1450.68016,20269.4
1454.130983,19728.4
1457.576971,18970.4
1461.018135,18759.2
1464.454486,18760.6
1467.886036,18525.6
1471.312794,18731
1474.734774,18354.4
1478.151985,18801.2
1481.564439,18217.6
1484.972146,18180.8
1488.375119,17803.2
1491.773368,18079.6
1495.166904,18539.2
1498.555739,17672
1501.939883,17765.4
1505.319349,17321
1508.694146,17816.6
1512.064286,18063
1515.429781,17907
1518.790642,17884
1522.146879,18343.2
1525.498505,17843.2
1528.845529,18124.2
1532.187965,19216.4
1535.525822,19360.2
1538.859112,19954
1542.187846,21121.8
1545.512036,20679.4
1548.831693,22578
1552.146829,22790.8
1555.457453,22712.8
1558.763579,22645
1562.065216,23360.8
1565.362377,23882.4
1568.655073,24543
1571.943315,24504
1575.227114,24522
1578.506482,24693.6
1581.781431,25195.2
1585.051971,24835.8
1588.318114,24794.8
1591.579872,24316.6
1594.837255,23011
1598.090275,21261.8
1601.338945,19535.4
1604.583274,18736.4
1607.823275,17728.4
1611.058959,16845.8
1614.290338,17323.8
1617.517422,16213.2
1620.740224,16463.2
1623.958755,15727.8
1627.173027,15595.8
1630.38305,15137.8
1633.588838,15441.6
1636.7904,15050.4
1639.987749,15081
1643.180896,15143
1646.369853,14416.8
1649.554632,15207.6
1652.735244,14341
1655.9117,13889.6
1659.084013,14232
1662.252193,14728.6
1665.416254,13830.2
1668.576205,14095
1671.732059,14237.8
1674.883828,14452.2
1678.031523,13834
1681.175157,13893.6
1684.314739,13918.8
1687.450284,13729.8
1690.581801,13625
1693.709304,13432.6
1696.832803,13476.4
1699.952311,13694.6
1703.067839,13626.4
1706.179399,13554.6
1709.287003,14077.4
1712.390663,13563.6
1715.49039,13549.8
1718.586197,13885.2
1721.678095,13712.6
1724.766096,13721.4
1727.850213,13041.8
1730.930456,13432.6
1734.006838,13173.6
1737.079372,13512.2
1740.148067,13176.2
1743.212938,14167.8
1746.273996,13280
1749.331252,13282.8
1752.384718,13314.8
1755.434408,13369.8
1758.480332,13315.4
1761.522503,13297.8
1764.560933,13119.6
1767.595634,12750.4
1770.626618,13531.4
1773.653896,13455.2
1776.677482,13005.2
1779.697388,13024.6
1782.713625,13666.6
1785.726205,13532.4
1788.735141,13464.2
1791.740445,13012
1794.742129,12916.2
1797.740206,13396.4
1800.734687,13626.8
1803.725585,13223.6
1806.712912,13191.4
1809.69668,12957.4
1812.676902,12920.4
1815.65359,12616.4
1818.626756,12784.2
1821.596413,12955.4
1824.562573,12581.6
1827.525247,12938.4
1830.48445,12736.8
1833.440192,12903.8
1836.392487,12838.2
1839.341347,13078.2
1842.286784,12982.2
1845.22881,12526.4
1848.167439,13003
1851.102682,12850.4
1854.034553,12892.8
1856.963063,12629.4
1859.888226,13605.4
1862.810053,13041
1865.728557,12833.6
1868.643751,12575.2
1871.555648,12649
1874.46426,12301.6
1877.369599,12959
1880.271679,12825
1883.170512,12736
1886.06611,13179.2
1888.958487,12754.2
1891.847655,12718
1894.733626,12906.4
1897.616414,12926.6
1900.496032,12432.6
1903.372491,12811
1906.245805,13035.4
1909.115987,13192
1911.983049,13093.6
1914.847004,12983.6
1917.707866,13083.8
1920.565646,13008.4
1923.420359,12681.8
1926.272016,12885.8
1929.120631,12551.4
1931.966216,12765.8
1934.808786,12711.2
1937.648351,12963.4
1940.484927,12833.2
1943.318525,12995
1946.149158,13200.6
1948.97684,14341.8
1951.801584,13196
1954.623403,12932.8
1957.44231,13066.4
1960.258318,12528.6
1963.071439,12639.6
1965.881688,12790.6
1968.689078,12989.8
1971.493621,12719.6
