Ramanshift[cm-1],Intensity
-93.47115107,14397.2
-87.69374369,12901.6
-81.9253076,12736
-76.16582701,12973.8
-70.41528615,12930.2
-64.67366933,12644.4
-58.94096086,12650.6
-53.21714512,12853.2
-47.50220652,12976.6
-41.79612954,12902
-36.09889866,13380.6
-30.41049843,13620.6
-24.73091343,13163.6
-19.0601283,13225.6
-13.39812769,12988.6
-7.744896327,12865
-2.100418946,12568
3.535319659,13260
9.162334658,12627
14.78064118,12868.4
20.39025432,12596.2
25.99118913,12710.2
31.58346061,13163.6
37.16708375,12852.6
42.74207347,12627.2
48.30844468,12731.2
53.86621222,12565.8
59.41539093,12212.4
64.95599558,12199.6
70.48804091,12562.4
76.01154164,12676.6
81.52651243,12017.2
87.03296792,12671.8
92.5309227,12811.2
98.02039134,12285.6
103.5013884,12473.4
108.9739282,12304.4
114.4380255,12317.2
119.8936944,12520.4
125.3409495,13495.2
130.779805,12353.6
136.2102753,11939.2
141.6323747,12109.6
147.0461174,12719.4
152.4515176,12253.4
157.8485895,12189.2
163.2373472,12227.8
168.6178049,12460.8
173.9899766,12629.6
179.3538764,12251.2
184.7095182,12269.6
190.0569161,12533.4
195.396084,12820.4
200.7270358,12102.8
206.0497854,12134.2
211.3643466,11861
216.6707333,12223.6
221.9689593,11882.2
227.2590382,12046.4
232.5409839,12150.6
237.8148101,11968
243.0805303,12067.6
248.3381582,12046.4
253.5877075,11942.4
258.8291917,12104.2
264.0626244,12199.4
269.288019,12330.2
274.5053891,12502.8
279.7147481,12064.4
284.9161094,11965
290.1094865,12293.2
295.2948927,13019.4
300.4723414,14982.2
305.6418459,16645.8
310.8034194,18636.8
315.9570752,20389.8
321.1028267,20933
326.2406869,21284
331.370669,21746.8
336.4927863,22225.4
341.6070517,22750.8
346.7134786,23017.2
351.8120798,23773
356.9028684,23509
361.9858576,23684.6
367.0610602,24190.2
372.1284892,24799.2
377.1881577,27821.6
382.2400784,33531.6
387.2842644,41331.4
392.3207284,45684.4
397.3494833,42569
402.370542,36593.8
407.3839172,30757
412.3896217,26400.8
417.3876683,23765.8
422.3780697,22371.8
427.3608386,21507.2
432.3359876,21617
437.3035295,21409
442.2634769,21472.8
447.2158423,20368.6
452.1606383,20394
457.0978776,20375
462.0275727,19537.4
466.9497361,20197.8
471.8643802,19549
476.7715176,20193.6
481.6711608,20449
486.5633221,21022.2
491.448014,20755.8
496.3252488,20600
501.195039,20492.8
506.0573969,20693.6
510.9123349,20524
515.7598651,19606.6
520.6,20290.8
525.4327518,19997.2
530.2581327,19969
535.076155,19453
539.8868309,19927
544.6901726,20027.8
549.4861922,19507.4
554.2749019,20354.8
559.0563139,19287.2
563.8304402,18945.4
568.597293,19944.8
573.3568844,19549.8
578.1092263,19150.4
582.8543308,19526
587.5922101,19391.2
592.322876,19058.6
597.0463405,19201.2
601.7626157,19556
606.4717135,19100.6
611.1736458,19133.4
615.8684246,19123
620.5560617,19374.8
625.2365691,19283.2
629.9099585,19988.2
634.5762419,20594.6
639.2354312,20006.2
643.887538,20012.2
648.5325743,19581.6
653.1705518,19148.6
657.8014823,19301.2
662.4253775,18515.4
667.0422493,18890
671.6521092,18939
676.2549691,19097
680.8508407,19096.8
685.4397355,18984.2
690.0216654,19212.6
694.5966419,19158
699.1646767,20339
703.7257814,20148.4
708.2799676,20101.8
712.827247,20004
717.367631,19558.2
721.9011314,19358
726.4277595,18436
730.9475271,18853.8
735.4604456,18771.6
739.9665264,19363.8
744.4657813,18820.8
748.9582215,18703.4
753.4438587,18227.4
757.9227042,17971.2
762.3947696,18756.4
766.8600662,18203.6
771.3186056,19567.2
775.770399,18672.8
780.215458,19042.2
784.6537939,18520.2
789.0854181,18763.2
793.510342,19058.6
797.9285769,20459.2
802.3401342,20049.6
806.7450253,20207.6
811.1432614,19788.6
815.5348538,19540
819.9198139,18959.2
824.2981531,18921.8
828.6698824,18628.4
833.0350133,18144.2
837.393557,17647.4
841.7455248,17884.2
846.0909278,17585.8
850.4297774,17608.8
854.7620848,17627.4
859.0878611,17940
863.4071176,17397.4
867.7198655,17993.2
872.026116,18349
876.3258802,18815.6
880.6191693,18378
884.9059946,18607.8
889.186367,18999.2
893.4602979,18032.6
897.7277982,18151.8
901.9888793,18807
906.2435521,19214.8
910.4918277,18969.4
914.7337174,19097.2
918.9692321,19243.6
923.1983831,20143.6
927.4211813,19732.6
931.6376378,20506.8
935.8477637,19938
940.0515701,20389
944.249068,20750.4
948.4402684,20170.2
952.6251825,21151.2
956.8038212,20816.2
960.9761955,21662.4
965.1423166,21285.4
969.3021953,21347.8
973.4558427,21284
977.6032699,21029.4
981.7444877,21043.8
985.8795072,20838.8
990.0083394,20921.8
994.1309953,20438.2
998.2474857,21080
1002.357822,20794.4
1006.462014,21641
1010.560075,20398.6
1014.652013,19562
1018.737841,19174.2
1022.81757,18321
1026.891209,18252.4
1030.958771,18022
1035.020266,18251.8
1039.075705,18105.6
1043.1251,17714
1047.16846,18094.2
1051.205797,18274.4
1055.237121,18371.4
1059.262444,19271.6
1063.281777,20956.4
1067.295131,24937.8
1071.302515,31823.2
1075.303942,37062.6
1079.299422,39529.2
1083.288966,34666.8
1087.272585,27528
1091.250289,22084.2
1095.222091,19524.8
1099.187999,18021.4
1103.148026,17771.8
1107.102183,17368.2
1111.050479,17470.4
1114.992927,17470.4
1118.929536,17455.8
1122.860318,18227.2
1126.785283,18620.8
1130.704443,19924.8
1134.617808,22891
1138.52539,24324.4
1142.427198,24224.2
1146.323244,22526.8
1150.213538,20393.2
1154.098093,19297
1157.976917,18138.2
1161.850023,17790.4
1165.717421,18341.8
1169.579121,18273
1173.435135,19235.4
1177.285474,19152.6
1181.130148,20214.8
1184.969169,20624.4
1188.802547,19600.2
1192.630292,18216.8
1196.452416,17101.6
1200.26893,16765.2
1204.079844,16160.6
1207.88517,15541.4
1211.684917,16203.2
1215.479098,15759
1219.267722,17530
1223.050801,15809
1226.828346,15871.4
1230.600366,16336.2
1234.366874,16335
1238.12788,16381.4
1241.883395,16536
1245.633429,16848.4
1249.377994,16858.2
1253.1171,15880.4
1256.850759,16162.2
1260.578981,16021.2
1264.301776,15953.4
1268.019157,15772.6
1271.731133,15436.6
1275.437715,15339.2
1279.138915,16030.2
1282.834743,16197.4
1286.52521,15700.8
1290.210328,15524.6
1293.890106,15780
1297.564555,16402.8
1301.233688,15719
1304.897514,16145.4
1308.556044,16271
1312.209289,16071.2
1315.857261,15399.6
1319.499969,15418.6
1323.137425,16149.8
1326.769641,15537.8
1330.396626,16049.6
1334.018391,15506.2
1337.634948,15519.6
1341.246307,15327.4
1344.85248,15328.8
1348.453477,15285.4
1352.049309,15332.4
1355.639987,15553.6
1359.225522,16377
1362.805925,15935.6
1366.381207,15979.4
1369.951379,16108.2
1373.516452,16388.8
1377.076436,16812.4
1380.631343,17315.8
1384.181184,17850
1387.725969,18801.8
1391.26571,18606.4
1394.800417,17797
1398.330102,16879
1401.854776,16408
1405.374448,15711.6
1408.889132,15099
1412.398837,14773.2
1415.903574,15583.6
1419.403355,16861.8
1422.89819,17523.4
1426.388091,18884.2
1429.873069,20092.6
1433.353134,19604.6
1436.828298,18936.2
1440.298571,18140.8
1443.763965,16932.2
1447.224491,16079.6
1450.68016,15476.8
1454.130983,15695.6
1457.576971,15385
1461.018135,15501.4
1464.454486,15702
1467.886036,15138.8
1471.312794,15293.2
1474.734774,14936
1478.151985,15777.2
1481.564439,15378.4
1484.972146,15446.6
1488.375119,15096
1491.773368,15265
1495.166904,15731.4
1498.555739,14833.2
1501.939883,14746
1505.319349,14233.8
1508.694146,14584.4
1512.064286,14720.4
1515.429781,14621.6
1518.790642,14516.4
1522.146879,14849.2
1525.498505,14295.4
1528.845529,14288.2
1532.187965,15064
1535.525822,14884.8
1538.859112,14990
1542.187846,15662.2
1545.512036,14924.4
1548.831693,16457.4
1552.146829,16005.8
1555.457453,15707.6
1558.763579,15456.4
1562.065216,16534.4
1565.362377,17378.4
1568.655073,18337.4
1571.943315,18842
1575.227114,19724.4
1578.506482,20490.6
1581.781431,22167.8
1585.051971,22967.8
1588.318114,23756
1591.579872,23252.2
1594.837255,21241
1598.090275,18992.2
1601.338945,17009
1604.583274,16369.2
1607.823275,15270.8
1611.058959,14537.2
1614.290338,15133.6
1617.517422,14270.4
1620.740224,14607.8
1623.958755,13983.2
1627.173027,14124.4
1630.38305,13625.4
1633.588838,14018.4
1636.7904,13732.8
1639.987749,13991
1643.180896,13940.8
1646.369853,13253.6
1649.554632,14120.4
1652.735244,13535.6
1655.9117,13070.8
1659.084013,13451.4
1662.252193,14124.2
1665.416254,13186.6
1668.576205,13376.4
1671.732059,13732.4
1674.883828,13702.6
1678.031523,13125.4
1681.175157,13294.8
1684.314739,13228.6
1687.450284,13280.2
1690.581801,13097.2
1693.709304,12913.2
1696.832803,12970.4
1699.952311,13229
1703.067839,13228
1706.179399,13181.8
1709.287003,13554
1712.390663,13184.2
1715.49039,13103.2
1718.586197,13485.6
1721.678095,13315.6
1724.766096,13295.6
1727.850213,12662.4
1730.930456,13105.2
1734.006838,12877.8
1737.079372,13129.8
1740.148067,12800.4
1743.212938,13839.2
1746.273996,12983.6
1749.331252,13042.6
1752.384718,13003.6
1755.434408,13028.8
1758.480332,13066.4
1761.522503,12999.6
1764.560933,12905.6
1767.595634,12498.4
1770.626618,13120
1773.653896,13235
1776.677482,12772.2
1779.697388,12780.4
1782.713625,13338.6
1785.726205,13243.2
1788.735141,13254.2
1791.740445,12736
1794.742129,12813
1797.740206,13230.8
1800.734687,13203.6
1803.725585,12992
1806.712912,13095
1809.69668,12653.6
1812.676902,12814.2
1815.65359,12416.2
1818.626756,12599.4
1821.596413,12700.2
1824.562573,12428.8
1827.525247,12674.8
1830.48445,12555.6
1833.440192,12708.4
1836.392487,12561
1839.341347,12750
1842.286784,12813.2
1845.22881,12258.2
1848.167439,12896
1851.102682,12702
1854.034553,12708.8
1856.963063,12442.4
1859.888226,13339.4
1862.810053,12886
1865.728557,12602.4
1868.643751,12435.4
1871.555648,12441
1874.46426,12137
1877.369599,12765.6
1880.271679,12532.6
1883.170512,12468.4
1886.06611,12877.8
1888.958487,12685.8
1891.847655,12619
1894.733626,12661
1897.616414,12825
1900.496032,12236
1903.372491,12641.4
1906.245805,12977.8
1909.115987,12937.2
1911.983049,12838
1914.847004,12792.4
1917.707866,12918.4
1920.565646,12820
1923.420359,12433.8
1926.272016,12597.4
1929.120631,12421.8
1931.966216,12667.8
1934.808786,12479.6
1937.648351,12790
1940.484927,12718
1943.318525,12893.8
1946.149158,13126.6
1948.97684,14119.4
1951.801584,13066
1954.623403,12821.6
1957.44231,13019.4
1960.258318,12455.8
1963.071439,12459
1965.881688,12682.6
1968.689078,12872.2
1971.493621,12568.4
