Ramanshift[cm-1],Intensity
-93.47115107,14330.6
-87.69374369,12934.8
-81.9253076,12843.2
-76.16582701,12938.8
-70.41528615,12911.4
-64.67366933,12636
-58.94096086,12752.4
-53.21714512,12956.2
-47.50220652,13029.4
-41.79612954,13044.8
-36.09889866,13538.6
-30.41049843,13596.6
-24.73091343,13283.6
-19.0601283,13250
-13.39812769,13023.8
-7.744896327,12805.8
-2.100418946,12574
3.535319659,13307.2
9.162334658,12557.2
14.78064118,12978.6
20.39025432,12512.4
25.99118913,12677.4
31.58346061,13172.6
37.16708375,12945.6
42.74207347,12674.2
48.30844468,12632.8
53.86621222,12537.4
59.41539093,12195.2
64.95599558,12110.6
70.48804091,12581.4
76.01154164,12633
81.52651243,12035.2
87.03296792,12621.2
92.5309227,12899.8
98.02039134,12170.8
103.5013884,12505.4
108.9739282,12259.6
114.4380255,12335.2
119.8936944,12565.6
125.3409495,13517.8
130.779805,12193.2
136.2102753,12005.6
141.6323747,12131
147.0461174,12730.8
152.4515176,12281.8
157.8485895,12202.4
163.2373472,12151.8
168.6178049,12417.4
173.9899766,12642.2
179.3538764,12178
184.7095182,12347.6
190.0569161,12507.4
195.396084,12616.4
200.7270358,12069
206.0497854,12138.8
211.3643466,11901.6
216.6707333,12322.4
221.9689593,11927
227.2590382,12045.8
232.5409839,12094.2
237.8148101,11967.2
243.0805303,12103.8
248.3381582,12016.4
253.5877075,11916.8
258.8291917,12075.6
264.0626244,12048.8
269.288019,12336.2
274.5053891,12477.4
279.7147481,12157.2
284.9161094,11803
290.1094865,12095
295.2948927,12633.6
300.4723414,13928.2
305.6418459,14710.8
310.8034194,15596.8
315.9570752,16783
321.1028267,17046.6
326.2406869,17094.6
331.370669,17278.2
336.4927863,17289.6
341.6070517,17346
346.7134786,17248.4
351.8120798,17654.2
356.9028684,17291.6
361.9858576,17314.6
367.0610602,17723.2
372.1284892,17399.4
377.1881577,17868
382.2400784,18134.2
387.2842644,18596.6
392.3207284,19295.8
397.3494833,18843.6
402.370542,18866.2
407.3839172,18124.8
412.3896217,17529.8
417.3876683,16932
422.3780697,16886.4
427.3608386,16879.6
432.3359876,17159.8
437.3035295,17358.6
442.2634769,17411
447.2158423,16694.6
452.1606383,16678.2
457.0978776,16859.4
462.0275727,16231.8
466.9497361,16766.4
471.8643802,16254.8
476.7715176,16743
481.6711608,16469.6
486.5633221,16970.6
491.448014,16759.2
496.3252488,16593.2
501.195039,16672.6
506.0573969,17093.4
510.9123349,16644.8
515.7598651,16207.4
520.6,16724.6
525.4327518,16625.4
530.2581327,16622.8
535.076155,16075.8
539.8868309,16485
544.6901726,16612.8
549.4861922,16283
554.2749019,17254.2
559.0563139,16239.8
563.8304402,16123.4
568.597293,17181
573.3568844,16883.6
578.1092263,16241.8
582.8543308,16778.8
587.5922101,16745
592.322876,16373.2
597.0463405,16462.8
601.7626157,16621.4
606.4717135,16196.6
611.1736458,16191.4
615.8684246,16423.2
620.5560617,16683.8
625.2365691,16526
629.9099585,16734.8
634.5762419,17116.6
639.2354312,16332.8
643.887538,16699.8
648.5325743,16327.2
653.1705518,16318.8
657.8014823,16469.6
662.4253775,15792.2
667.0422493,16193.8
671.6521092,16194.2
676.2549691,16412.6
680.8508407,16377.6
685.4397355,16242.8
690.0216654,16328
694.5966419,16057.8
699.1646767,16687.6
703.7257814,16346.4
708.2799676,16441.6
712.827247,16645.8
717.367631,16333.2
721.9011314,16220.2
726.4277595,15727.4
730.9475271,16351.8
735.4604456,16166.6
739.9665264,16653.2
744.4657813,16199.4
748.9582215,16192.2
753.4438587,15677.4
757.9227042,15647.2
762.3947696,16175
766.8600662,15618.2
771.3186056,17153.2
775.770399,16027.6
780.215458,16399.8
784.6537939,15602.6
789.0854181,15543
793.510342,15726.8
797.9285769,16365.4
802.3401342,15771.8
806.7450253,15968.6
811.1432614,15873.6
815.5348538,15727.8
819.9198139,15473.2
824.2981531,15639
828.6698824,15895.6
833.0350133,15636.6
837.393557,15406.8
841.7455248,15715.4
846.0909278,15547.8
850.4297774,15487.8
854.7620848,15500
859.0878611,15688.6
863.4071176,15211
867.7198655,15633.8
872.026116,15952.4
876.3258802,16332.2
880.6191693,15894.6
884.9059946,15900.8
889.186367,16206.6
893.4602979,15237.4
897.7277982,15150.8
901.9888793,15592.6
906.2435521,16034
910.4918277,15376.2
914.7337174,15285.8
918.9692321,15338.6
923.1983831,15894.4
927.4211813,15520
931.6376378,16313.8
935.8477637,15777.6
940.0515701,15871
944.249068,16000
948.4402684,15134.2
952.6251825,16099.4
956.8038212,15662.4
960.9761955,16257.2
965.1423166,15690.6
969.3021953,15756
973.4558427,15773
977.6032699,15599.8
981.7444877,15715.8
985.8795072,15586.4
990.0083394,15776.6
994.1309953,15421
998.2474857,15803.6
1002.357822,14849.4
1006.462014,15540
1010.560075,15249
1014.652013,15711.6
1018.737841,15951.4
1022.81757,15470.2
1026.891209,15349
1030.958771,15235.4
1035.020266,15575
1039.075705,15269.2
1043.1251,15061.4
1047.16846,15360.8
1051.205797,15148.4
1055.237121,14894.8
1059.262444,14798.2
1063.281777,14518.6
1067.295131,14788.4
1071.302515,16078.6
1075.303942,15922.6
1079.299422,17021.8
1083.288966,16411.6
1087.272585,15952.6
1091.250289,15636.4
1095.222091,15563.4
1099.187999,14993.2
1103.148026,15164.8
1107.102183,14892.6
1111.050479,15250
1114.992927,15026
1118.929536,14951.8
1122.860318,15125.6
1126.785283,14676.4
1130.704443,14629.2
1134.617808,15455.6
1138.52539,15358.8
1142.427198,15305.4
1146.323244,15350.8
1150.213538,14764
1154.098093,15354
1157.976917,14763.8
1161.850023,14657.8
1165.717421,15260.6
1169.579121,14892.4
1173.435135,15406.8
1177.285474,14468.6
1181.130148,14742
1184.969169,15171.2
1188.802547,15074.8
1192.630292,14656.6
1196.452416,14483.6
1200.26893,14432.2
1204.079844,14108
1207.88517,13769.4
1211.684917,14481.8
1215.479098,14052.2
1219.267722,15675.8
1223.050801,14083.4
1226.828346,14145.4
1230.600366,14421.6
1234.366874,14525.6
1238.12788,14206.4
1241.883395,14331.4
1245.633429,14607.2
1249.377994,14607.6
1253.1171,13800.8
1256.850759,14244.4
1260.578981,14121
1264.301776,14312.8
1268.019157,14132.6
1271.731133,13926.2
1275.437715,13781.2
1279.138915,14376.6
1282.834743,14566
1286.52521,14083.8
1290.210328,13894.4
1293.890106,14101.8
1297.564555,14525.2
1301.233688,13927.6
1304.897514,14177.6
1308.556044,14428.6
1312.209289,14350.4
1315.857261,13757.2
1319.499969,13892.2
1323.137425,14652.8
1326.769641,14120.2
1330.396626,14811.2
1334.018391,14302.8
1337.634948,14357
1341.246307,13921.2
1344.85248,13970.8
1348.453477,13727
1352.049309,13825.8
1355.639987,13821.6
1359.225522,14549.4
1362.805925,14078.4
1366.381207,14114.6
1369.951379,14041.2
1373.516452,14228
1377.076436,14378.4
1380.631343,14251.2
1384.181184,14056.4
1387.725969,14128.4
1391.26571,13863.2
1394.800417,13729.4
1398.330102,13825.8
1401.854776,14059.8
1405.374448,13917
1408.889132,13431
1412.398837,13226.6
1415.903574,13445
1419.403355,14092.2
1422.89819,13654
1426.388091,13679.6
1429.873069,14281.6
1433.353134,13652.6
1436.828298,13697.8
1440.298571,13851.6
1443.763965,13658.8
1447.224491,13432.2
1450.68016,13486
1454.130983,14026.6
1457.576971,13862.2
1461.018135,14081.2
1464.454486,14132.6
1467.886036,13613
1471.312794,13699
1474.734774,13435
1478.151985,14158.8
1481.564439,13814
1484.972146,13744
1488.375119,13251.6
1491.773368,13711.8
1495.166904,14347.6
1498.555739,13584.6
1501.939883,13676.8
1505.319349,13304.2
1508.694146,13591.6
1512.064286,13765.4
1515.429781,13551.6
1518.790642,13382.4
1522.146879,13753.8
1525.498505,13112.2
1528.845529,13151.2
1532.187965,13936
1535.525822,13483.4
1538.859112,13524
1542.187846,14073.8
1545.512036,13159.8
1548.831693,14480.4
1552.146829,14015.2
1555.457453,13258.6
1558.763579,12795.6
1562.065216,13269
1565.362377,13653.8
1568.655073,13862
1571.943315,13713.8
1575.227114,13605.2
1578.506482,13603.8
1581.781431,14266
1585.051971,13905.2
1588.318114,14092
1591.579872,14009.8
1594.837255,13905.2
1598.090275,13571.4
1601.338945,13550.8
1604.583274,13813.4
1607.823275,13425
1611.058959,12950.6
1614.290338,13697
1617.517422,12903.4
1620.740224,13297
1623.958755,13021.2
1627.173027,13048.8
1630.38305,12622
1633.588838,13191
1636.7904,12804.8
1639.987749,13162.8
1643.180896,13222.8
1646.369853,12678.6
1649.554632,13545.6
1652.735244,12871.2
1655.9117,12548.2
1659.084013,12877.2
1662.252193,13559
1665.416254,12610.2
1668.576205,12925
1671.732059,13240.8
1674.883828,13164.8
1678.031523,12715.4
1681.175157,12803
1684.314739,12846.2
1687.450284,12751.4
1690.581801,12707.6
1693.709304,12478
1696.832803,12672
1699.952311,12806.2
1703.067839,12779.8
1706.179399,12694.2
1709.287003,13221.2
1712.390663,12812.6
1715.49039,12809.2
1718.586197,13206.6
1721.678095,12922.8
1724.766096,13047.8
1727.850213,12449.6
1730.930456,12760
1734.006838,12644
1737.079372,12863.4
1740.148067,12435.2
1743.212938,13570.2
1746.273996,12717.8
1749.331252,12743.6
1752.384718,12723.4
1755.434408,12686
1758.480332,12781.6
1761.522503,12681.4
1764.560933,12575.8
1767.595634,12255.6
1770.626618,13046.2
1773.653896,12957
1776.677482,12588.6
1779.697388,12515.8
1782.713625,13129.8
1785.726205,13094.6
1788.735141,13017.4
1791.740445,12523
1794.742129,12630.4
1797.740206,13017.8
1800.734687,13030.4
1803.725585,12775.6
1806.712912,12661.4
1809.69668,12533.6
1812.676902,12534.2
1815.65359,12286.6
1818.626756,12359.8
1821.596413,12555.6
1824.562573,12192
1827.525247,12524.6
1830.48445,12299.2
1833.440192,12545
1836.392487,12418.2
1839.341347,12637.2
1842.286784,12584.2
1845.22881,12204.2
1848.167439,12633.6
1851.102682,12500.6
1854.034553,12515.6
1856.963063,12274.2
1859.888226,13220.8
1862.810053,12769
1865.728557,12543.6
1868.643751,12188.2
1871.555648,12252.4
1874.46426,11977
1877.369599,12678.2
1880.271679,12389.6
1883.170512,12235.8
1886.06611,12817.4
1888.958487,12474.6
1891.847655,12391.4
1894.733626,12584.2
1897.616414,12644.8
1900.496032,12174.8
1903.372491,12498.6
1906.245805,12718
1909.115987,12795.6
1911.983049,12676.8
1914.847004,12643.2
1917.707866,12724.2
1920.565646,12717
1923.420359,12295.4
1926.272016,12537
1929.120631,12273.8
1931.966216,12456.8
1934.808786,12510.6
1937.648351,12709.2
1940.484927,12597.8
1943.318525,12679.8
1946.149158,12904
1948.97684,13991.4
1951.801584,12906.6
1954.623403,12629
1957.44231,12729
1960.258318,12197.6
1963.071439,12256.2
1965.881688,12480.2
1968.689078,12662.6
1971.493621,12391.6
