Ramanshift[cm-1],Intensity,,,,,,,,
-93.47115107,14491.6,,,,,,,, 
-87.69374369,13168.6,,,,,,,,
-81.9253076,12948.4,,,,,,,,
-76.16582701,13029.4,,,,,,,,
-70.41528615,13071.8,,,,,,,,
-64.67366933,12758,,,,,,,,
-58.94096086,12861.2,,,,,,,,
-53.21714512,13030,,,,,,,,
-47.50220652,13136.8,,,,,,,,
-41.79612954,13054.6,,,,,,,,
-36.09889866,13616.4,,,,,,,,
-30.41049843,13765.8,,,,,,,,
-24.73091343,13259,,,,,,,,
-19.0601283,13298.2,,,,,,,,
-13.39812769,13081.2,,,,,,,,
-7.744896327,12869.6,,,,,,,,
-2.100418946,12592.8,,,,,,,,
3.535319659,13419.2,,,,,,,,
9.162334658,12667.6,,,,,,,,
14.78064118,13129.2,,,,,,,,
20.39025432,12703.4,,,,,,,,
25.99118913,12786.8,,,,,,,,
31.58346061,13207.4,,,,,,,,
37.16708375,13090,,,,,,,,
42.74207347,12668.4,,,,,,,,
48.30844468,12779.6,,,,,,,,
53.86621222,12614.4,,,,,,,,
59.41539093,12320.4,,,,,,,,
64.95599558,12262.2,,,,,,,,
70.48804091,12573.6,,,,,,,,
76.01154164,12753,,,,,,,,
81.52651243,12123.8,,,,,,,,
87.03296792,12680.8,,,,,,,,
92.5309227,13045,,,,,,,,
98.02039134,12365.4,,,,,,,,
103.5013884,12593.4,,,,,,,,
108.9739282,12402.6,,,,,,,,
114.4380255,12494.4,,,,,,,,
119.8936944,12625.6,,,,,,,,
125.3409495,13652.2,,,,,,,,
130.779805,12457.4,,,,,,,,
136.2102753,12204.6,,,,,,,,
141.6323747,12101,,,,,,,,
147.0461174,12795.2,,,,,,,,
152.4515176,12357.4,,,,,,,,
157.8485895,12335,,,,,,,,
163.2373472,12271.6,,,,,,,,
168.6178049,12503.8,,,,,,,,
173.9899766,12902.2,,,,,,,,
179.3538764,12285.2,,,,,,,,
184.7095182,12511.2,,,,,,,,
190.0569161,12671.4,,,,,,,,
195.396084,12834.8,,,,,,,,
200.7270358,12211.6,,,,,,,,
206.0497854,12307.8,,,,,,,,
211.3643466,12001,,,,,,,,
216.6707333,12338.6,,,,,,,,
221.9689593,11959,,,,,,,,
227.2590382,12263.2,,,,,,,,
232.5409839,12243.6,,,,,,,,
237.8148101,12071,,,,,,,,
243.0805303,12161.2,,,,,,,,
248.3381582,12114.2,,,,,,,,
253.5877075,12050.6,,,,,,,,
258.8291917,12076.6,,,,,,,,
264.0626244,12227,,,,,,,,
269.288019,12424.8,,,,,,,,
274.5053891,12567.2,,,,,,,,
279.7147481,12229.4,,,,,,,,
284.9161094,12007.2,,,,,,,,
290.1094865,12182.4,,,,,,,,
295.2948927,12786.8,,,,,,,,
300.4723414,14216.8,,,,,,,,
305.6418459,15065,,,,,,,,
310.8034194,15827.8,,,,,,,,
315.9570752,17172.8,,,,,,,,
321.1028267,17472.2,,,,,,,,
326.2406869,17454.6,,,,,,,,
331.370669,17565.6,,,,,,,,
336.4927863,17721.4,,,,,,,,
341.6070517,17825,,,,,,,,
346.7134786,17585.6,,,,,,,,
351.8120798,17849.4,,,,,,,,
356.9028684,17667.8,,,,,,,,
361.9858576,17630.8,,,,,,,,
367.0610602,17977.4,,,,,,,,
372.1284892,17695.8,,,,,,,,
377.1881577,18151,,,,,,,,
382.2400784,18231.2,,,,,,,,
387.2842644,18658.2,,,,,,,,
392.3207284,19251.2,,,,,,,,
397.3494833,18705.8,,,,,,,,
402.370542,18688.4,,,,,,,,
407.3839172,18054.6,,,,,,,,
412.3896217,17551,,,,,,,,
417.3876683,17137,,,,,,,,
422.3780697,17204,,,,,,,,
427.3608386,17194.2,,,,,,,,
432.3359876,17544,,,,,,,,
437.3035295,17782.6,,,,,,,,
442.2634769,17841.6,,,,,,,,
447.2158423,17084.6,,,,,,,,
452.1606383,17158.6,,,,,,,,
457.0978776,17107.8,,,,,,,,
462.0275727,16675.6,,,,,,,,
466.9497361,17103,,,,,,,,
471.8643802,16634.6,,,,,,,,
476.7715176,17127.6,,,,,,,,
481.6711608,17100.4,,,,,,,,
486.5633221,17252,,,,,,,,
491.448014,16981.8,,,,,,,,
496.3252488,16971.8,,,,,,,,
501.195039,16973.4,,,,,,,,
506.0573969,17353.6,,,,,,,,
510.9123349,17093.6,,,,,,,,
515.7598651,16600.6,,,,,,,,
520.6,17084.2,,,,,,,,
525.4327518,16981.2,,,,,,,,
530.2581327,17078.4,,,,,,,,
535.076155,16436.4,,,,,,,,
539.8868309,16881.6,,,,,,,,
544.6901726,16996.4,,,,,,,,
549.4861922,16741.4,,,,,,,,
554.2749019,17798,,,,,,,,
559.0563139,16658,,,,,,,,
563.8304402,16430.8,,,,,,,,
568.597293,17611,,,,,,,,
573.3568844,17155.6,,,,,,,,
578.1092263,16620.4,,,,,,,,
582.8543308,17094.2,,,,,,,,
587.5922101,17012.8,,,,,,,,
592.322876,16755.6,,,,,,,,
597.0463405,16924.8,,,,,,,,
601.7626157,17140.8,,,,,,,,
606.4717135,16554.2,,,,,,,,
611.1736458,16526.2,,,,,,,,
615.8684246,16680.2,,,,,,,,
620.5560617,16899.6,,,,,,,,
625.2365691,16635.8,,,,,,,,
629.9099585,17049.8,,,,,,,,
634.5762419,17410,,,,,,,,
639.2354312,16736,,,,,,,,
643.887538,16894.6,,,,,,,,
648.5325743,16637.2,,,,,,,,
653.1705518,16739.8,,,,,,,,
657.8014823,16808,,,,,,,,
662.4253775,16015.6,,,,,,,,
667.0422493,16403.2,,,,,,,,
671.6521092,16438.8,,,,,,,,
676.2549691,16670.2,,,,,,,,
680.8508407,16590.8,,,,,,,,
685.4397355,16553.4,,,,,,,,
690.0216654,16626.4,,,,,,,,
694.5966419,16430.2,,,,,,,,
699.1646767,16928.6,,,,,,,,
703.7257814,16605.6,,,,,,,,
708.2799676,16675,,,,,,,,
712.827247,16814,,,,,,,,
717.367631,16513.4,,,,,,,,
721.9011314,16640.2,,,,,,,,
726.4277595,15853.6,,,,,,,,
730.9475271,16538.2,,,,,,,,
735.4604456,16503.2,,,,,,,,
739.9665264,16903.8,,,,,,,,
744.4657813,16526.2,,,,,,,,
748.9582215,16418.4,,,,,,,,
753.4438587,16028.8,,,,,,,,
757.9227042,15770,,,,,,,,
762.3947696,16284.8,,,,,,,,
766.8600662,15952.6,,,,,,,,
771.3186056,17389,,,,,,,,
775.770399,16304.6,,,,,,,,
780.215458,16679.6,,,,,,,,
784.6537939,15817.2,,,,,,,,
789.0854181,15791,,,,,,,,
793.510342,15956,,,,,,,,
797.9285769,16491.4,,,,,,,,
802.3401342,15778,,,,,,,,
806.7450253,16152.4,,,,,,,,
811.1432614,16055.2,,,,,,,,
815.5348538,15872.6,,,,,,,,
819.9198139,15594.6,,,,,,,,
824.2981531,15981.4,,,,,,,,
828.6698824,16072.8,,,,,,,,
833.0350133,15827.6,,,,,,,,
837.393557,15574.2,,,,,,,,
841.7455248,15916,,,,,,,,
846.0909278,15764.2,,,,,,,,
850.4297774,15557.4,,,,,,,,
854.7620848,15703.6,,,,,,,,
859.0878611,16004.6,,,,,,,,
863.4071176,15348.6,,,,,,,,
867.7198655,15744.8,,,,,,,,
872.026116,16156.6,,,,,,,,
876.3258802,16552.6,,,,,,,,
880.6191693,15985.8,,,,,,,,
884.9059946,15993.4,,,,,,,,
889.186367,16507.8,,,,,,,,
893.4602979,15378.2,,,,,,,,
897.7277982,15254.6,,,,,,,,
901.9888793,15709.2,,,,,,,,
906.2435521,16215.2,,,,,,,,
910.4918277,15528.8,,,,,,,,
914.7337174,15428,,,,,,,,
918.9692321,15350.8,,,,,,,,
923.1983831,15889,,,,,,,,
927.4211813,15653.6,,,,,,,,
931.6376378,16333.8,,,,,,,,
935.8477637,15673,,,,,,,,
940.0515701,15973.4,,,,,,,,
944.249068,15968.2,,,,,,,,
948.4402684,15283.8,,,,,,,,
952.6251825,16041,,,,,,,,
956.8038212,15617.4,,,,,,,,
960.9761955,16185.6,,,,,,,,
965.1423166,15755.4,,,,,,,,
969.3021953,15778.4,,,,,,,,
973.4558427,15830.8,,,,,,,,
977.6032699,15503.6,,,,,,,,
981.7444877,15676.6,,,,,,,,
985.8795072,15519.6,,,,,,,,
990.0083394,15804,,,,,,,,
994.1309953,15381.4,,,,,,,,
998.2474857,15760,,,,,,,,
1002.357822,14973.2,,,,,,,,
1006.462014,15532,,,,,,,,
1010.560075,15285,,,,,,,,
1014.652013,15730.6,,,,,,,,
1018.737841,16000,,,,,,,,
1022.81757,15401.4,,,,,,,,
1026.891209,15415.2,,,,,,,,
1030.958771,15208.8,,,,,,,,
1035.020266,15633,,,,,,,,
1039.075705,15343.6,,,,,,,,
1043.1251,15159.6,,,,,,,,
1047.16846,15386.6,,,,,,,,
1051.205797,15281,,,,,,,,
1055.237121,14946.4,,,,,,,,
1059.262444,14934.2,,,,,,,,
1063.281777,14613.2,,,,,,,,
1067.295131,14830.8,,,,,,,,
1071.302515,15957,,,,,,,,
1075.303942,15616.2,,,,,,,,
1079.299422,16786.2,,,,,,,,
1083.288966,16252.2,,,,,,,,
1087.272585,15726,,,,,,,,
1091.250289,15467.8,,,,,,,,
1095.222091,15398.6,,,,,,,,
1099.187999,15103.6,,,,,,,,
1103.148026,15242.8,,,,,,,,
1107.102183,15028.8,,,,,,,,
1111.050479,15165,,,,,,,,
1114.992927,15163,,,,,,,,
1118.929536,14945.4,,,,,,,,
1122.860318,15310,,,,,,,,
1126.785283,14706.6,,,,,,,,
1130.704443,14791.8,,,,,,,,
1134.617808,15424,,,,,,,,
1138.52539,15371.4,,,,,,,,
1142.427198,15302.4,,,,,,,,
1146.323244,15291.4,,,,,,,,
1150.213538,14917.6,,,,,,,,
1154.098093,15432.2,,,,,,,,
1157.976917,14785,,,,,,,,
1161.850023,14655.6,,,,,,,,
1165.717421,15218.2,,,,,,,,
1169.579121,14830.8,,,,,,,,
1173.435135,15217.6,,,,,,,,
1177.285474,14470.4,,,,,,,,
1181.130148,14673,,,,,,,,
1184.969169,15107.8,,,,,,,,
1188.802547,15063,,,,,,,,
1192.630292,14635.8,,,,,,,,
1196.452416,14311,,,,,,,,
1200.26893,14471.6,,,,,,,,
1204.079844,14177,,,,,,,,
1207.88517,13812.8,,,,,,,,
1211.684917,14581.6,,,,,,,,
1215.479098,14101.8,,,,,,,,
1219.267722,15642.4,,,,,,,,
1223.050801,14126.2,,,,,,,,
1226.828346,14214.6,,,,,,,,
1230.600366,14403,,,,,,,,
1234.366874,14437,,,,,,,,
1238.12788,14303.2,,,,,,,,
1241.883395,14208.2,,,,,,,,
1245.633429,14517,,,,,,,,
1249.377994,14561.4,,,,,,,,
1253.1171,13754.6,,,,,,,,
1256.850759,14161,,,,,,,,
1260.578981,14131.8,,,,,,,,
1264.301776,14276.6,,,,,,,,
1268.019157,14134,,,,,,,,
1271.731133,13878.2,,,,,,,,
1275.437715,13741.2,,,,,,,,
1279.138915,14321.2,,,,,,,,
1282.834743,14626.2,,,,,,,,
1286.52521,14024,,,,,,,,
1290.210328,13766.4,,,,,,,,
1293.890106,14098,,,,,,,,
1297.564555,14509.2,,,,,,,,
1301.233688,13752,,,,,,,,
1304.897514,14301,,,,,,,,
1308.556044,14337.6,,,,,,,,
1312.209289,14286.2,,,,,,,,
1315.857261,13769.8,,,,,,,,
1319.499969,13883.4,,,,,,,,
1323.137425,14754.8,,,,,,,,
1326.769641,14070,,,,,,,,
1330.396626,14772.6,,,,,,,,
1334.018391,14039.4,,,,,,,,
1337.634948,14277.8,,,,,,,,
1341.246307,13836.6,,,,,,,,
1344.85248,13846.8,,,,,,,,
1348.453477,13640.4,,,,,,,,
1352.049309,13718.6,,,,,,,,
1355.639987,13728.2,,,,,,,,
1359.225522,14471,,,,,,,,
1362.805925,13877.6,,,,,,,,
1366.381207,14033,,,,,,,,
1369.951379,14029,,,,,,,,
1373.516452,14138.8,,,,,,,,
1377.076436,14272.2,,,,,,,,
1380.631343,14198,,,,,,,,
1384.181184,14047.4,,,,,,,,
1387.725969,14072.4,,,,,,,,
1391.26571,13687.8,,,,,,,,
1394.800417,13707.6,,,,,,,,
1398.330102,13847.8,,,,,,,,
1401.854776,14097.6,,,,,,,,
1405.374448,13865,,,,,,,,
1408.889132,13443.6,,,,,,,,
1412.398837,13057.6,,,,,,,,
1415.903574,13531.6,,,,,,,,
1419.403355,13962,,,,,,,,
1422.89819,13593,,,,,,,,
1426.388091,13555,,,,,,,,
1429.873069,14057.6,,,,,,,,
1433.353134,13572,,,,,,,,
1436.828298,13571.6,,,,,,,,
1440.298571,13788,,,,,,,,
1443.763965,13420.2,,,,,,,,
1447.224491,13297,,,,,,,,
1450.68016,13343.6,,,,,,,,
1454.130983,13936.4,,,,,,,,
1457.576971,13762,,,,,,,,
1461.018135,13977.6,,,,,,,,
1464.454486,14069.2,,,,,,,,
1467.886036,13538.6,,,,,,,,
1471.312794,13592.6,,,,,,,,
1474.734774,13265.4,,,,,,,,
1478.151985,13966.4,,,,,,,,
1481.564439,13726,,,,,,,,
1484.972146,13656.4,,,,,,,,
1488.375119,13245.8,,,,,,,,
1491.773368,13629.8,,,,,,,,
1495.166904,14317.2,,,,,,,,
1498.555739,13513.2,,,,,,,,
1501.939883,13586,,,,,,,,
1505.319349,13283.6,,,,,,,,
1508.694146,13551.6,,,,,,,,
1512.064286,13624.6,,,,,,,,
1515.429781,13483.2,,,,,,,,
1518.790642,13402.6,,,,,,,,
1522.146879,13671.6,,,,,,,,
1525.498505,13011.2,,,,,,,,
1528.845529,13146.8,,,,,,,,
1532.187965,13728.2,,,,,,,,
1535.525822,13416.4,,,,,,,,
1538.859112,13471.4,,,,,,,,
1542.187846,14045.2,,,,,,,,
1545.512036,13081.2,,,,,,,,
1548.831693,14331.6,,,,,,,,
1552.146829,13788.8,,,,,,,,
1555.457453,13122,,,,,,,,
1558.763579,12797.6,,,,,,,,
1562.065216,13234.6,,,,,,,,
1565.362377,13407,,,,,,,,
1568.655073,13710.4,,,,,,,,
1571.943315,13552.6,,,,,,,,
1575.227114,13554.6,,,,,,,,
1578.506482,13486.8,,,,,,,,
1581.781431,14052.2,,,,,,,,
1585.051971,13586.6,,,,,,,,
1588.318114,13725,,,,,,,,
1591.579872,13752,,,,,,,,
1594.837255,13523,,,,,,,,
1598.090275,13362.4,,,,,,,,
1601.338945,13210.6,,,,,,,,
1604.583274,13735.6,,,,,,,,
1607.823275,13261.8,,,,,,,,
1611.058959,12861.6,,,,,,,,
1614.290338,13625.4,,,,,,,,
1617.517422,12713.8,,,,,,,,
1620.740224,13219.2,,,,,,,,
1623.958755,12737.6,,,,,,,,
1627.173027,12862.8,,,,,,,,
1630.38305,12567,,,,,,,,
1633.588838,13062.2,,,,,,,,
1636.7904,12748.4,,,,,,,,
1639.987749,13074,,,,,,,,
1643.180896,13233.2,,,,,,,,
1646.369853,12550.8,,,,,,,,
1649.554632,13461.2,,,,,,,,
1652.735244,12707.4,,,,,,,,
1655.9117,12379,,,,,,,,
1659.084013,12871.2,,,,,,,,
1662.252193,13434.6,,,,,,,,
1665.416254,12569.2,,,,,,,,
1668.576205,12831.6,,,,,,,,
1671.732059,13167,,,,,,,,
1674.883828,13029.6,,,,,,,,
1678.031523,12629,,,,,,,,
1681.175157,12723.6,,,,,,,,
1684.314739,12852.4,,,,,,,,
1687.450284,12695.6,,,,,,,,
1690.581801,12635.4,,,,,,,,
1693.709304,12425.6,,,,,,,,
1696.832803,12504.8,,,,,,,,
1699.952311,12672.8,,,,,,,,
1703.067839,12681.6,,,,,,,,
1706.179399,12665.2,,,,,,,,
1709.287003,13147.8,,,,,,,,
1712.390663,12617.8,,,,,,,,
1715.49039,12790,,,,,,,,
1718.586197,13082.4,,,,,,,,
1721.678095,12980.4,,,,,,,,
1724.766096,12914.6,,,,,,,,
1727.850213,12278.2,,,,,,,,
1730.930456,12728.2,,,,,,,,
1734.006838,12411.4,,,,,,,,
1737.079372,12863.6,,,,,,,,
1740.148067,12400.6,,,,,,,,
1743.212938,13521.2,,,,,,,,
1746.273996,12629.2,,,,,,,,
1749.331252,12587.4,,,,,,,,
1752.384718,12646.2,,,,,,,,
1755.434408,12778.4,,,,,,,,
1758.480332,12782,,,,,,,,
1761.522503,12699.8,,,,,,,,
1764.560933,12424.4,,,,,,,,
1767.595634,12264.4,,,,,,,,
1770.626618,12839,,,,,,,,
1773.653896,12865.8,,,,,,,,
1776.677482,12559.6,,,,,,,,
1779.697388,12452.6,,,,,,,,
1782.713625,13027,,,,,,,,
1785.726205,12945.8,,,,,,,,
1788.735141,12956.6,,,,,,,,
1791.740445,12551,,,,,,,,
1794.742129,12426.4,,,,,,,,
1797.740206,12940.2,,,,,,,,
1800.734687,13009.4,,,,,,,,
1803.725585,12754,,,,,,,,
1806.712912,12724,,,,,,,,
1809.69668,12338.8,,,,,,,,
1812.676902,12551,,,,,,,,
1815.65359,12178.2,,,,,,,,
1818.626756,12340,,,,,,,,
1821.596413,12442.6,,,,,,,,
1824.562573,12099.4,,,,,,,,
1827.525247,12463.6,,,,,,,,
1830.48445,12332,,,,,,,,
1833.440192,12393,,,,,,,,
1836.392487,12242.8,,,,,,,,
1839.341347,12618.8,,,,,,,,
1842.286784,12587,,,,,,,,
1845.22881,12075,,,,,,,,
1848.167439,12558.2,,,,,,,,
1851.102682,12389.4,,,,,,,,
1854.034553,12393,,,,,,,,
1856.963063,12146.8,,,,,,,,
1859.888226,13124,,,,,,,,
1862.810053,12580.8,,,,,,,,
1865.728557,12387.6,,,,,,,,
1868.643751,12141.6,,,,,,,,
1871.555648,12198,,,,,,,,
1874.46426,11963.4,,,,,,,,
1877.369599,12573.2,,,,,,,,
1880.271679,12343.8,,,,,,,,
1883.170512,12236.8,,,,,,,,
1886.06611,12680.4,,,,,,,,
1888.958487,12405.8,,,,,,,,
1891.847655,12356.6,,,,,,,,
1894.733626,12531.4,,,,,,,,
1897.616414,12541.6,,,,,,,,
1900.496032,12099.6,,,,,,,,
1903.372491,12439.4,,,,,,,,
1906.245805,12699.6,,,,,,,,
1909.115987,12757.8,,,,,,,,
1911.983049,12699,,,,,,,,
1914.847004,12581.8,,,,,,,,
1917.707866,12735.4,,,,,,,,
1920.565646,12673.4,,,,,,,,
1923.420359,12255,,,,,,,,
1926.272016,12395.6,,,,,,,,
1929.120631,12175.4,,,,,,,,
1931.966216,12420.2,,,,,,,,
1934.808786,12345.8,,,,,,,,
1937.648351,12591,,,,,,,,
1940.484927,12495.8,,,,,,,,
1943.318525,12598.4,,,,,,,,
1946.149158,12837,,,,,,,,
1948.97684,13883.6,,,,,,,,
1951.801584,12812.6,,,,,,,,
1954.623403,12555,,,,,,,,
1957.44231,12715.6,,,,,,,,
1960.258318,12387.2,,,,,,,,
1963.071439,12326,,,,,,,,
1965.881688,12500.2,,,,,,,,
1968.689078,12542,,,,,,,,
1971.493621,12395.4,,,,,,,,
