Ramanshift[cm-1],Intensity
-93.47115107,14424.4
-87.69374369,13003.4
-81.9253076,12856.6
-76.16582701,13015.8
-70.41528615,12970.4
-64.67366933,12699
-58.94096086,12761.8
-53.21714512,12920.4
-47.50220652,13067.8
-41.79612954,13113.2
-36.09889866,13603.2
-30.41049843,13614
-24.73091343,13207.2
-19.0601283,13261
-13.39812769,13072
-7.744896327,12788.6
-2.100418946,12656
3.535319659,13304.8
9.162334658,12687.4
14.78064118,12880
20.39025432,12785.8
25.99118913,12659.2
31.58346061,13261.8
37.16708375,12986.4
42.74207347,12738.6
48.30844468,12738
53.86621222,12593.2
59.41539093,12219.4
64.95599558,12191.4
70.48804091,12612.8
76.01154164,12739.4
81.52651243,12098
87.03296792,12704.4
92.5309227,12972.8
98.02039134,12139.6
103.5013884,12647.4
108.9739282,12389.2
114.4380255,12438.4
119.8936944,12581.2
125.3409495,13522.4
130.779805,12418.2
136.2102753,12125.8
141.6323747,12106.8
147.0461174,12792.2
152.4515176,12322.6
157.8485895,12286.6
163.2373472,12115.8
168.6178049,12528.6
173.9899766,12782.4
179.3538764,12406.2
184.7095182,12454.8
190.0569161,12561.6
195.396084,12832
200.7270358,12162.8
206.0497854,12185.4
211.3643466,11875.6
216.6707333,12338
221.9689593,11968.6
227.2590382,12055.4
232.5409839,12130.6
237.8148101,12078.4
243.0805303,12195.2
248.3381582,12113.4
253.5877075,12007
258.8291917,12157
264.0626244,12282.6
269.288019,12320.2
274.5053891,12600.4
279.7147481,12186.6
284.9161094,12072.8
290.1094865,12479.6
295.2948927,13625.2
300.4723414,16497.2
305.6418459,19704.2
310.8034194,22748.4
315.9570752,25050.8
321.1028267,25799.8
326.2406869,25876.4
331.370669,26207
336.4927863,26614.4
341.6070517,27016.4
346.7134786,27277.6
351.8120798,27707.8
356.9028684,27349.4
361.9858576,27332.4
367.0610602,27803.4
372.1284892,27339
377.1881577,28038.2
382.2400784,28568.6
387.2842644,29704.6
392.3207284,30358.8
397.3494833,29837.8
402.370542,29451.2
407.3839172,28380.6
412.3896217,27342.4
417.3876683,26613.6
422.3780697,26412.8
427.3608386,26300.8
432.3359876,26692.2
437.3035295,26563.4
442.2634769,26579.8
447.2158423,25678.6
452.1606383,25748
457.0978776,26018.6
462.0275727,25387
466.9497361,25839.4
471.8643802,25187
476.7715176,25826.6
481.6711608,25933.4
486.5633221,26073.8
491.448014,25926.6
496.3252488,25750
501.195039,25935.6
506.0573969,26245.4
510.9123349,25740.4
515.7598651,25109.2
520.6,25595.8
525.4327518,25167.2
530.2581327,25223.4
535.076155,24679.6
539.8868309,25186.4
544.6901726,25184.4
549.4861922,24657.8
554.2749019,25695
559.0563139,24742.8
563.8304402,24431.4
568.597293,25402
573.3568844,25086.8
578.1092263,24524.4
582.8543308,25006.2
587.5922101,24931.6
592.322876,24555.2
597.0463405,24639.8
601.7626157,25030.2
606.4717135,24475.8
611.1736458,24613.2
615.8684246,24680.2
620.5560617,24890.6
625.2365691,24618
629.9099585,25038.2
634.5762419,25138
639.2354312,24563.8
643.887538,24651.6
648.5325743,24455.4
653.1705518,24252.4
657.8014823,24359.6
662.4253775,23763.6
667.0422493,24080
671.6521092,24067.6
676.2549691,24282.6
680.8508407,24241.2
685.4397355,24112.6
690.0216654,24298
694.5966419,23879.4
699.1646767,24623
703.7257814,24164.6
708.2799676,24324.6
712.827247,24435.6
717.367631,24002.8
721.9011314,23956.6
726.4277595,23237
730.9475271,23850
735.4604456,23798
739.9665264,24229
744.4657813,23718.4
748.9582215,23470.4
753.4438587,23059.6
757.9227042,22892.6
762.3947696,23347.2
766.8600662,22734
771.3186056,24160
775.770399,23199
780.215458,23314.8
784.6537939,22630.6
789.0854181,22371
793.510342,22503
797.9285769,23186.6
802.3401342,22482
806.7450253,22664.4
811.1432614,22410.4
815.5348538,22233.2
819.9198139,21846.8
824.2981531,22082.2
828.6698824,22191.4
833.0350133,21910.4
837.393557,21582.6
841.7455248,22051.6
846.0909278,21718.4
850.4297774,21659.8
854.7620848,21666.4
859.0878611,21939.6
863.4071176,21397.2
867.7198655,21731
872.026116,21935.4
876.3258802,22491
880.6191693,21907.4
884.9059946,21897.4
889.186367,22425.2
893.4602979,21127
897.7277982,21077.2
901.9888793,21492
906.2435521,22132.2
910.4918277,21320.4
914.7337174,21395.4
918.9692321,21435.6
923.1983831,22138
927.4211813,21654.2
931.6376378,22394
935.8477637,21896.8
940.0515701,22034.2
944.249068,22131.4
948.4402684,21255.6
952.6251825,22123
956.8038212,21714.2
960.9761955,22506
965.1423166,21918
969.3021953,21946.6
973.4558427,21833.6
977.6032699,21732.8
981.7444877,21636.2
985.8795072,21694.8
990.0083394,21759.8
994.1309953,21365.6
998.2474857,21890.8
1002.357822,21005.4
1006.462014,21681.8
1010.560075,21272
1014.652013,21566
1018.737841,21693.8
1022.81757,21367.8
1026.891209,21278.4
1030.958771,21062.6
1035.020266,21323.4
1039.075705,21078.6
1043.1251,20762.8
1047.16846,21141
1051.205797,21056.2
1055.237121,20775
1059.262444,20816.8
1063.281777,20946.8
1067.295131,21619.2
1071.302515,23600.6
1075.303942,23610.2
1079.299422,24501.4
1083.288966,23520.2
1087.272585,22408.2
1091.250289,21618.6
1095.222091,21369.6
1099.187999,20722.8
1103.148026,20767.4
1107.102183,20727.4
1111.050479,20936
1114.992927,20773.8
1118.929536,20757.4
1122.860318,21180.8
1126.785283,20672.6
1130.704443,20843
1134.617808,21937.2
1138.52539,21869.8
1142.427198,21803.8
1146.323244,21502.4
1150.213538,21010
1154.098093,21315.2
1157.976917,20632.6
1161.850023,20539.6
1165.717421,21156.6
1169.579121,20745.8
1173.435135,21146.6
1177.285474,20430
1181.130148,20640.2
1184.969169,20967.6
1188.802547,20589.4
1192.630292,20265.2
1196.452416,19919.4
1200.26893,19834
1204.079844,19474.2
1207.88517,19121.4
1211.684917,19758
1215.479098,19353
1219.267722,21052.4
1223.050801,19408.8
1226.828346,19530.4
1230.600366,19860.2
1234.366874,19757.8
1238.12788,19588.6
1241.883395,19599.2
1245.633429,19919
1249.377994,19913.4
1253.1171,19176.4
1256.850759,19541.2
1260.578981,19512.8
1264.301776,19554.6
1268.019157,19472.4
1271.731133,19162.2
1275.437715,19119.2
1279.138915,19633.4
1282.834743,20031.4
1286.52521,19285.4
1290.210328,19374
1293.890106,19341.2
1297.564555,19897.2
1301.233688,19235.2
1304.897514,19579.4
1308.556044,19745.6
1312.209289,19781
1315.857261,19096.2
1319.499969,19340.4
1323.137425,20110.4
1326.769641,19676
1330.396626,20314.4
1334.018391,19617.2
1337.634948,19908.8
1341.246307,19492.4
1344.85248,19508.8
1348.453477,19198.4
1352.049309,19181.4
1355.639987,19207.8
1359.225522,19803.2
1362.805925,19233.6
1366.381207,19322.2
1369.951379,19262
1373.516452,19467.8
1377.076436,19561.6
1380.631343,19451.4
1384.181184,19376
1387.725969,19536.6
1391.26571,19337.6
1394.800417,18968.6
1398.330102,18989
1401.854776,19244.4
1405.374448,18908.4
1408.889132,18409.8
1412.398837,18025
1415.903574,18500.6
1419.403355,19057.4
1422.89819,18713.8
1426.388091,18848.4
1429.873069,19323.4
1433.353134,18800.6
1436.828298,18678.4
1440.298571,18763.8
1443.763965,18440.4
1447.224491,18039
1450.68016,17881.8
1454.130983,18279.6
1457.576971,18244.8
1461.018135,18361.2
1464.454486,18524
1467.886036,17970.4
1471.312794,17918.6
1474.734774,17608.4
1478.151985,18375
1481.564439,18051.6
1484.972146,17868.8
1488.375119,17413.6
1491.773368,17807.4
1495.166904,18367.6
1498.555739,17441
1501.939883,17585.8
1505.319349,17110
1508.694146,17491.2
1512.064286,17624
1515.429781,17532.2
1518.790642,17428.4
1522.146879,17733.8
1525.498505,16997.6
1528.845529,16975.8
1532.187965,17767.6
1535.525822,17428
1538.859112,17352.6
1542.187846,17949.6
1545.512036,17072.8
1548.831693,18339.2
1552.146829,17938.8
1555.457453,17235.6
1558.763579,16799.2
1562.065216,17332.6
1565.362377,17712
1568.655073,18174.8
1571.943315,17947.8
1575.227114,17864.4
1578.506482,17994
1581.781431,18715.8
1585.051971,18150.4
1588.318114,18316.6
1591.579872,17984.8
1594.837255,17492.6
1598.090275,17185.6
1601.338945,16818.2
1604.583274,17061.2
1607.823275,16574.8
1611.058959,16085.4
1614.290338,16871.8
1617.517422,15889.8
1620.740224,16230.2
1623.958755,15899.4
1627.173027,15889
1630.38305,15523.6
1633.588838,15835.2
1636.7904,15584.6
1639.987749,15752
1643.180896,15884.2
1646.369853,15223.6
1649.554632,15963.8
1652.735244,15241.8
1655.9117,14949.4
1659.084013,15292.2
1662.252193,15831.6
1665.416254,14966.8
1668.576205,15218.8
1671.732059,15467.8
1674.883828,15494.6
1678.031523,14935.4
1681.175157,14954.2
1684.314739,14973
1687.450284,14842
1690.581801,14776.4
1693.709304,14578.4
1696.832803,14542.8
1699.952311,14852
1703.067839,14752.2
1706.179399,14800.8
1709.287003,15146.4
1712.390663,14751.2
1715.49039,14727.8
1718.586197,14931.8
1721.678095,14871
1724.766096,14852.8
1727.850213,14250.8
1730.930456,14600.4
1734.006838,14387.2
1737.079372,14665.6
1740.148067,14318.8
1743.212938,15325.8
1746.273996,14495.4
1749.331252,14407.6
1752.384718,14457
1755.434408,14484.4
1758.480332,14394
1761.522503,14341.2
1764.560933,14192.2
1767.595634,13835.6
1770.626618,14509
1773.653896,14574
1776.677482,14113.6
1779.697388,14095
1782.713625,14653.2
1785.726205,14638.8
1788.735141,14431
1791.740445,14134.2
1794.742129,13975.8
1797.740206,14464.8
1800.734687,14576.6
1803.725585,14280
1806.712912,14202
1809.69668,14010.8
1812.676902,13856
1815.65359,13606.4
1818.626756,13804.2
1821.596413,13981.2
1824.562573,13566.6
1827.525247,13909.6
1830.48445,13691.4
1833.440192,13819.8
1836.392487,13873.6
1839.341347,13970.8
1842.286784,14054.8
1845.22881,13480.8
1848.167439,14123.4
1851.102682,13898
1854.034553,13928.2
1856.963063,13583.6
1859.888226,14511.8
1862.810053,14017.8
1865.728557,13850.4
1868.643751,13481.8
1871.555648,13509.6
1874.46426,13318.6
1877.369599,13894.6
1880.271679,13609.2
1883.170512,13504.4
1886.06611,14018
1888.958487,13747.4
1891.847655,13691.6
1894.733626,13821.6
1897.616414,13990.8
1900.496032,13564
1903.372491,13677
1906.245805,13872.8
1909.115987,14060.8
1911.983049,14039.2
1914.847004,13711
1917.707866,13980.2
1920.565646,13855.8
1923.420359,13455.6
1926.272016,13727.2
1929.120631,13570.4
1931.966216,13616.6
1934.808786,13462.8
1937.648351,13874.4
1940.484927,13668.4
1943.318525,13762.4
1946.149158,14037.6
1948.97684,15099
1951.801584,14007.4
1954.623403,13788
1957.44231,13783
1960.258318,13364.2
1963.071439,13304.6
1965.881688,13628
1968.689078,13729
1971.493621,13472.2
