Ramanshift[cm-1],Intensity
-93.47115107,14434
-87.69374369,13046.2
-81.9253076,12758.8
-76.16582701,12871
-70.41528615,13051
-64.67366933,12724.8
-58.94096086,12721.8
-53.21714512,12890.2
-47.50220652,13180.4
-41.79612954,13146.6
-36.09889866,13550.2
-30.41049843,13624.8
-24.73091343,13204.8
-19.0601283,13247
-13.39812769,13150.8
-7.744896327,12856.4
-2.100418946,12767
3.535319659,13282.4
9.162334658,12696.6
14.78064118,13019
20.39025432,12723.6
25.99118913,12822.4
31.58346061,13250.8
37.16708375,12989.2
42.74207347,12616.6
48.30844468,12681.2
53.86621222,12590
59.41539093,12206
64.95599558,12151
70.48804091,12709
76.01154164,12766.2
81.52651243,12043.4
87.03296792,12622.8
92.5309227,12988.6
98.02039134,12237.8
103.5013884,12514.8
108.9739282,12324.8
114.4380255,12428
119.8936944,12574.6
125.3409495,13518.8
130.779805,12384.6
136.2102753,12081.8
141.6323747,12097.2
147.0461174,12766.2
152.4515176,12328.2
157.8485895,12310.4
163.2373472,12138.2
168.6178049,12439.6
173.9899766,12821
179.3538764,12259.2
184.7095182,12468.4
190.0569161,12560.2
195.396084,12811.2
200.7270358,12111.4
206.0497854,12269.2
211.3643466,11979
216.6707333,12319.6
221.9689593,11935
227.2590382,12094.4
232.5409839,12088.8
237.8148101,12041.4
243.0805303,12146.8
248.3381582,12149.4
253.5877075,11971.2
258.8291917,12070.2
264.0626244,12136
269.288019,12430.8
274.5053891,12519
279.7147481,12223.6
284.9161094,12041.4
290.1094865,12424.6
295.2948927,13623.8
300.4723414,16411.8
305.6418459,19049.8
310.8034194,21724
315.9570752,23532.4
321.1028267,23979.8
326.2406869,24284.8
331.370669,24507.2
336.4927863,24865.8
341.6070517,24969.4
346.7134786,25234.4
351.8120798,25598.4
356.9028684,25159
361.9858576,25308.8
367.0610602,25570.4
372.1284892,25047.6
377.1881577,25460.4
382.2400784,25169.8
387.2842644,25525.4
392.3207284,25674.2
397.3494833,25374
402.370542,25626.4
407.3839172,25301.4
412.3896217,24903.6
417.3876683,24637.8
422.3780697,24718.4
427.3608386,24484.6
432.3359876,25013.8
437.3035295,24942
442.2634769,25094
447.2158423,24091.2
452.1606383,24174.6
457.0978776,24430.8
462.0275727,23874.8
466.9497361,24445.6
471.8643802,23679.2
476.7715176,24367.8
481.6711608,24198.8
486.5633221,24677.8
491.448014,24463.4
496.3252488,24131.2
501.195039,24201
506.0573969,24532.4
510.9123349,24130.4
515.7598651,23337.4
520.6,23883.6
525.4327518,23802
530.2581327,23824
535.076155,23419.8
539.8868309,23641.6
544.6901726,23738
549.4861922,23406.8
554.2749019,24196.6
559.0563139,23412.2
563.8304402,23148.6
568.597293,24172.8
573.3568844,23811
578.1092263,23349.8
582.8543308,23809
587.5922101,23669.8
592.322876,23396.2
597.0463405,23561
601.7626157,23700.4
606.4717135,23161.2
611.1736458,23246.4
615.8684246,23307.6
620.5560617,23543.4
625.2365691,23217.4
629.9099585,23736.6
634.5762419,23927.4
639.2354312,23074.6
643.887538,23219.6
648.5325743,23034.6
653.1705518,22992.8
657.8014823,23116.4
662.4253775,22541.8
667.0422493,22755.6
671.6521092,22850.6
676.2549691,22999.2
680.8508407,22875
685.4397355,22734.2
690.0216654,22861.2
694.5966419,22756.4
699.1646767,23188.4
703.7257814,22776
708.2799676,22972.6
712.827247,23074.4
717.367631,22880.4
721.9011314,22886.8
726.4277595,22141.6
730.9475271,22929.6
735.4604456,22559.4
739.9665264,23201.2
744.4657813,22587.4
748.9582215,22489.6
753.4438587,21980.2
757.9227042,21606.6
762.3947696,22235.2
766.8600662,21620.8
771.3186056,23235
775.770399,22065
780.215458,22325.4
784.6537939,21557.4
789.0854181,21455.8
793.510342,21433.8
797.9285769,21893.2
802.3401342,21272.8
806.7450253,21502.2
811.1432614,21459.2
815.5348538,21142.8
819.9198139,20846.4
824.2981531,21164.4
828.6698824,21200.6
833.0350133,20856.4
837.393557,20677.6
841.7455248,20892.2
846.0909278,20732.2
850.4297774,20760.4
854.7620848,20877.2
859.0878611,21085.6
863.4071176,20481.2
867.7198655,21051.8
872.026116,21380
876.3258802,21866.8
880.6191693,21179.8
884.9059946,21256.8
889.186367,21492.4
893.4602979,20369.6
897.7277982,20221.6
901.9888793,20697
906.2435521,21191.4
910.4918277,20423.2
914.7337174,20472
918.9692321,20398.2
923.1983831,21039.4
927.4211813,20576.2
931.6376378,21301.2
935.8477637,20675.2
940.0515701,20875.2
944.249068,20908.2
948.4402684,20055.2
952.6251825,20932.4
956.8038212,20575.6
960.9761955,21235.8
965.1423166,20692
969.3021953,20769.6
973.4558427,20767.8
977.6032699,20419
981.7444877,20774.6
985.8795072,20674.8
990.0083394,20776.8
994.1309953,20412.2
998.2474857,20861.8
1002.357822,19928.8
1006.462014,20547.6
1010.560075,20296.6
1014.652013,20728.2
1018.737841,20803.2
1022.81757,20343
1026.891209,20476.6
1030.958771,20250.2
1035.020266,20668.8
1039.075705,20276.2
1043.1251,19899.4
1047.16846,20315.4
1051.205797,20224.6
1055.237121,19931
1059.262444,19851.8
1063.281777,19730.6
1067.295131,20032.2
1071.302515,21285.8
1075.303942,20777.2
1079.299422,21825
1083.288966,21277.2
1087.272585,20935.8
1091.250289,20487.6
1095.222091,20479.6
1099.187999,19986.4
1103.148026,20246.4
1107.102183,20053.4
1111.050479,20311
1114.992927,20160
1118.929536,20112.2
1122.860318,20465.8
1126.785283,20019
1130.704443,20158
1134.617808,21096.4
1138.52539,21117.6
1142.427198,21021.4
1146.323244,21006.2
1150.213538,20492
1154.098093,20734.4
1157.976917,20075.6
1161.850023,19791.2
1165.717421,20316
1169.579121,19966.4
1173.435135,20353.4
1177.285474,19485.8
1181.130148,19577.4
1184.969169,20132.6
1188.802547,20073.4
1192.630292,19749.4
1196.452416,19343
1200.26893,19556.2
1204.079844,19320.8
1207.88517,18872.4
1211.684917,19548.6
1215.479098,19044.6
1219.267722,20698.6
1223.050801,19049
1226.828346,19077
1230.600366,19518
1234.366874,19354.4
1238.12788,19104.8
1241.883395,19214.4
1245.633429,19437.8
1249.377994,19507.6
1253.1171,18704
1256.850759,19158.2
1260.578981,19010.4
1264.301776,19082.8
1268.019157,19075.6
1271.731133,18822.8
1275.437715,18513.6
1279.138915,19167
1282.834743,19426.4
1286.52521,18923.4
1290.210328,18698.2
1293.890106,18921.4
1297.564555,19464.4
1301.233688,18705
1304.897514,19132
1308.556044,19237.4
1312.209289,19151.6
1315.857261,18573.2
1319.499969,18638.8
1323.137425,19583.2
1326.769641,18887.6
1330.396626,19551.6
1334.018391,19115.8
1337.634948,19158.6
1341.246307,18824.8
1344.85248,18653
1348.453477,18627.2
1352.049309,18483.8
1355.639987,18531.6
1359.225522,19338
1362.805925,18714.8
1366.381207,18809.4
1369.951379,18753.4
1373.516452,18899
1377.076436,19206.6
1380.631343,19028
1384.181184,18823.8
1387.725969,19043
1391.26571,18749.4
1394.800417,18630
1398.330102,18667.8
1401.854776,18810.8
1405.374448,18468.4
1408.889132,18076.4
1412.398837,17677
1415.903574,17960.6
1419.403355,18555.2
1422.89819,18231.2
1426.388091,18347.2
1429.873069,18966.2
1433.353134,18327.6
1436.828298,18369.8
1440.298571,18481
1443.763965,18027
1447.224491,17875
1450.68016,17737.4
1454.130983,18218.4
1457.576971,17941.2
1461.018135,18153
1464.454486,18196.4
1467.886036,17686
1471.312794,17874.6
1474.734774,17452.8
1478.151985,18121.6
1481.564439,17903.2
1484.972146,17796.4
1488.375119,17301.4
1491.773368,17660.6
1495.166904,18264.2
1498.555739,17504.2
1501.939883,17678.6
1505.319349,17118.2
1508.694146,17500.2
1512.064286,17472.6
1515.429781,17408.2
1518.790642,17165.6
1522.146879,17599.6
1525.498505,16859.2
1528.845529,16931
1532.187965,17584.8
1535.525822,17328.6
1538.859112,17131.4
1542.187846,17820.2
1545.512036,16826.8
1548.831693,18234.8
1552.146829,17617.4
1555.457453,17030.6
1558.763579,16296.8
1562.065216,16887.6
1565.362377,17084.4
1568.655073,17475.6
1571.943315,17257.6
1575.227114,17147.2
1578.506482,17016.8
1581.781431,17561.4
1585.051971,17016.2
1588.318114,16979
1591.579872,16867
1594.837255,16771.6
1598.090275,16428.6
1601.338945,16572.4
1604.583274,16881.8
1607.823275,16503.8
1611.058959,15952.4
1614.290338,16771.4
1617.517422,15925.2
1620.740224,16183.4
1623.958755,15782.4
1627.173027,15812
1630.38305,15400.4
1633.588838,15820.6
1636.7904,15514
1639.987749,15767.6
1643.180896,15831.6
1646.369853,15266.8
1649.554632,15984.6
1652.735244,15263.2
1655.9117,14921.6
1659.084013,15233.8
1662.252193,15822.4
1665.416254,14894.8
1668.576205,15269.6
1671.732059,15476
1674.883828,15434.6
1678.031523,14831.4
1681.175157,14993.4
1684.314739,14921
1687.450284,14883.8
1690.581801,14783.8
1693.709304,14662.4
1696.832803,14581.6
1699.952311,14866.2
1703.067839,14783
1706.179399,14828
1709.287003,15161.6
1712.390663,14814.8
1715.49039,14729.2
1718.586197,15149.6
1721.678095,14943.6
1724.766096,14836.8
1727.850213,14366.6
1730.930456,14688.8
1734.006838,14539.8
1737.079372,14723.2
1740.148067,14357.8
1743.212938,15342.8
1746.273996,14440.6
1749.331252,14454.6
1752.384718,14465.8
1755.434408,14552.4
1758.480332,14512.8
1761.522503,14475.2
1764.560933,14203.2
1767.595634,13883.8
1770.626618,14520.2
1773.653896,14585.6
1776.677482,14091
1779.697388,14147
1782.713625,14703.2
1785.726205,14701.6
1788.735141,14680.4
1791.740445,14151.6
1794.742129,14113
1797.740206,14566.6
1800.734687,14647.2
1803.725585,14471.4
1806.712912,14347
1809.69668,13950.2
1812.676902,14032.8
1815.65359,13757.2
1818.626756,13956.6
1821.596413,14104.8
1824.562573,13714.4
1827.525247,14078.8
1830.48445,13861.4
1833.440192,13971.4
1836.392487,13841.6
1839.341347,14140
1842.286784,14128.4
1845.22881,13573.4
1848.167439,14174.4
1851.102682,13920.8
1854.034553,13991.8
1856.963063,13753.2
1859.888226,14551.4
1862.810053,14088.8
1865.728557,13968.8
1868.643751,13643.8
1871.555648,13621.8
1874.46426,13308.6
1877.369599,13991.4
1880.271679,13827
1883.170512,13629.8
1886.06611,14174.6
1888.958487,13852.6
1891.847655,13732.4
1894.733626,13954.6
1897.616414,13993.2
1900.496032,13546.8
1903.372491,13778.8
1906.245805,14004
1909.115987,14121
1911.983049,14027.2
1914.847004,13939
1917.707866,14082.4
1920.565646,13968.8
1923.420359,13425.2
1926.272016,13788
1929.120631,13441.4
1931.966216,13681.6
1934.808786,13594.8
1937.648351,13838.6
1940.484927,13803.8
1943.318525,13934.6
1946.149158,14077.8
1948.97684,15170.6
1951.801584,14119.6
1954.623403,13822.2
1957.44231,14021.8
1960.258318,13393.6
1963.071439,13533.8
1965.881688,13687.8
1968.689078,13784.4
1971.493621,13559.4
