Ramanshift[cm-1],Intensity
-93.52472366,9995.2
-87.74731628,9059.8
-81.97888019,8956.6
-76.2193996,8980.2
-70.46885874,9036.4
-64.72724191,8916.2
-58.99453344,8736.4
-53.2707177,9065.8
-47.55577911,9167.4
-41.84970212,9026.6
-36.15247124,9442.6
-30.46407101,9497
-24.78448602,9213.2
-19.11370089,9297
-13.45170028,9084.2
-7.798468914,8936.2
-2.153991534,8780.4
3.481747071,9265.4
9.10876207,8835
14.72706859,9054.6
20.33668173,8828.8
25.93761654,8812.4
31.52988803,9255.8
37.11351116,9037.4
42.68850089,8872.4
48.25487209,8847.4
53.81263964,8818.6
59.36181834,8567.4
64.90242299,8551.6
70.43446832,8785.2
75.95796905,8897
81.47293984,8437.8
86.97939533,8797.4
92.47735012,8959.2
97.96681875,8518
103.4478158,8715.8
108.9203557,8606.2
114.3844529,8629.2
119.8401218,8736
125.2873769,9467.2
130.7262324,8666.2
136.1567027,8404.6
141.5788021,8496.2
146.9925448,8985.4
152.397945,8659.2
157.7950169,8680.2
163.1837747,8518.2
168.5642323,8799.6
173.936404,8969.4
179.3003038,8570
184.6559456,8597.4
190.0033435,8912
195.3425114,8988.8
200.6734632,8548.4
205.9962128,8538.4
211.310774,8387.2
216.6171607,8672.4
221.9153867,8391.4
227.2054656,8539.4
232.4874113,8577
237.7612375,8469.2
243.0269577,8589.2
248.2845856,8570
253.5341349,8421.8
258.7756191,8445.8
264.0090518,8565.4
269.2344464,8660.6
274.4518165,8761
279.6611755,8575
284.8625368,8461.8
290.0559139,8533.6
295.2413201,9087.8
300.4187688,10252
305.5882733,11021.2
310.7498468,11944.8
315.9035027,12739.4
321.0492541,12985.4
326.1871143,13047.4
331.3170964,13088.4
336.4392137,13231.2
341.5534792,13343
346.659906,13210.8
351.7585072,13420
356.8492959,13113
361.932285,13287.4
367.0074876,13421.2
372.0749167,13256.8
377.1345851,13422.8
382.1865058,13262.6
387.2306918,13094.4
392.2671558,13228.4
397.2959107,12969
402.3169694,13327.6
407.3303446,13015.2
412.3360492,13009.4
417.3340958,12757.2
422.3244971,12943.6
427.307266,13087.8
432.2824151,13236.4
437.2499569,13443.6
442.2099043,13495.8
447.1622697,12919.8
452.1070657,12989.2
457.044305,13072.4
461.9740001,12658
466.8961635,12940.2
471.8108076,12481.8
476.717945,12944
481.6175882,12895.6
486.5097495,13114.4
491.3944414,12821
496.2716763,12830
501.1414665,12833.8
506.0038244,13193.6
510.8587623,12882.2
515.7062925,12487.8
520.5464274,12936.8
525.3791792,12675
530.2045601,12864.2
535.0225824,12331.6
539.8332583,12644.8
544.6366,12728.8
549.4326196,12503.6
554.2213293,13146
559.0027413,12472
563.7768676,12403
568.5437204,13073
573.3033118,12853.6
578.0556537,12470.6
582.8007583,12955
587.5386375,12767.4
592.2693034,12562.8
596.9927679,12496.2
601.7090431,12852.8
606.4181409,12508.6
611.1200732,12451.4
615.814852,12436
620.5024891,12709.2
625.1829965,12397.8
629.8563859,13009
634.5226693,13027
639.1818586,12372.8
643.8339654,12510.8
648.4790017,12333.4
653.1169792,12362.4
657.7479097,12461.2
662.3718049,12005
666.9886767,12210.8
671.5985366,12305.4
676.2013965,12338.4
680.7972681,12501.8
685.386163,12293.2
689.9680928,12430.8
694.5430693,12194.8
699.1111041,12587.2
703.6722088,12308.6
708.226395,12426
712.7736744,12388
717.3140584,12292
721.8475588,12311.2
726.3741869,11753.8
730.8939545,12290.4
735.406873,12224.8
739.9129539,12615.2
744.4122087,12145.2
748.9046489,12131
753.3902861,11807.2
757.8691316,11697.4
762.341197,12200
766.8064936,11757
771.265033,12797.2
775.7168264,12093.6
780.1618854,12300.4
784.6002213,11722
789.0318455,11747
793.4567694,11633.2
797.8750043,12136.2
802.2865616,11610.4
806.6914527,11848
811.0896888,11638
815.4812812,11712
819.8662414,11454.8
824.2445805,11654.8
828.6163098,11745.4
832.9814407,11720.6
837.3399844,11378.8
841.6919522,11768.4
846.0373552,11545
850.3762048,11504.6
854.7085122,11658.6
859.0342885,11823
863.353545,11291.2
867.6662929,11640.8
871.9725434,11828.6
876.2723076,12036.2
880.5655967,11707
884.852422,11705.8
889.1327944,12021.2
893.4067253,11203.8
897.6742257,11194.6
901.9353067,11470.8
906.1899795,11732.8
910.4382551,11316
914.6801448,11313.2
918.9156596,11228
923.1448105,11631
927.3676087,11408
931.5840652,11879.6
935.7941911,11478.2
939.9979975,11599
944.1954954,11614.8
948.3866958,10968.8
952.5716099,11581.6
956.7502486,11256.8
960.9226229,11808.4
965.088744,11286.8
969.2486227,11388.8
973.4022701,11427.2
977.5496973,11318.4
981.6909151,11408
985.8259346,11322.2
989.9547668,11404.6
994.0774227,11150.2
998.1939132,11426.2
1002.304249,10824.8
1006.408442,11320.2
1010.506502,11033
1014.598441,11418.6
1018.684269,11579.4
1022.763997,11220.2
1026.837637,11180.6
1030.905199,11007.8
1034.966694,11342.2
1039.022133,11194.6
1043.071527,10870.2
1047.114887,11101.2
1051.152224,11093.4
1055.183549,10927.4
1059.208872,10860
1063.228205,10729.6
1067.241558,10598.2
1071.248943,11177.6
1075.250369,10798.6
1079.245849,11384.4
1083.235393,11118.8
1087.219012,11024.2
1091.196717,11157.6
1095.168518,11290
1099.134427,10968.4
1103.094454,11075.6
1107.04861,10919.2
1110.996907,11150.2
1114.939354,11028.4
1118.875963,11026.8
1122.806745,11244.8
1126.731711,10757.2
1130.650871,10610.4
1134.564236,11237.8
1138.471817,11060
1142.373625,11009.4
1146.269671,11095
1150.159966,10880.4
1154.04452,11139.4
1157.923344,10599.8
1161.79645,10635
1165.663848,10990.6
1169.525549,10879.8
1173.381563,11000.4
1177.231902,10380
1181.076576,10475.4
1184.915596,10807.4
1188.748974,10748.4
1192.576719,10501.4
1196.398844,10338.6
1200.215357,10560.4
1204.026272,10244.6
1207.831597,10041.8
1211.631345,10503.2
1215.425525,10131.2
1219.21415,11345.8
1222.997229,10209.2
1226.774773,10389.2
1230.546794,10455.8
1234.313302,10382
1238.074307,10228
1241.829822,10224.6
1245.579857,10489.2
1249.324421,10519.2
1253.063528,9931.2
1256.797186,10260.2
1260.525408,10214.2
1264.248204,10261.8
1267.965584,10253
1271.67756,10119
1275.384142,9968
1279.085342,10309.4
1282.781171,10494
1286.471638,10216.4
1290.156755,10118.8
1293.836533,10181.4
1297.510983,10549.2
1301.180115,10034.6
1304.843941,10271.6
1308.502471,10341.8
1312.155716,10313.2
1315.803688,9936
1319.446396,10032.4
1323.083853,10481.8
1326.716068,10150.2
1330.343053,10643.4
1333.964818,10164.6
1337.581375,10288.8
1341.192735,10067.8
1344.798907,9982.8
1348.399904,9919.8
1351.995736,9834.2
1355.586415,9909.6
1359.17195,10297.4
1362.752353,10024.6
1366.327635,10066.6
1369.897807,10085.2
1373.462879,10141.6
1377.022864,10174.8
1380.577771,10077
1384.127611,9907.4
1387.672397,10020.2
1391.212137,9803
1394.746845,9750.4
1398.27653,9785.4
1401.801203,10032.4
1405.320876,10001.2
1408.835559,9732.6
1412.345264,9394.8
1415.850001,9672
1419.349782,10135.4
1422.844618,9720.6
1426.334519,9724
1429.819496,10031.4
1433.299561,9656.6
1436.774725,9699.8
1440.244998,9854.6
1443.710393,9722
1447.170919,9597.6
1450.626588,9618.8
1454.07741,9985.2
1457.523398,9839.4
1460.964562,9908
1464.400914,10006.8
1467.832463,9702.4
1471.259222,9750.6
1474.681201,9456.4
1478.098412,10001.8
1481.510866,9783.2
1484.918574,9828.4
1488.321546,9477.8
1491.719795,9726
1495.113332,10158.2
1498.502166,9653.2
1501.886311,9742.8
1505.265776,9396
1508.640573,9692.6
1512.010714,9725.8
1515.376209,9639
1518.737069,9531.6
1522.093306,9637.2
1525.444932,9401.2
1528.791957,9381.4
1532.134392,9918.2
1535.472249,9546.8
1538.805539,9575.4
1542.134274,10016.8
1545.458464,9352.4
1548.778121,10338
1552.093256,9857.4
1555.403881,9347.6
1558.710006,9027.4
1562.011644,9349
1565.308805,9565.4
1568.6015,9647
1571.889742,9540.2
1575.173542,9473.4
1578.45291,9437
1581.727858,9750.2
1584.998398,9500.2
1588.264541,9471.8
1591.526299,9397.2
1594.783682,9422.2
1598.036703,9334.4
1601.285372,9366.4
1604.529701,9731
1607.769702,9555.2
1611.005386,9319.6
1614.236765,9906.8
1617.463849,9239
1620.686651,9414.6
1623.905183,9176
1627.119454,9273.4
1630.329478,9083.2
1633.535265,9257.4
1636.736827,9151.8
1639.934176,9257.6
1643.127324,9328.2
1646.316281,8894.4
1649.50106,9471
1652.681671,9049.4
1655.858128,8743.2
1659.03044,9158.4
1662.198621,9583.2
1665.362681,8979.4
1668.522632,9150.2
1671.678487,9347.8
1674.830256,9417.4
1677.977951,8986.4
1681.121584,9156.6
1684.261167,9174
1687.396711,9134.8
1690.528229,9070.4
1693.655731,8908.2
1696.779231,8857.6
1699.898738,9108.8
1703.014266,9078.8
1706.125826,9036.2
1709.23343,9344.2
1712.33709,9074.8
1715.436818,9135.8
1718.532624,9375
1721.624522,9298
1724.712524,9331.6
1727.79664,8923
1730.876884,9118.2
1733.953266,9030.2
1737.025799,9279.2
1740.094495,8969.6
1743.159366,9636.6
1746.220423,9014.2
1749.277679,8912.8
1752.331146,9094.6
1755.380835,9054.6
1758.42676,9029.4
1761.468931,9096
1764.50736,9007.6
1767.542061,8728.8
1770.573045,9252.4
1773.600324,9209.2
1776.62391,8948
1779.643815,8942.8
1782.660052,9294.8
1785.672632,9260.4
1788.681568,9235.4
1791.686873,8895.2
1794.688557,8872
1797.686633,9217.8
1800.681115,9141.2
1803.672013,9116.2
1806.65934,9033.4
1809.643108,8772.8
1812.62333,8975.2
1815.600018,8702.6
1818.573184,8789.6
1821.542841,8886.2
1824.509,8617.2
1827.471675,8887.2
1830.430877,8712.2
1833.38662,8888
1836.338914,8816.8
1839.287774,8952.4
1842.233211,8934
1845.175238,8558.2
1848.113866,9019.2
1851.04911,8820.8
1853.98098,8825.4
1856.909491,8713.6
1859.834653,9326.6
1862.75648,8909.6
1865.674985,8822.6
1868.590179,8610
1871.502076,8642.2
1874.410687,8492.6
1877.316027,8885.2
1880.218107,8764.6
1883.116939,8682.2
1886.012538,9049
1888.904914,8733
1891.794082,8775.6
1894.680054,8971.6
1897.562842,8918
1900.442459,8584.8
1903.318918,8825.8
1906.192232,9034.8
1909.062414,9053
1911.929476,9019
1914.793432,8940.2
1917.654293,9030
1920.512074,8930.8
1923.366786,8642.6
1926.218443,8849
1929.067058,8716.4
1931.912644,8823.2
1934.755213,8699.8
1937.594779,8948.2
1940.431354,8906.2
1943.264952,8898
1946.095586,9071.2
1948.923268,9795.6
1951.748012,9036.4
1954.569831,8878.6
1957.388737,8943.6
1960.204745,8645.6
1963.017867,8677.6
1965.828116,8784.8
1968.635505,8870.6
1971.440049,8726.8
