Raman shift cm-1,4ATP_1fM_rep2_acc4_processed_intensity
-93.47115107,502.3863724312667
-87.69374369,33.57246371373803
-81.9253076,-35.67608005205346
-76.16582701,123.9758084424989
-70.41528615,140.71357703318782
-64.67366933,19.157264969697934
-58.94096086,-32.5335506201105
-53.21714512,-13.776688190055845
-47.50220652,8.98135779834705
-41.79612954,97.94355111393266
-36.09889866,222.3702191804546
-30.41049843,229.65374315891785
-24.73091343,128.05560363187072
-19.0601283,49.1319288927904
-13.39812769,14.389470527707026
-7.744896327,-8.780226231004534
-2.100418946,12.578514081748807
3.535319659,82.5308646307241
9.162334658,108.31552542622532
14.78064118,38.03155730285194
20.39025432,-12.07372383499866
25.99118913,77.27288161248136
31.58346061,188.6670625449018
37.16708375,148.5981128147887
42.74207347,36.50427635267981
48.30844468,1.6736213563709743
53.86621222,-14.045646581206661
59.41539093,-62.481955595671664
64.95599558,-26.32770191469381
70.48804091,70.00329079837536
76.01154164,60.13993948704019
81.52651243,30.94254477978489
87.03296792,120.05676225783898
92.5309227,175.14112461580842
98.02039134,113.26988771467416
103.5013884,57.74077393383746
108.9739282,30.39118201577424
114.4380255,69.08389549264928
119.8936944,249.45889740071752
125.3409495,355.77213410162517
130.779805,178.41691040323508
136.2102753,-28.43735269201275
141.6323747,14.691673109084288
147.0461174,131.44840099259974
152.4515176,82.44129449300553
157.8485895,-24.942803607100785
163.2373472,-0.938474527860059
168.6178049,127.3359998547301
173.9899766,207.44966286524485
179.3538764,178.95022296422306
184.7095182,146.2615228037412
190.0569161,174.62253043226048
195.396084,155.51570621384315
200.7270358,60.026849197644154
206.0497854,29.191636606067593
211.3643466,74.63097219026099
216.6707333,62.03541957631662
221.9689593,4.0718783500841695
227.2590382,15.642840580116921
232.5409839,67.15602768270061
237.8148101,58.32685951609035
243.0805303,0.18021543657927808
248.3381582,-34.38914375331088
253.5877075,-7.747561402951442
258.8291917,73.44238553250761
264.0626244,167.58725347830153
269.288019,225.41784106725686
274.5053891,210.33045789881666
279.7147481,130.21272188372723
284.9161094,75.18683043217072
290.1094865,114.32080461267634
295.2948927,170.63805768528755
300.4723414,124.04851339503507
305.6418459,10.785622722286677
310.8034194,4.674767418521462
315.9570752,152.94573609578177
321.1028267,302.6640357599592
326.2406869,359.8029579927055
331.370669,370.6541522386539
336.4927863,386.21396547751414
341.6070517,455.1313416032731
346.7134786,578.1528612640558
351.8120798,641.2829225187993
356.9028684,624.5364790514543
361.9858576,672.8910511882766
367.0610602,801.3201723806121
372.1284892,1013.7371285522115
377.1881577,1742.6616004279297
382.2400784,3387.117776816564
387.2842644,5320.2248505101115
392.3207284,6203.913680949638
397.3494833,5488.297006913899
402.370542,3896.198188784402
407.3839172,2393.9460655146113
412.3896217,1354.8706408469902
417.3876683,700.2757030809485
422.3780697,315.84967554784964
427.3608386,172.07818482973755
432.3359876,207.60175806636965
437.3035295,255.55211388746022
442.2634769,168.80935682841627
447.2158423,19.022557369172077
452.1606383,-24.816770022655874
457.0978776,1.6348762523799536
462.0275727,-9.05155897179472
466.9497361,-10.757830805980774
471.8643802,16.709468780065848
476.7715176,7.789555381480241
481.6711608,3.541365106300603
486.5633221,75.25983902706716
491.448014,151.05379930752318
496.3252488,155.0643861820943
501.195039,128.63359390779863
506.0573969,81.66472189979345
510.9123349,-11.235429122996813
515.7598651,-53.74544771009462
520.6,23.145431371316484
525.4327518,87.93573848621631
530.2581327,58.97465813706644
535.076155,37.63354387193247
539.8868309,62.73561227607307
544.6901726,117.69366156733105
549.4861922,228.7245533051387
554.2749019,257.71745846579324
559.0563139,99.47580037035642
563.8304402,20.152309762252855
568.597293,133.65807367049882
573.3568844,141.1129098291293
578.1092263,7.903049928203055
582.8543308,-27.162297093142094
587.5922101,2.3664736143830805
592.322876,-1.0144532670568527
597.0463405,23.94482518756773
601.7626157,35.87258257567266
606.4717135,-28.850201807302394
611.1736458,-61.866535201403565
615.8684246,-14.944150085867351
620.5560617,5.152248134497958
625.2365691,-2.4217408558034412
629.9099585,68.8155332583352
634.5762419,184.560087711836
639.2354312,208.36465070836897
643.887538,115.56400205029307
648.5325743,30.890809763233214
653.1705518,53.66664210799775
657.8014823,87.42113296076425
662.4253775,25.094807082225422
667.0422493,-30.60040290548868
671.6521092,4.904758403661383
676.2549691,31.474667561576084
680.8508407,-1.2004424655300383
685.4397355,-13.609971002072792
690.0216654,16.937692998857568
694.5966419,74.22933080298928
699.1646767,189.82456884100475
703.7257814,312.10156893333476
708.2799676,319.56397924363023
712.827247,211.81511721833587
717.367631,78.02889388088022
721.9011314,-16.673275694349854
726.4277595,-25.350186143668296
730.9475271,60.438552796532406
735.4604456,185.3669695965881
739.9665264,264.06799229792085
744.4657813,230.16346162517857
748.9582215,109.21844474424545
753.4438587,6.3536168138684275
757.9227042,-19.74605909148616
762.3947696,35.5471779692668
766.8600662,165.68052796946438
771.3186056,289.48117108381973
775.770399,315.57198230445664
780.215458,246.73399412561537
784.6537939,150.78953206296475
789.0854181,181.2454968164402
793.510342,420.60193937782174
797.9285769,647.7093306832593
802.3401342,652.3179868760622
806.7450253,555.127496549829
811.1432614,477.5596106338538
815.5348538,360.81221133315194
819.9198139,252.51899551251844
824.2981531,246.63052320616268
828.6698824,245.1722154823318
833.0350133,168.04480726010388
837.393557,101.45072727298606
841.7455248,76.27007368875621
846.0909278,31.087365973600257
850.4297774,-6.834436376968448
854.7620848,13.581542704322096
859.0878611,4.7145120927645365
863.4071176,-68.18271419762826
867.7198655,-19.58767837813479
872.026116,188.26566101191395
876.3258802,294.4906809899724
880.6191693,262.2814846199127
884.9059946,305.57495266807854
889.186367,315.60413579026294
893.4602979,116.87877124504368
897.7277982,10.824776142586074
901.9888793,206.70158040164998
906.2435521,338.2664277608253
910.4918277,176.35195605606137
914.7337174,27.299327068156174
918.9692321,117.96148932926997
923.1983831,302.7542983462842
927.4211813,398.6574902849688
931.6376378,373.73075614497884
935.8477637,315.63700610983017
940.0515701,293.9968829474154
944.249068,261.23518330320314
948.4402684,221.31929307358058
952.6251825,275.88378819968045
956.8038212,413.14469630398713
960.9761955,507.80944888895294
965.1423166,499.42521311899657
969.3021953,430.1731903533829
973.4558427,357.9688596441439
977.6032699,307.8011502413461
981.7444877,274.023210365724
985.8795072,232.63598685739805
990.0083394,193.71960654240053
994.1309953,187.6415962856483
998.2474857,193.92693155172208
1002.357822,167.17096299634102
1006.462014,86.99662288448945
1010.560075,12.282271153645638
1014.652013,39.2091058821087
1018.737841,92.02728267448134
1022.81757,31.230690884118616
1026.891209,-26.247773775861845
1030.958771,59.4602092692476
1035.020266,109.30039478371722
1039.075705,-8.06245338166869
1043.1251,-72.16096962521678
1047.16846,24.210436142489883
1051.205797,72.30243687747992
1055.237121,-2.3091383413955953
1059.262444,-31.84795501653432
1063.281777,214.2501597284165
1067.295131,1004.9664569293788
1071.302515,2304.0055212715883
1075.303942,3427.1781710421474
1079.299422,3560.953573401734
1083.288966,2636.4272717658564
1087.272585,1373.0790498134113
1091.250289,468.71943955874315
1095.222091,83.78170607688278
1099.187999,36.7785821957994
1103.148026,68.25444565393931
1107.102183,25.172072089694673
1111.050479,-18.16647044873098
1114.992927,18.716178183259526
1118.929536,34.361167785829714
1122.860318,-33.72455776520535
1126.785283,-28.624574127324237
1130.704443,195.57044541680668
1134.617808,493.85696509313914
1138.52539,603.7253029498862
1142.427198,506.5340766895201
1146.323244,390.1507010999622
1150.213538,354.64155196908024
1154.098093,330.4608658758469
1157.976917,274.52852385313645
1161.850023,289.25959955594897
1165.717421,425.97659722854894
1169.579121,565.7513140576237
1173.435135,648.611174395787
1177.285474,783.5324781559808
1181.130148,966.2754947101505
1184.969169,962.928928740689
1188.802547,693.6928093700768
1192.630292,395.1096093526698
1196.452416,221.42535788272033
1200.26893,99.42534742966012
1204.079844,6.24842381961885
1207.88517,-7.462627921050256
1211.684917,65.30340357989007
1215.479098,202.418500614246
1219.267722,272.41081392069134
1223.050801,191.09029926920147
1226.828346,161.86084921424208
1230.600366,275.43485884626784
1234.366874,315.831796939912
1238.12788,286.4905762674317
1241.883395,389.5977853444858
1245.633429,518.294371407452
1249.377994,453.83938515576676
1253.1171,287.1489998171047
1256.850759,209.64997990443226
1260.578981,225.87763197293717
1264.301776,227.57885257555714
1268.019157,129.18562647364473
1271.731133,-10.338164623810828
1275.437715,-14.52127122953551
1279.138915,131.26890253109656
1282.834743,214.85493373276134
1286.52521,122.6542315861412
1290.210328,14.180857702796786
1293.890106,32.422577893580495
1297.564555,76.66680433434587
1301.233688,74.77957414068419
1304.897514,125.22265528953335
1308.556044,180.86061153091566
1312.209289,86.7552592149531
1315.857261,-42.06627590078661
1319.499969,10.442107454966681
1323.137425,179.72957736668278
1326.769641,274.18557232580355
1330.396626,255.65033190372495
1334.018391,201.29178195380916
1337.634948,177.1866063204899
1341.246307,180.92412477842663
1344.85248,157.6710932028437
1348.453477,77.35822085813349
1352.049309,0.1937971456416605
1355.639987,26.4756792082772
1359.225522,137.61810926970608
1362.805925,204.45935862087433
1366.381207,191.78148878184652
1369.951379,193.76527801238728
1373.516452,258.0180545335248
1377.076436,315.7273946536287
1380.631343,335.9551619916683
1384.181184,377.38313875285684
1387.725969,401.27631711861073
1391.26571,324.7034941203753
1394.800417,240.87304156713532
1398.330102,248.25624747623922
1401.854776,264.7606331788184
1405.374448,188.1944108565756
1408.889132,28.03572384771512
1412.398837,-52.96448114107557
1415.903574,100.94754990880914
1419.403355,315.67680116878256
1422.89819,336.8283330832909
1426.388091,276.7075380924365
1429.873069,304.49849241159416
1433.353134,322.6261116848084
1436.828298,248.97444109087297
1440.298571,141.34911331934683
1443.763965,35.740157880313184
1447.224491,-38.97161081742517
1450.68016,-26.71987072233427
1454.130983,59.97325440036581
1457.576971,145.44450624910436
1461.018135,187.62435766473848
1464.454486,169.56443106316306
1467.886036,82.15557265097073
1471.312794,-0.812991079760593
1474.734774,32.497914630083486
1478.151985,137.3470679286886
1481.564439,144.23916064223405
1484.972146,36.571689813287364
1488.375119,-7.574494380708188
1491.773368,95.22856870417729
1495.166904,188.72190919926797
1498.555739,137.90743706642343
1501.939883,29.806175601220698
1505.319349,-18.520067196122305
1508.694146,-7.082539910209262
1512.064286,33.865588619862116
1515.429781,85.16435772872092
1518.790642,98.57506954640664
1522.146879,21.556675062128463
1525.498505,-82.3202355750852
1528.845529,-78.00223143867197
1532.187965,12.62032950272657
1535.525822,58.14602643244751
1538.859112,30.514124956293482
1542.187846,14.454476986555074
1545.512036,120.22538569183573
1548.831693,279.05772053717624
1552.146829,239.42667921721468
1555.457453,31.77186063381945
1558.763579,-10.48685121053608
1562.065216,207.93590942918507
1565.362377,500.395985061405
1568.655073,706.2801222458108
1571.943315,783.6348569857388
1575.227114,868.3494101108337
1578.506482,1133.6607025497763
1581.781431,1478.7054397956367
1585.051971,1688.7782896406388
1588.318114,1729.5466353427723
1591.579872,1569.9092770859663
1594.837255,1156.2943058327746
1598.090275,705.4029623049527
1601.338945,446.8421408101351
1604.583274,237.10347642642606
1607.823275,26.838615116613838
1611.058959,60.85277106878159
1614.290338,201.7807315815436
1617.517422,114.5436159194244
1620.740224,-36.24202589655408
1623.958755,-25.958347321888937
1627.173027,16.341174767377794
1630.38305,4.724203914316931
1633.588838,11.779905446494524
1636.7904,64.73658903181132
1639.987749,90.24924540845191
1643.180896,56.004073739277146
1646.369853,86.11443424849732
1649.554632,170.62576910556825
1652.735244,110.41273089769612
1655.9117,-8.183934561022284
1659.084013,21.703760800772628
1662.252193,50.888760128951716
1665.416254,-25.18536462562669
1668.576205,1.5063759933236511
1671.732059,132.7133796999457
1674.883828,140.92376490141555
1678.031523,38.30226710228354
1681.175157,-10.199325694139548
1684.314739,18.232787450182524
1687.450284,56.11176897494287
1690.581801,50.73297558820323
1693.709304,-2.7598887822159526
1696.832803,-39.26885139277546
1699.952311,8.902705000389695
1703.067839,133.57073225570358
1706.179399,235.26908307635614
1709.287003,201.0901601877302
1712.390663,95.47946107451995
1715.49039,105.85856300186039
1718.586197,210.27002197591833
1721.678095,212.04761249710145
1724.766096,85.48253449504163
1727.850213,-11.897677487750897
1730.930456,-7.358553458687425
1734.006838,23.09461769089158
1737.079372,64.31718869079731
1740.148067,181.93240981094698
1743.212938,296.5520435450202
1746.273996,281.8032947028611
1749.331252,193.03667116905822
1752.384718,130.15749688086822
1755.434408,128.3320099608858
1758.480332,180.88783325781
1761.522503,159.92942902564872
1764.560933,6.483229541066841
1767.595634,-54.19163382194936
1770.626618,94.42028782153116
1773.653896,197.68315903515514
1776.677482,103.74486486307697
1779.697388,25.638753786876144
1782.713625,135.44352131040182
1785.726205,275.96233152371485
1788.735141,213.25851243769225
1791.740445,27.30650279483358
1794.742129,10.90302400029676
1797.740206,157.51619909231425
1800.734687,185.21161283531794
1803.725585,82.07757322690843
1806.712912,61.02674329450613
1809.69668,90.48696369105471
1812.676902,23.408324579077764
1815.65359,-50.71296269527907
1818.626756,-20.03240016771528
1821.596413,20.31042869136107
1824.562573,21.353046891847708
1827.525247,50.67537605536954
1830.48445,57.616374937663515
1833.440192,-7.804228070328012
1836.392487,-27.684285302780467
1839.341347,33.89634119260087
1842.286784,74.75624112570355
1845.22881,97.76437808511348
1848.167439,109.64660056982865
1851.102682,20.030963803057965
1854.034553,-70.78030095464482
1856.963063,35.58929871954561
1859.888226,210.89782836868724
1862.810053,212.9826750143281
1865.728557,94.47039525867734
1868.643751,0.17482799968342988
1871.555648,-29.877280566670557
1874.46426,27.804769840887943
1877.369599,91.21092891577143
1880.271679,58.0520930013191
1883.170512,52.92710092086584
1886.06611,140.6480615335587
1888.958487,132.95263964635046
1891.847655,11.145620046465577
1894.733626,-31.108219874651212
1897.616414,8.220114788788493
1900.496032,5.668641485972392
1903.372491,-10.28549170065514
1906.245805,35.95239838021813
1909.115987,100.95048284530999
1911.983049,119.93720532078905
1914.847004,105.23083661744951
1917.707866,82.69517252731299
1920.565646,53.53160145085608
1923.420359,16.05035650502748
1926.272016,-24.520769451136346
1929.120631,-39.65712437439934
1931.966216,-11.01577974700658
1934.808786,31.039332221240006
1937.648351,47.189679995055585
1940.484927,32.4143004550616
1943.318525,66.05410464088513
1946.149158,222.24445210262604
1948.97684,356.0379520857019
1951.801584,294.02998669068484
1954.623403,151.47649103594694
1957.44231,71.4558066247414
1960.258318,-1.9435152821140775
1963.071439,-55.14177174121796
1965.881688,3.786066820068484
1968.689078,75.9253349933943
1971.493621,33.5981788694577
