Raman shift cm-1,4ATP_1mM_rep3_acc3_processed_intensity
-93.47115107,420.7065960753855
-87.69374369,10.0947552760959
-81.9253076,-22.888387492545135
-76.16582701,25.526673278287127
-70.41528615,161.99602062275258
-64.67366933,61.604101273660206
-58.94096086,-40.602235436586376
-53.21714512,27.34064895908733
-47.50220652,-35.14198011388264
-41.79612954,-0.9993533941237658
-36.09889866,106.64536590918559
-30.41049843,76.66798221396654
-24.73091343,25.965926199401633
-19.0601283,26.98587340894347
-13.39812769,58.070981320651626
-7.744896327,16.066405759922716
-2.100418946,-21.94181043234932
3.535319659,79.86628386710086
9.162334658,58.823053270123374
14.78064118,3.578712870867217
20.39025432,-11.376416562756912
25.99118913,14.118625440654789
31.58346061,184.62035548238546
37.16708375,157.12490074794238
42.74207347,73.56952517864266
48.30844468,93.3523475377826
53.86621222,22.65946616097551
59.41539093,-22.910979879196503
64.95599558,-21.074014249413636
70.48804091,96.91619122726794
76.01154164,137.6236406529438
81.52651243,0.0831027895069667
87.03296792,138.6599004612855
92.5309227,221.810163678866
98.02039134,69.31629089678482
103.5013884,132.72182907229472
108.9739282,152.88786938416433
114.4380255,83.75867209949799
119.8936944,243.36079566569316
125.3409495,323.08134487196253
130.779805,103.72062032741167
136.2102753,-10.674767794235834
141.6323747,127.73881149354563
147.0461174,152.37891377885182
152.4515176,-4.172404062617254
157.8485895,-27.33945414207236
163.2373472,12.769668365188153
168.6178049,31.79310645861038
173.9899766,143.3165393144112
179.3538764,138.04320895280395
184.7095182,74.7466023799416
190.0569161,148.8031030564529
195.396084,146.206383213483
200.7270358,28.454028796733844
206.0497854,-10.599646375676526
211.3643466,32.59319885106266
216.6707333,56.08120699765793
221.9689593,-6.131215556025612
227.2590382,18.71844705797346
232.5409839,57.51335028598231
237.8148101,-63.07202658021124
243.0805303,-6.094244039976516
248.3381582,71.23405673021088
253.5877075,39.288485062839186
258.8291917,86.960747167722
264.0626244,11.168100591372777
269.288019,31.715289612471125
274.5053891,118.26274365801083
279.7147481,-36.22993615808378
284.9161094,-101.86260802595972
290.1094865,35.13659818466692
295.2948927,218.62389373708524
300.4723414,621.7619062767114
305.6418459,1278.516639040714
310.8034194,1938.0840463661766
315.9570752,2513.1862822708363
321.1028267,2788.510497200997
326.2406869,2999.0709472119975
331.370669,3297.9744151134705
336.4927863,3329.9075055389517
341.6070517,3486.715516828545
346.7134786,3640.0234055033216
351.8120798,3526.4994701321025
356.9028684,3482.368226010292
361.9858576,3566.3469421484224
367.0610602,3999.5407257279217
372.1284892,5213.36546019772
377.1881577,8540.16771138106
382.2400784,15253.413167080169
387.2842644,22406.65188946574
392.3207284,23782.811945504793
397.3494833,18569.775957969625
402.370542,12102.126749854386
407.3839172,7546.2952110548595
412.3896217,4839.616906494926
417.3876683,3259.342574657887
422.3780697,2099.81406852249
427.3608386,1375.770855348866
432.3359876,969.2323061700295
437.3035295,788.9877015160391
442.2634769,688.6022872681651
447.2158423,306.17880913714066
452.1606383,31.617744723335363
457.0978776,39.691245209576664
462.0275727,133.94564279253268
466.9497361,205.14322785142667
471.8643802,302.5612707031846
476.7715176,554.3152723921451
481.6711608,862.8235950402798
486.5633221,1039.0604437076427
491.448014,950.3304886181318
496.3252488,875.3747023781998
501.195039,946.4476937632353
506.0573969,1013.0351722855107
510.9123349,840.0336788576524
515.7598651,592.9146119464415
520.6,557.0061425708507
525.4327518,610.0409118940424
530.2581327,481.6948473184518
535.076155,290.2174536146508
539.8868309,699.5886211563227
544.6901726,767.4321711709481
549.4861922,358.25602977630956
554.2749019,447.1852700624099
559.0563139,191.89002743806202
563.8304402,-30.81276106383666
568.597293,277.82864021729245
573.3568844,209.4745738197846
578.1092263,-37.708828051602495
582.8543308,91.42508959315921
587.5922101,199.39375165476065
592.322876,-13.496206930434596
597.0463405,-6.22758653505025
601.7626157,149.66111696667178
606.4717135,39.4805744890308
611.1736458,-47.99626308609811
615.8684246,1.8584065729133954
620.5560617,138.15827972257193
625.2365691,439.1581821172251
629.9099585,1194.6216498294982
634.5762419,2067.583078805315
639.2354312,2206.7257185945527
643.887538,1648.2221291238814
648.5325743,795.270349756503
653.1705518,320.43704342765545
657.8014823,219.61899475699533
662.4253775,21.84119969128301
667.0422493,-9.13598188022911
671.6521092,16.600990476237484
676.2549691,9.306516359079978
680.8508407,21.329686228729543
685.4397355,11.573258805870182
690.0216654,23.64952731786343
694.5966419,379.10497326567406
699.1646767,1026.5490263296715
703.7257814,1048.2698194879881
708.2799676,729.0968011831271
712.827247,862.3201298926319
717.367631,907.496796942477
721.9011314,469.60254624776815
726.4277595,129.7037084882594
730.9475271,-28.39425613735716
735.4604456,74.57550171519881
739.9665264,214.92897063472344
744.4657813,33.92885963392405
748.9582215,97.88949397066415
753.4438587,60.241181808609326
757.9227042,-32.9041277607555
762.3947696,-48.025935053361366
766.8600662,40.98817838683033
771.3186056,329.976707515702
775.770399,186.28971033504916
780.215458,289.2429257095008
784.6537939,485.1292154623128
789.0854181,456.23679370315386
793.510342,995.6264522027756
797.9285769,1619.5302734093084
802.3401342,1844.9909807589381
806.7450253,2073.6365716534056
811.1432614,2164.2710811811476
815.5348538,1898.0849783331646
819.9198139,1685.0157412005992
824.2981531,1330.6819943507367
828.6698824,969.753366179029
833.0350133,752.500737165131
837.393557,433.52942546897884
841.7455248,387.6233288199046
846.0909278,225.7831520586749
850.4297774,-13.927778506437438
854.7620848,77.9845061008022
859.0878611,-8.485849367515673
863.4071176,-44.22481643974411
867.7198655,16.507482859236127
872.026116,108.95403899887052
876.3258802,343.56571623861714
880.6191693,131.74722027172567
884.9059946,43.15403016197953
889.186367,288.63836474147297
893.4602979,158.6618659728468
897.7277982,144.5378273129282
901.9888793,364.28956992226057
906.2435521,465.5540902889211
910.4918277,569.1057200809342
914.7337174,789.612749630377
918.9692321,1132.1422096886085
923.1983831,1200.4285627164786
927.4211813,1182.9000257978369
931.6376378,1274.5882794653166
935.8477637,1252.8174034270883
940.0515701,1567.2969282551076
944.249068,1653.7125659984392
948.4402684,1594.8817238673444
952.6251825,1905.3823968980798
956.8038212,1931.5939473816802
960.9761955,2125.421320163859
965.1423166,2328.564517999494
969.3021953,2221.5655825360445
973.4558427,2239.2127758965253
977.6032699,2252.34214644211
981.7444877,2226.177736546049
985.8795072,2102.175594613456
990.0083394,2039.5164700722505
994.1309953,2369.9684626322182
998.2474857,3252.1301167106863
1002.357822,4600.564825278912
1006.462014,5001.592024718522
1010.560075,3271.726323249834
1014.652013,1363.4995763595239
1018.737841,664.9895624173436
1022.81757,215.94422749413354
1026.891209,-28.75289614458279
1030.958771,-43.455797527013715
1035.020266,42.00087498731307
1039.075705,109.3997281239125
1043.1251,25.96679335732324
1047.16846,286.6955014869037
1051.205797,615.0705586710391
1055.237121,1283.2718217725082
1059.262444,2836.931650124983
1063.281777,5418.598449449993
1067.295131,10558.97746469344
1071.302515,18114.513626049025
1075.303942,25701.936021752157
1079.299422,28778.171701852665
1083.288966,23352.867235557653
1087.272585,13666.970120252778
1091.250289,6204.5428017934
1095.222091,2319.139922334509
1099.187999,858.017534205671
1103.148026,248.35045778679887
1107.102183,9.316525630326964
1111.050479,113.62727967580679
1114.992927,283.9083579332863
1118.929536,885.4672582274574
1122.860318,1995.265117001918
1126.785283,3578.0542585445937
1130.704443,6610.364684897776
1134.617808,11116.044073309551
1138.52539,14785.415697724267
1142.427198,14986.350186990103
1146.323244,11421.746164702065
1150.213538,7123.004474568857
1154.098093,4470.084784960547
1157.976917,2857.44539847489
1161.850023,2153.5734819437043
1165.717421,2240.266044095615
1169.579121,2371.0819255450742
1173.435135,2729.1766018458093
1177.285474,3351.431196649809
1181.130148,3915.2938101258496
1184.969169,3859.86695929678
1188.802547,3263.9996579729723
1192.630292,2425.9020151408217
1196.452416,1254.1079386524175
1200.26893,402.64645792068546
1204.079844,37.671932002187646
1207.88517,-10.522544934205655
1211.684917,4.061561153483154
1215.479098,55.602254832153506
1219.267722,257.463237629659
1223.050801,5.79465644261461
1226.828346,-42.91688856528582
1230.600366,306.0773656563323
1234.366874,324.8357315717555
1238.12788,304.6393030009152
1241.883395,335.6218299154636
1245.633429,454.1841625338626
1249.377994,418.88571670596923
1253.1171,166.27950308129013
1256.850759,69.60362005449235
1260.578981,-5.316249104237372
1264.301776,0.350253908239047
1268.019157,0.029801417721280643
1271.731133,-89.59526084422646
1275.437715,-10.549772646180259
1279.138915,40.85818938792252
1282.834743,31.784538794812576
1286.52521,65.51288315183268
1290.210328,39.06997016264792
1293.890106,322.62448030077735
1297.564555,759.5741912740752
1301.233688,832.6772167836776
1304.897514,756.9166554464915
1308.556044,663.4546558733468
1312.209289,440.4069222896544
1315.857261,149.112224733864
1319.499969,116.58942592914192
1323.137425,115.89148605271751
1326.769641,-2.017408794579623
1330.396626,101.00493680489416
1334.018391,23.35282660242941
1337.634948,-27.50465087139188
1341.246307,170.51525077053617
1344.85248,235.1836651364219
1348.453477,445.5227895963953
1352.049309,674.9019460192077
1355.639987,916.3449899261926
1359.225522,1243.6380235854763
1362.805925,1358.0916632619062
1366.381207,1517.151568401417
1369.951379,1741.050036540885
1373.516452,2084.845234621378
1377.076436,2711.1420730707355
1380.631343,3725.582901273218
1384.181184,5309.407583268475
1387.725969,6776.768116988002
1391.26571,6969.133868481432
1394.800417,5328.65949663261
1398.330102,3054.1490950173093
1401.854776,1638.025756385439
1405.374448,897.021235458184
1408.889132,627.5890346360006
1412.398837,872.6570536379969
1415.903574,1562.6769705033055
1419.403355,2948.6831193891403
1422.89819,4864.192270822773
1426.388091,7135.46869782767
1429.873069,9330.71311781862
1433.353134,10400.876688179182
1436.828298,9956.054188881217
1440.298571,8388.896529656548
1443.763965,6391.072424995268
1447.224491,4361.286899248131
1450.68016,2792.1829727819163
1454.130983,1909.1370342613413
1457.576971,1302.6028036414925
1461.018135,1061.094802264195
1464.454486,1017.4924692423543
1467.886036,1196.6056605402061
1471.312794,1486.9364925215114
1474.734774,1353.5820784816278
1478.151985,1104.1162029269015
1481.564439,1029.3183257837545
1484.972146,1325.2798555331465
1488.375119,1670.8967135308856
1491.773368,1644.8030473718575
1495.166904,1166.2527935087605
1498.555739,419.7710738087252
1501.939883,69.95396327716371
1505.319349,0.15520919093194507
1508.694146,-16.82214961804581
1512.064286,3.1210678312931996
1515.429781,7.619051757965153
1518.790642,76.77526821801573
1522.146879,105.7970879184233
1525.498505,4.115190779655833
1528.845529,92.74626406683088
1532.187965,445.3444757336256
1535.525822,578.2762017659958
1538.859112,915.3712387367639
1542.187846,1247.4787504468954
1545.512036,1323.8002496522868
1548.831693,1825.7105474038317
1552.146829,2131.7416289389994
1555.457453,2309.11770923585
1558.763579,2771.1798128795795
1562.065216,3291.477158690786
1565.362377,4147.200007341002
1568.655073,4964.318270569102
1571.943315,5732.667957736265
1575.227114,6617.730051993168
1578.506482,7323.462733765959
1581.781431,8113.914067476347
1585.051971,8910.673585067547
1588.318114,9608.476539667014
1591.579872,9666.06868313052
1594.837255,8631.088062885154
1598.090275,6919.881069854765
1601.338945,4877.340018411164
1604.583274,3284.7231111913384
1607.823275,2027.069535540735
1611.058959,1518.4916393152462
1614.290338,1625.5500753841743
1617.517422,1028.665145362905
1620.740224,792.9842850035445
1623.958755,790.3387587615746
1627.173027,504.3573253509277
1630.38305,578.7066547093336
1633.588838,438.12495231268883
1636.7904,271.9134417683359
1639.987749,344.19877259496263
1643.180896,163.93892897452864
1646.369853,37.01062389687558
1649.554632,172.32873963814396
1652.735244,95.90799014043321
1655.9117,-44.773883481099105
1659.084013,66.98179732569594
1662.252193,110.19908406158137
1665.416254,-5.379021686860568
1668.576205,36.03990878507773
1671.732059,165.92028078044103
1674.883828,107.80600442139952
1678.031523,89.40448865360219
1681.175157,89.97421797158411
1684.314739,-25.647242693506087
1687.450284,78.52452098846675
1690.581801,117.16078279794718
1693.709304,-14.541874281766624
1696.832803,76.87904911375935
1699.952311,139.2005929119626
1703.067839,138.77560586013038
1706.179399,218.83316395805554
1709.287003,251.26832902516833
1712.390663,224.14681832544255
1715.49039,148.58846301070912
1718.586197,112.76454456190787
1721.678095,79.86345663391636
1724.766096,14.195665820862793
1727.850213,23.637584185675216
1730.930456,14.132378914766626
1734.006838,-22.868642272211645
1737.079372,-3.989373550985654
1740.148067,166.24227471578223
1743.212938,266.0579304563274
1746.273996,103.19256219718065
1749.331252,92.04908422906044
1752.384718,147.82286276146698
1755.434408,128.5388237850652
1758.480332,152.38098355242727
1761.522503,123.65754530251249
1764.560933,19.767680825661653
1767.595634,-48.49177727453951
1770.626618,134.1874587002765
1773.653896,217.76618405766135
1776.677482,11.302011639571461
1779.697388,-3.7804622891376773
1782.713625,179.07778456903566
1785.726205,227.53799413170017
1788.735141,166.09888032459375
1791.740445,60.73087061155573
1794.742129,16.053074990547834
1797.740206,146.16890866696258
1800.734687,161.18582966534743
1803.725585,107.08119542997073
1806.712912,105.69198291752666
1809.69668,18.10627169274287
1812.676902,-15.33583730215766
1815.65359,-10.156456281521328
1818.626756,15.286435926787423
1821.596413,18.019164546219447
1824.562573,-32.57887442845705
1827.525247,33.228893558801666
1830.48445,83.0597266303969
1833.440192,5.819718929569852
1836.392487,-31.286635035911985
1839.341347,72.73687748645517
1842.286784,82.40571128745329
1845.22881,-9.218058288173996
1848.167439,124.13496934221831
1851.102682,150.36036406589028
1854.034553,-36.42769805769038
1856.963063,12.835377234715807
1859.888226,153.27340450226475
1862.810053,147.85249333842003
1865.728557,23.74495198606617
1868.643751,19.364482479922476
1871.555648,41.787181822709286
1874.46426,-90.33123168756357
1877.369599,35.16223848605904
1880.271679,102.18809963950105
1883.170512,-22.25558191028735
1886.06611,41.4591431483877
1888.958487,14.446585694338596
1891.847655,30.59783095307771
1894.733626,102.63488630667486
1897.616414,-40.738517598599486
1900.496032,-63.43059747370478
1903.372491,65.51399479501964
1906.245805,111.69767152019284
1909.115987,122.14588881395117
1911.983049,60.10400359237423
1914.847004,41.090355376392324
1917.707866,118.5506099069716
1920.565646,99.50175302718895
1923.420359,41.74223773559262
1926.272016,-20.28549278733105
1929.120631,-23.123486840625137
1931.966216,-6.602223948280119
1934.808786,-7.894171589632636
1937.648351,38.84103317651569
1940.484927,-0.07644070454351493
1943.318525,-24.25402915526135
1946.149158,153.65304992103927
1948.97684,357.8217490252206
1951.801584,204.33414715365367
1954.623403,83.80611860700762
1957.44231,144.0817631069368
1960.258318,9.444567395253909
1963.071439,-38.61395459221776
1965.881688,11.26010945851156
1968.689078,37.86679086229085
1971.493621,-19.10850159978787
