Raman shift cm-1,4ATP_1uM_rep1_acc3_processed_intensity
-93.47115107,413.86705512976147
-87.69374369,72.25823477022203
-81.9253076,-31.482714739224704
-76.16582701,37.704511501914325
-70.41528615,85.16036264079975
-64.67366933,59.72488384546108
-58.94096086,11.638026148486773
-53.21714512,-26.36677453022888
-47.50220652,-12.726391540938165
-41.79612954,76.89598251064471
-36.09889866,160.32603927442568
-30.41049843,142.46401555530156
-24.73091343,68.81404658407716
-19.0601283,30.77026692231189
-13.39812769,11.314639507342054
-7.744896327,-15.945857840278448
-2.100418946,1.390124816570669
3.535319659,54.28916123548178
9.162334658,54.76755944041843
14.78064118,7.335958927170945
20.39025432,10.935179276282602
25.99118913,97.23673266264734
31.58346061,174.78832792594616
37.16708375,155.9562379678375
42.74207347,78.72882559107538
48.30844468,15.728381828395609
53.86621222,-33.511970578366004
59.41539093,-51.516928400466014
64.95599558,9.003400693167038
70.48804091,80.94252695869288
76.01154164,65.22187012957625
81.52651243,33.2415446237049
87.03296792,84.05000114589814
92.5309227,132.7250624857071
98.02039134,85.24041248222316
103.5013884,6.073639278877872
108.9739282,-19.862630116224043
114.4380255,34.8304050490137
119.8936944,154.00928803991877
125.3409495,213.72348706724773
130.779805,111.88837161877427
136.2102753,-9.020663067648247
141.6323747,25.915008765671633
147.0461174,98.95588712307664
152.4515176,28.720089409410882
157.8485895,-81.8025978596039
163.2373472,-44.073211304021484
168.6178049,86.86703048917276
173.9899766,128.6667221810106
179.3538764,67.18687624664373
184.7095182,33.05974080235893
190.0569161,57.52235661233428
195.396084,59.624786461359506
200.7270358,32.23378404660637
206.0497854,28.019710017893527
211.3643466,31.005141944132756
216.6707333,7.5195778080612925
221.9689593,-17.78285715261309
227.2590382,-25.523407599756975
232.5409839,-32.36036251738255
237.8148101,-30.53420849297997
243.0805303,-0.8696724137980231
248.3381582,24.50989835864165
253.5877075,9.66895142981791
258.8291917,-6.149381055998981
264.0626244,37.38329787952126
269.288019,114.97053489124016
274.5053891,139.9381170668591
279.7147481,89.87915520051754
284.9161094,39.50366215174089
290.1094865,55.28362451944052
295.2948927,88.42692582017068
300.4723414,28.64624940553339
305.6418459,-95.95201256948518
310.8034194,-113.16898748408532
315.9570752,3.8396693197043543
321.1028267,85.2195834243613
326.2406869,66.4749904802701
331.370669,37.641577150388244
336.4927863,38.78087637346751
341.6070517,58.44238987473065
346.7134786,86.45268934939338
351.8120798,77.61155927474798
356.9028684,29.081611396687634
361.9858576,22.287963429599756
367.0610602,85.49913203666802
372.1284892,187.42033845633884
377.1881577,413.72226988477377
382.2400784,909.5865748408456
387.2842644,1548.0197281905962
392.3207284,1921.5150493816418
397.3494833,1806.0552999183003
402.370542,1365.0361899933903
407.3839172,858.0776161180687
412.3896217,433.666645488388
417.3876683,150.50931691191084
422.3780697,9.446837270313267
427.3608386,-5.1186563493221655
432.3359876,71.73365946670263
437.3035295,136.16133643420537
442.2634769,100.44261635842898
447.2158423,21.409496470692964
452.1606383,-5.344297597493089
457.0978776,-8.815957046935132
462.0275727,-37.3482375677041
466.9497361,-41.32886410480356
471.8643802,14.177067304131917
476.7715176,93.98635464385549
481.6711608,157.20629929567684
486.5633221,156.24158758797708
491.448014,84.76670576743906
496.3252488,38.31627174474237
501.195039,67.94533224982757
506.0573969,77.67126548394964
510.9123349,7.168497277487539
515.7598651,-41.59273956866504
520.6,10.578645532822406
525.4327518,66.32454813455757
530.2581327,32.91729936115509
535.076155,-16.78894331787944
539.8868309,11.558544756998387
544.6901726,117.90500640990611
549.4861922,216.69760296835844
554.2749019,168.732875687746
559.0563139,5.600383897687447
563.8304402,-19.480338994518217
568.597293,125.05613831735647
573.3568844,180.90695519620286
578.1092263,106.32583746640357
582.8543308,73.03095332608007
587.5922101,74.66536663951068
592.322876,34.68455092973167
597.0463405,3.0799520998692476
601.7626157,-4.875829586644917
606.4717135,-26.374061636796952
611.1736458,-10.136130692823432
615.8684246,72.94033664564682
620.5560617,128.1839833334131
625.2365691,109.7980840473829
629.9099585,97.16355628442109
634.5762419,129.2279781296321
639.2354312,145.94835494092945
643.887538,112.26686172852189
648.5325743,68.18650648391795
653.1705518,38.75960625267156
657.8014823,-2.3864658252744366
662.4253775,-40.31586976118259
667.0422493,-17.153440927221233
671.6521092,47.54110029688372
676.2549691,74.0744251417326
680.8508407,39.82083864346729
685.4397355,-6.976871391911994
690.0216654,-10.787383631097804
694.5966419,28.694753178083666
699.1646767,62.99509130915247
703.7257814,84.82618194870926
708.2799676,129.45814356991195
712.827247,165.7029664028853
717.367631,116.11746154733521
721.9011314,2.789773502199715
726.4277595,-47.33002120403446
730.9475271,28.727512103162884
735.4604456,143.83869110242097
739.9665264,193.94753379388277
744.4657813,188.5331365297799
748.9582215,164.47404108239164
753.4438587,98.4760511795328
757.9227042,-0.4524983313775053
762.3947696,-40.28234381223862
766.8600662,32.213244746591265
771.3186056,145.0507280428884
775.770399,201.45968555433114
780.215458,171.55059224714273
784.6537939,62.381947816606456
789.0854181,-38.29311424487579
793.510342,8.400294733175581
797.9285769,162.65819676990228
802.3401342,226.87560669448237
806.7450253,142.5250653037232
811.1432614,30.27776995490159
815.5348538,-6.57386011917885
819.9198139,39.69933032542162
824.2981531,113.62935437924685
828.6698824,143.56151488203614
833.0350133,109.7526286742862
837.393557,49.43284090862177
841.7455248,-2.153898415799808
846.0909278,-19.25225526705844
850.4297774,8.832654384719262
854.7620848,26.99857592587378
859.0878611,-16.344554050008337
863.4071176,-37.83491129422866
867.7198655,61.24845706096252
872.026116,182.63201618482728
876.3258802,177.71072959647154
880.6191693,113.3919928236035
884.9059946,114.23781602500742
889.186367,111.80279297977904
893.4602979,34.506380940773255
897.7277982,0.6956025354760556
901.9888793,83.16676196811
906.2435521,141.33282344807645
910.4918277,60.951490822060514
914.7337174,-45.83787274780482
918.9692321,-15.712505627119072
923.1983831,124.82152657717205
927.4211813,208.57670006645242
931.6376378,164.10083833061663
935.8477637,90.49816052977353
940.0515701,62.30820192258477
944.249068,25.968582131365622
948.4402684,-19.806518623123054
952.6251825,14.762789597105112
956.8038212,113.97812072178283
960.9761955,162.45219420829
965.1423166,119.01799788429722
969.3021953,35.201938893234825
973.4558427,-18.982245242224877
977.6032699,0.26710034351359013
981.7444877,66.08941920432582
985.8795072,105.1554364946017
990.0083394,96.07991579714613
994.1309953,64.50770123179908
998.2474857,23.34675835342935
1002.357822,-6.785041039766099
1006.462014,-8.610145405504525
1010.560075,15.839668597727695
1014.652013,77.31555052553385
1018.737841,128.4218806665644
1022.81757,75.18756410078069
1026.891209,-15.464682023688525
1030.958771,9.912468479643856
1035.020266,91.68403286449109
1039.075705,85.21099510078122
1043.1251,52.41885032006487
1047.16846,88.53429335234559
1051.205797,108.5845257059564
1055.237121,29.020335253205268
1059.262444,-63.9614163253096
1063.281777,4.429325142464279
1067.295131,329.90304573435185
1071.302515,815.4551607957682
1075.303942,1231.431748614587
1079.299422,1370.3287727084605
1083.288966,1168.7660939938946
1087.272585,758.2517673155058
1091.250289,365.24625965336304
1095.222091,151.298584415073
1099.187999,129.5328983849238
1103.148026,165.6774827858514
1107.102183,123.54708687352695
1111.050479,22.888173905051868
1114.992927,-28.027209535240235
1118.929536,-6.891868887887895
1122.860318,7.952756651133022
1126.785283,2.3175335657451672
1130.704443,74.9278322837229
1134.617808,221.81138713555399
1138.52539,277.9014061020912
1142.427198,195.00201896032914
1146.323244,117.53918027827594
1150.213538,107.11344700782593
1154.098093,75.16677819765222
1157.976917,25.4196814467793
1161.850023,78.73696446754323
1165.717421,234.6335833300055
1169.579121,332.5237020010173
1173.435135,267.7483503598186
1177.285474,148.99525159079656
1181.130148,166.6845080974967
1184.969169,291.4132736385952
1188.802547,295.8378105226409
1192.630292,131.87001556954337
1196.452416,2.4578092593732244
1200.26893,3.273526226809892
1204.079844,7.160151871965372
1207.88517,-36.37104401827226
1211.684917,9.806980857523634
1215.479098,176.058206728004
1219.267722,250.81945860225773
1223.050801,140.0528365447179
1226.828346,70.74366182863882
1230.600366,177.06510577019432
1234.366874,266.48342836070685
1238.12788,223.31482947982988
1241.883395,198.0364893229101
1245.633429,255.06783317671233
1249.377994,253.43214997797782
1253.1171,149.28994250283236
1256.850759,85.31274441779291
1260.578981,142.50477447835604
1264.301776,206.85146459955598
1268.019157,135.73943542337724
1271.731133,-3.3536834829220368
1275.437715,3.207111842672802
1279.138915,166.55732061681155
1282.834743,250.46959001583315
1286.52521,159.35455613417332
1290.210328,69.6571518911569
1293.890106,91.49333102545799
1297.564555,120.34066931715174
1301.233688,108.38582802665937
1304.897514,147.70638998894714
1308.556044,203.93924138019327
1312.209289,128.6215731884265
1315.857261,-12.847666566715596
1319.499969,-2.5128341627191553
1323.137425,153.47984244939954
1326.769641,252.81509073224854
1330.396626,212.82607839987932
1334.018391,108.93188743178791
1337.634948,25.22174071834231
1341.246307,-3.7648900780633276
1344.85248,-0.40476561975078695
1348.453477,-10.16415677487511
1352.049309,-15.638276415544418
1355.639987,36.82308656218953
1359.225522,115.05816778999491
1362.805925,140.57456457928723
1366.381207,117.2559755630832
1369.951379,98.95726223716579
1373.516452,109.56628616306404
1377.076436,153.68066169065986
1380.631343,223.89361487119427
1384.181184,275.4652592531461
1387.725969,248.5829194636259
1391.26571,171.01261687100634
1394.800417,168.65811664788896
1398.330102,261.7846791622468
1401.854776,291.23919134757176
1405.374448,163.7933102406894
1408.889132,-0.032264744881700835
1412.398837,-28.048152386506587
1415.903574,85.24025176419492
1419.403355,178.65740277799654
1422.89819,179.23859471007276
1426.388091,189.4348164219961
1429.873069,223.53376878168643
1433.353134,180.0345727085542
1436.828298,102.77118122045384
1440.298571,97.86319912679744
1443.763965,102.66525170324493
1447.224491,34.148131088103405
1450.68016,-32.809336354696356
1454.130983,-14.543633111597757
1457.576971,58.808383390637196
1461.018135,125.38954601460657
1464.454486,135.82833915576168
1467.886036,74.76196474084034
1471.312794,28.24277282969509
1474.734774,81.44745169018965
1478.151985,148.0747029220097
1481.564439,99.60248619539794
1484.972146,-0.6226833000697738
1488.375119,4.0220568694555086
1491.773368,105.92405037739009
1495.166904,158.54887451437628
1498.555739,109.45211793949082
1501.939883,35.7671438078979
1505.319349,-9.627032716835576
1508.694146,-23.32947063317646
1512.064286,9.103106523478072
1515.429781,69.63179919674334
1518.790642,83.83760488876884
1522.146879,20.7683907566378
1525.498505,-40.43674306101096
1528.845529,-12.174626812401822
1532.187965,76.98232025981515
1535.525822,136.44865234147863
1538.859112,126.9089719846387
1542.187846,91.45328529801724
1545.512036,122.1692335777778
1548.831693,199.96222003752567
1552.146829,164.94789049725415
1555.457453,21.183515469007972
1558.763579,-6.144994015559837
1562.065216,155.4258609974698
1565.362377,317.6763781281975
1568.655073,335.395496853958
1571.943315,290.0040232010046
1575.227114,338.29953617186584
1578.506482,480.09261735231877
1581.781431,582.5145079227824
1585.051971,619.7605868551378
1588.318114,675.256751667951
1591.579872,700.2899975665005
1594.837255,582.6379462848012
1598.090275,405.0559216039961
1601.338945,280.5733520785137
1604.583274,142.1192976709508
1607.823275,19.222875912567602
1611.058959,64.97991375030118
1614.290338,153.1504764223297
1617.517422,78.99439506192047
1620.740224,-27.040831790514417
1623.958755,-20.5800932711565
1627.173027,-0.12053217561243201
1630.38305,-22.489871444128845
1633.588838,-16.96019376797468
1636.7904,33.96626953717832
1639.987749,59.080551362051764
1643.180896,33.98275097193344
1646.369853,31.726037153895177
1649.554632,46.82431968326296
1652.735244,0.1802664317710736
1655.9117,-34.1294236525264
1659.084013,18.869440278657365
1662.252193,29.773546913495906
1665.416254,-40.037942213664124
1668.576205,-32.71849390573098
1671.732059,56.82646252252193
1674.883828,79.19758638693715
1678.031523,26.591000785511014
1681.175157,-4.1535798356700795
1684.314739,10.95072354301331
1687.450284,30.031777373059047
1690.581801,13.332670848301248
1693.709304,-24.28370893467497
1696.832803,-26.2853431173833
1699.952311,18.717402547812398
1703.067839,80.53642380268417
1706.179399,139.98744717428474
1709.287003,162.74281866919046
1712.390663,133.06456932046513
1715.49039,109.2463193136474
1718.586197,107.44555947628862
1721.678095,56.192655021411994
1724.766096,-29.027433157447817
1727.850213,-40.66447370123611
1730.930456,6.6903775531868845
1734.006838,3.1195358034200993
1737.079372,-24.942190181950807
1740.148067,35.20000529255793
1743.212938,145.7874281441301
1746.273996,169.4441702925933
1749.331252,92.72957773030338
1752.384718,25.109396150906722
1755.434408,32.423328730471276
1758.480332,58.119155985340704
1761.522503,17.577095078506005
1764.560933,-45.29590533511977
1767.595634,-7.453044512939982
1770.626618,99.75106020131389
1773.653896,109.0671312516613
1776.677482,13.302510718172236
1779.697388,-16.949675663465815
1782.713625,60.988049720722984
1785.726205,108.7611052056705
1788.735141,61.07485742421692
1791.740445,9.077619224029597
1794.742129,36.259772692406756
1797.740206,111.93871403456478
1800.734687,160.39808345344747
1803.725585,159.4395166350152
1806.712912,130.67498676634477
1809.69668,86.41590188249918
1812.676902,30.72578487712644
1815.65359,-21.62686105793991
1818.626756,-53.26754871294125
1821.596413,-50.073855699831014
1824.562573,-5.054750371002807
1827.525247,51.413535023554466
1830.48445,64.35246571113306
1833.440192,34.243536850600414
1836.392487,12.087668965040667
1839.341347,11.720335263015583
1842.286784,21.455995276058204
1845.22881,51.866915669415334
1848.167439,73.80356361942681
1851.102682,26.766433663132176
1854.034553,-28.12058578598063
1856.963063,34.254101040579336
1859.888226,158.24099602153507
1862.810053,177.23929992751766
1865.728557,80.93527036894112
1868.643751,-19.97256641337981
1871.555648,-57.066298254551846
1874.46426,-12.296277392298137
1877.369599,62.717525833449606
1880.271679,72.73188575054027
1883.170512,30.777986584165895
1886.06611,8.595916766222341
1888.958487,-10.851410507114972
1891.847655,-33.05571831122079
1894.733626,-11.773536779213373
1897.616414,15.518434683012345
1900.496032,0.10531719736459877
1903.372491,-3.4987619461229293
1906.245805,33.518150641298135
1909.115987,53.14413687061335
1911.983049,38.95008016761729
1914.847004,33.211904343311645
1917.707866,34.291375624471364
1920.565646,13.387768056875197
1923.420359,-17.758437900610225
1926.272016,-43.51560822138403
1929.120631,-52.04720035122142
1931.966216,-3.2225187989702633
1934.808786,89.49763943912433
1937.648351,129.11575935035
1940.484927,92.34477462743666
1943.318525,103.20424486896965
1946.149158,236.50444520529754
1948.97684,351.9979511202534
1951.801584,305.49776245161127
1954.623403,179.3800359017792
1957.44231,88.58157665822283
1960.258318,12.902376725410122
1963.071439,-31.090583303413226
1965.881688,14.321247853370117
1968.689078,62.3749242770785
1971.493621,13.73496313669029
