Raman shift cm-1,4ATP_10uM_rep3_acc1_processed_intensity
-93.47115107,330.7128625382098
-87.69374369,94.32579453778722
-81.9253076,-15.789490862543978
-76.16582701,20.74356486553431
-70.41528615,70.66650615865225
-64.67366933,31.911526979099765
-58.94096086,-33.44730095827177
-53.21714512,-42.028904095886304
-47.50220652,29.20022438298793
-41.79612954,142.94889387630212
-36.09889866,196.4424940016603
-30.41049843,151.05585551843788
-24.73091343,98.07813038189222
-19.0601283,105.39650601432264
-13.39812769,94.70303171973434
-7.744896327,14.933005771760783
-2.100418946,-2.8870098445904393
3.535319659,84.57470135692003
9.162334658,120.62682014119223
14.78064118,51.993354624629355
20.39025432,-2.203298810114192
25.99118913,65.47157597762497
31.58346061,186.92341560993762
37.16708375,168.17427984274704
42.74207347,32.42129027532252
48.30844468,-6.499743557080208
53.86621222,23.803434937508662
59.41539093,-15.539191034174358
64.95599558,-12.487950696874911
70.48804091,48.08788846175682
76.01154164,-12.990968380886223
81.52651243,-32.51383124547952
87.03296792,145.64770756527457
92.5309227,205.60676272361627
98.02039134,68.66268920596875
103.5013884,31.888072337580134
108.9739282,87.90621475787033
114.4380255,116.00572668363786
119.8936944,204.86196537786137
125.3409495,267.33348832198385
130.779805,118.24504776379739
136.2102753,-22.379316548843605
141.6323747,77.6078933787949
147.0461174,149.37582855002825
152.4515176,27.20402275107321
157.8485895,-54.787679292446626
163.2373472,-24.221386669678637
168.6178049,34.87994797345737
173.9899766,84.43274016437347
179.3538764,55.456045618337654
184.7095182,12.854136883837967
190.0569161,57.16209860462078
195.396084,86.55407966592166
200.7270358,33.13272256584895
206.0497854,-15.825095488716002
211.3643466,-13.819192307282492
216.6707333,-0.06430614873866602
221.9689593,5.596537759327646
227.2590382,29.303233571529347
232.5409839,71.04693243534176
237.8148101,97.96463663549473
243.0805303,103.93540509659373
248.3381582,121.1180889157183
253.5877075,169.76114413765868
258.8291917,237.2121805253896
264.0626244,327.94249503776274
269.288019,411.9293461567295
274.5053891,413.7378755710471
279.7147481,375.41561365784224
284.9161094,372.0563349424437
290.1094865,363.38276212221086
295.2948927,352.049124043799
300.4723414,313.7578131057814
305.6418459,134.7901832797053
310.8034194,-35.53385087716315
315.9570752,12.683328973467582
321.1028267,155.43730301612953
326.2406869,282.1965856066086
331.370669,401.18065352995467
336.4927863,464.72196859258247
341.6070517,532.1161683503628
346.7134786,654.8506481576865
351.8120798,747.3453502733721
356.9028684,819.5622229509268
361.9858576,963.8284806322384
367.0610602,1173.2002687218144
372.1284892,1552.5298640507826
377.1881577,2766.735935055857
382.2400784,5414.898641003508
387.2842644,8337.88131881036
392.3207284,9192.15660847849
397.3494833,7505.197958747073
402.370542,5001.032572248004
407.3839172,2984.087261895691
412.3896217,1656.2807313914957
417.3876683,969.4233001663222
422.3780697,638.7578256886547
427.3608386,379.05384062115775
432.3359876,283.1432020818071
437.3035295,351.9859731714637
442.2634769,306.9715292632402
447.2158423,118.53401455662689
452.1606383,5.562587047718814
457.0978776,-12.794953520339199
462.0275727,-26.785269024862117
466.9497361,-23.868361686914962
471.8643802,-0.5685999787406324
476.7715176,18.89150079147909
481.6711608,30.073796923045332
486.5633221,20.893466078439875
491.448014,-8.055277177268138
496.3252488,2.126749563081759
501.195039,109.71097060830218
506.0573969,198.4838022640723
510.9123349,111.34246538011082
515.7598651,21.15420981997098
520.6,128.55724703607098
525.4327518,182.20103452475152
530.2581327,21.41080825159065
535.076155,-45.20334100712783
539.8868309,49.34952500393189
544.6901726,98.11373125864772
549.4861922,181.69241633399378
554.2749019,224.84046005118694
559.0563139,33.67653390516218
563.8304402,-16.332979347534483
568.597293,209.65018551869764
573.3568844,199.25661894623954
578.1092263,6.3702589751330905
582.8543308,62.87933959523329
587.5922101,167.416886280553
592.322876,109.59460720787028
597.0463405,103.99416529680575
601.7626157,113.00351159902003
606.4717135,-8.65774356219606
611.1736458,-46.4525132491426
615.8684246,90.5253761836766
620.5560617,159.60323191542943
625.2365691,150.5096386667273
629.9099585,301.67395587788496
634.5762419,563.4788824636827
639.2354312,637.3078833469892
643.887538,462.2714904033686
648.5325743,281.9405319257744
653.1705518,216.18855833370267
657.8014823,123.76864055251862
662.4253775,9.0678296770648
667.0422493,25.721799780104107
671.6521092,86.26068238937468
676.2549691,62.29068828326881
680.8508407,31.84149480466897
685.4397355,3.4177313214808045
690.0216654,-33.213795116981025
694.5966419,91.58598378093767
699.1646767,334.09919479471034
703.7257814,358.67530487515626
708.2799676,149.73287446829457
712.827247,31.647460811161498
717.367631,51.781889440204125
721.9011314,13.491430129130453
726.4277595,-45.925443193048984
730.9475271,-4.550294740031351
735.4604456,64.37158830663934
739.9665264,101.78094558872246
744.4657813,127.3062513266858
748.9582215,90.65988195724788
753.4438587,-4.569963159759613
757.9227042,-42.25731784947546
762.3947696,13.49464848484802
766.8600662,95.44130182138497
771.3186056,123.42433667253397
775.770399,93.14324123750801
780.215458,66.54063511535799
784.6537939,34.50075381887296
789.0854181,61.96363496536836
793.510342,251.94560617559523
797.9285769,446.28034030703213
802.3401342,495.7368205321065
806.7450253,467.66974582899456
811.1432614,400.928031365904
815.5348538,318.6631677843471
819.9198139,275.29049717834016
824.2981531,248.93136328204614
828.6698824,181.95799483736525
833.0350133,75.74206104567605
837.393557,24.458199225983186
841.7455248,68.52950175900739
846.0909278,80.50486504061242
850.4297774,25.978181437609223
854.7620848,3.8891804149812828
859.0878611,-20.049108618256284
863.4071176,-40.64536301781513
867.7198655,97.1096575151429
872.026116,323.65162049667896
876.3258802,377.74037705460734
880.6191693,299.7471808810229
884.9059946,342.40010934082727
889.186367,408.29239504389864
893.4602979,272.53432542735675
897.7277982,177.1598667006514
901.9888793,369.68674716237365
906.2435521,542.1858090611654
910.4918277,452.67945166092323
914.7337174,360.54775516372
918.9692321,437.5194991055778
923.1983831,560.8557765523101
927.4211813,650.1652394130679
931.6376378,656.2361898588093
935.8477637,605.4647878048811
940.0515701,595.631910421343
944.249068,566.3170109614209
948.4402684,528.7481921329511
952.6251825,631.7114017055715
956.8038212,797.2472510984055
960.9761955,841.7439187820283
965.1423166,802.6222985080384
969.3021953,809.843500400035
973.4558427,814.7570183854032
977.6032699,751.2035665296999
981.7444877,713.5660632433236
985.8795072,711.4138067812526
990.0083394,685.5498533854907
994.1309953,717.259786701761
998.2474857,880.0234674145448
1002.357822,1039.2249843864681
1006.462014,928.8686695256507
1010.560075,595.5731787929076
1014.652013,405.34641147201273
1018.737841,337.29149804785516
1022.81757,145.58897185983767
1026.891209,-7.261738233808915
1030.958771,22.811496207684236
1035.020266,45.89316152025314
1039.075705,-5.9355209699910905
1043.1251,-19.918665383058634
1047.16846,18.802196575650008
1051.205797,66.76116858041675
1055.237121,101.3329564200294
1059.262444,122.11802777700986
1063.281777,360.40786044702395
1067.295131,1306.7931208366244
1071.302515,3232.932671558436
1075.303942,5553.563132176299
1079.299422,6665.485786465907
1083.288966,5432.578828649323
1087.272585,2940.8194915725658
1091.250289,1132.393491344325
1095.222091,412.1307880055678
1099.187999,161.4602527556796
1103.148026,79.0969045269494
1107.102183,78.53134874669881
1111.050479,44.741550149735296
1114.992927,-13.425299601364408
1118.929536,-2.1956082222448785
1122.860318,21.85593643729154
1126.785283,-3.6499522364020294
1130.704443,98.59798137978328
1134.617808,369.7974385813548
1138.52539,557.6471034716586
1142.427198,513.7407044001098
1146.323244,344.8820100530156
1150.213538,268.5337286728494
1154.098093,295.6910110137047
1157.976917,287.3047714518882
1161.850023,317.1030626987527
1165.717421,439.0178472536867
1169.579121,578.0558864227975
1173.435135,773.5465905194906
1177.285474,1000.3999425126
1181.130148,1106.176682520403
1184.969169,986.1904012134303
1188.802547,650.379825504978
1192.630292,314.6783937356331
1196.452416,182.77646969522357
1200.26893,149.85789572141977
1204.079844,66.31973383405047
1207.88517,-27.889247073628965
1211.684917,-16.98366716713994
1215.479098,180.4302644499342
1219.267722,329.7844137241116
1223.050801,152.73992780946728
1226.828346,22.599468216267688
1230.600366,253.20684618582845
1234.366874,367.83725774288195
1238.12788,176.57068106575866
1241.883395,173.93780116844425
1245.633429,371.56052976247867
1249.377994,321.41072062067707
1253.1171,109.02991379052972
1256.850759,25.694055915526967
1260.578981,22.9109709223165
1264.301776,58.17617272059522
1268.019157,87.21480055209233
1271.731133,3.9139473070053157
1275.437715,-28.28126670071733
1279.138915,134.95120771731558
1282.834743,243.32638276650408
1286.52521,118.18584295006725
1290.210328,2.091363228043293
1293.890106,78.37412943582504
1297.564555,138.95794496247544
1301.233688,79.89674514451397
1304.897514,131.32507949132935
1308.556044,256.4279674908595
1312.209289,148.84791754174057
1315.857261,-45.457080755886516
1319.499969,25.367755123357597
1323.137425,214.2475689586994
1326.769641,246.56021593595415
1330.396626,198.11255671103294
1334.018391,184.15741719141636
1337.634948,166.2198153764056
1341.246307,115.34929242164219
1344.85248,55.27459375119599
1348.453477,4.488022142559885
1352.049309,14.617588523172856
1355.639987,121.86211533189498
1359.225522,213.35468536209694
1362.805925,214.91975414012015
1366.381207,206.86196465119366
1369.951379,211.3242259436642
1373.516452,215.85860133206955
1377.076436,243.47980356587664
1380.631343,281.76013195346
1384.181184,316.6722214303708
1387.725969,293.35517604232393
1391.26571,189.65234792499615
1394.800417,145.45510869037986
1398.330102,205.47856486556537
1401.854776,233.8194248187204
1405.374448,159.32915947996946
1408.889132,11.623352622343035
1412.398837,-45.99444127388118
1415.903574,130.01583130067326
1419.403355,319.74530658741423
1422.89819,316.8741762005167
1426.388091,304.90075646347935
1429.873069,357.4758254672959
1433.353134,311.0644212243635
1436.828298,183.2441086346422
1440.298571,86.3246364365666
1443.763965,25.73731738788227
1447.224491,-2.05980254743724
1450.68016,-6.686052090017373
1454.130983,-12.062933010762245
1457.576971,34.4130521767427
1461.018135,159.7697494580535
1464.454486,230.76432183776117
1467.886036,158.99167068501083
1471.312794,102.17511858951192
1474.734774,203.85110542681588
1478.151985,321.22557133555654
1481.564439,305.87419423779306
1484.972146,264.3059415266109
1488.375119,333.13902877877285
1491.773368,469.2360685463027
1495.166904,482.73505524263373
1498.555739,308.93525200621133
1501.939883,138.1285670462493
1505.319349,81.58612122831187
1508.694146,107.22718031485257
1512.064286,190.61110102632492
1515.429781,220.52854653179722
1518.790642,127.23449537304057
1522.146879,-2.612276457470685
1525.498505,-56.992037286696984
1528.845529,19.547802890599197
1532.187965,107.54177445183018
1535.525822,98.515204186126
1538.859112,79.8190234476713
1542.187846,71.49162846195836
1545.512036,111.9319098039123
1548.831693,233.02702193242024
1552.146829,194.6993067339761
1555.457453,7.570084034171458
1558.763579,23.84814965909468
1562.065216,260.2438122353524
1565.362377,498.9993834203072
1568.655073,649.0251175818797
1571.943315,738.7403603273841
1575.227114,919.9435666819389
1578.506482,1267.977619090057
1581.781431,1693.746217094733
1585.051971,2167.2942909583844
1588.318114,2608.437447081019
1591.579872,2728.035210505922
1594.837255,2318.0027281509565
1598.090275,1581.231227366527
1601.338945,952.2178314112123
1604.583274,510.0490187479984
1607.823275,168.04897459072544
1611.058959,138.09101078499333
1614.290338,275.13546826030546
1617.517422,157.61264473686836
1620.740224,-18.527806608839057
1623.958755,-14.055842835872518
1627.173027,9.12473284940129
1630.38305,27.302738416840796
1633.588838,63.48750655598252
1636.7904,80.5508264123533
1639.987749,101.23674630539887
1643.180896,60.82111837546707
1646.369853,20.188120971109363
1649.554632,99.25844831404952
1652.735244,77.0202537744174
1655.9117,-64.76535938062979
1659.084013,9.867357870115844
1662.252193,136.72040494663216
1665.416254,25.52692793565444
1668.576205,-5.915234100434915
1671.732059,179.29564257478256
1674.883828,207.326196352131
1678.031523,50.447864054746994
1681.175157,19.048777882810597
1684.314739,97.81109804979744
1687.450284,80.73480310190828
1690.581801,-4.330819863013865
1693.709304,-19.00467822350938
1696.832803,26.21732606627048
1699.952311,60.707624141461785
1703.067839,129.7768511661094
1706.179399,239.15171097982883
1709.287003,228.04062256204463
1712.390663,113.12155321592589
1715.49039,102.27189308562671
1718.586197,139.34393166693934
1721.678095,76.44042478659016
1724.766096,-10.415155845294223
1727.850213,-46.99688726208226
1730.930456,-22.797175862876422
1734.006838,21.167691875061127
1737.079372,8.742950481065904
1740.148067,53.60616105597441
1743.212938,184.503563200712
1746.273996,172.4294653957254
1749.331252,46.84481359461674
1752.384718,11.38131367871361
1755.434408,24.853205106704788
1758.480332,27.41839479823712
1761.522503,29.192584112050575
1764.560933,-20.489231117761864
1767.595634,-42.05123688867671
1770.626618,59.65262907046655
1773.653896,102.06662561812317
1776.677482,3.411738913163969
1779.697388,4.380410244856307
1782.713625,158.334471139529
1785.726205,234.08830518221737
1788.735141,131.44541075634461
1791.740445,-3.373584859329805
1794.742129,30.977047560351096
1797.740206,188.73894204973033
1800.734687,238.78457198458946
1803.725585,187.12615626566256
1806.712912,161.13668377740652
1809.69668,107.5887435720968
1812.676902,-9.145256641645776
1815.65359,-81.50696710200535
1818.626756,-40.61443005501647
1821.596413,28.43413952467263
1824.562573,35.99246042138877
1827.525247,30.810095055001838
1830.48445,20.16939135739632
1833.440192,-32.72927600880306
1836.392487,-32.81196034167071
1839.341347,28.094882136786136
1842.286784,32.65008286506952
1845.22881,31.075971836551403
1848.167439,60.540605090904364
1851.102682,9.882654871071153
1854.034553,-25.128508724644036
1856.963063,110.50375976968127
1859.888226,222.58625111562569
1862.810053,150.75790486500063
1865.728557,84.59155632276332
1868.643751,70.55563500335145
1871.555648,-21.18662750354504
1874.46426,-28.30773346054241
1877.369599,118.3945169862606
1880.271679,140.59909403467577
1883.170512,62.17406312996485
1886.06611,101.06034073796937
1888.958487,137.62058633755743
1891.847655,66.97444110517662
1894.733626,8.999457595904381
1897.616414,-1.8619765824347638
1900.496032,-4.047479214587327
1903.372491,26.287954980979414
1906.245805,97.63157435824016
1909.115987,152.18769270064826
1911.983049,126.42602122501013
1914.847004,72.35668439625258
1917.707866,95.8170234918302
1920.565646,128.68244883985855
1923.420359,69.38895017546862
1926.272016,-1.2581343776165363
1929.120631,-6.0448323243727975
1931.966216,-0.5388697958992814
1934.808786,-25.709655222832545
1937.648351,-18.18185050895815
1940.484927,36.50803894147671
1943.318525,105.07979260813342
1946.149158,245.98810756828237
1948.97684,345.40351756347275
1951.801584,207.1984075565611
1954.623403,36.98583126723252
1957.44231,33.74928788969775
1960.258318,2.285030062314492
1963.071439,-81.60890241280362
1965.881688,-1.0745586439522485
1968.689078,113.4545239902026
1971.493621,17.9916336208903
