Raman shift cm-1,4ATP_10pM_rep2_acc2_processed_intensity
-93.47115107,619.5720394150917
-87.69374369,149.86257364439376
-81.9253076,-29.13406355865338
-76.16582701,46.01061425247876
-70.41528615,139.30361038182372
-64.67366933,-44.774909095684905
-58.94096086,19.620884663319252
-53.21714512,3.628332442039113
-47.50220652,-40.80548504151922
-41.79612954,106.19399750890713
-36.09889866,240.04821914291819
-30.41049843,120.94383895508892
-24.73091343,64.72205614529705
-19.0601283,62.48405853369762
-13.39812769,-6.036825714348851
-7.744896327,-80.87536513041479
-2.100418946,-52.9264513592818
3.535319659,176.04642195353483
9.162334658,38.77408345324372
14.78064118,40.000573274599674
20.39025432,-41.99432885347079
25.99118913,39.736907778706865
31.58346061,115.19309171847118
37.16708375,66.40888483382035
42.74207347,-23.034055643459936
48.30844468,19.48974220819005
53.86621222,0.20950989282518506
59.41539093,-58.52541004296043
64.95599558,-43.43228441191411
70.48804091,41.499387497478445
76.01154164,155.0759580241235
81.52651243,-109.4601606021196
87.03296792,104.14466782993782
92.5309227,227.93574531975904
98.02039134,26.65128049064307
103.5013884,74.33353958545621
108.9739282,3.8685125995500744
114.4380255,34.510409330613186
119.8936944,208.68880264467361
125.3409495,427.20224924870723
130.779805,98.61861687677137
136.2102753,-103.77872893893237
141.6323747,32.98695508106059
147.0461174,234.9991839210159
152.4515176,143.84675719102393
157.8485895,32.70900224557616
163.2373472,-15.745069710301351
168.6178049,164.6411482608847
173.9899766,228.43689499454203
179.3538764,206.6203534765555
184.7095182,134.872200015844
190.0569161,180.68686477460625
195.396084,307.2522000756146
200.7270358,-43.23667167067177
206.0497854,118.90690437661839
211.3643466,35.72389889533501
216.6707333,147.44908095005758
221.9689593,31.625102749319677
227.2590382,37.31640218402413
232.5409839,73.44509237575265
237.8148101,-46.05986901952285
243.0805303,-2.8010156519294434
248.3381582,-45.38537585469129
253.5877075,-48.90080567620179
258.8291917,39.84784102872172
264.0626244,4.476169419596928
269.288019,42.08064149240045
274.5053891,39.05522994107292
279.7147481,-74.67678514405654
284.9161094,-137.7023772426869
290.1094865,78.04684751070978
295.2948927,912.496257085415
300.4723414,2859.8349271536154
305.6418459,5482.780346456906
310.8034194,7633.542616118264
315.9570752,8906.123917830653
321.1028267,9160.325740005563
326.2406869,9033.343228179678
331.370669,9285.685527946294
336.4927863,9786.690549471155
341.6070517,10064.704506786311
346.7134786,10426.329437988117
351.8120798,10558.142855561304
356.9028684,10341.772454186297
361.9858576,9970.976179073603
367.0610602,10065.200473080638
372.1284892,10470.838955850724
377.1881577,12291.35135010805
382.2400784,15871.15905599972
387.2842644,20292.060422158058
392.3207284,21838.61359319832
397.3494833,19361.3869604288
402.370542,15732.30173968782
407.3839172,12136.417012313908
412.3896217,9473.228992128894
417.3876683,7836.937072465898
422.3780697,6648.631701532664
427.3608386,5838.212380769196
432.3359876,5457.979919903457
437.3035295,5069.784003296088
442.2634769,4887.7394845506315
447.2158423,4206.862470433992
452.1606383,3933.009632725664
457.0978776,3757.8944711943614
462.0275727,3452.8105936200327
466.9497361,3597.9547790077186
471.8643802,3380.1135708833317
476.7715176,3366.2018414091235
481.6711608,3368.499802593367
486.5633221,3356.628384225669
491.448014,3030.740033873276
496.3252488,2956.9537730958077
501.195039,2667.723896790197
506.0573969,2186.944755362821
510.9123349,2122.955524990599
515.7598651,1711.9728847151919
520.6,1737.3188516425253
525.4327518,1579.7484698077096
530.2581327,1371.890628101316
535.076155,1125.795620700248
539.8868309,1094.4146379637777
544.6901726,909.4322971097308
549.4861922,495.128519403921
554.2749019,703.0125415675739
559.0563139,307.4123070095693
563.8304402,21.176101871560604
568.597293,248.44160764767003
573.3568844,185.13590893438777
578.1092263,67.70678166635662
582.8543308,201.29799995601297
587.5922101,193.4292164994904
592.322876,-36.01318853326484
597.0463405,154.25704714858148
601.7626157,184.80612864389332
606.4717135,31.65365596954416
611.1736458,-113.93922509190634
615.8684246,41.79021830652846
620.5560617,172.30103197568133
625.2365691,56.48740170795372
629.9099585,208.00525404837845
634.5762419,414.6453927880989
639.2354312,236.33575501782707
643.887538,151.85627766215975
648.5325743,57.38468343944487
653.1705518,114.11947475394936
657.8014823,138.28291944054354
662.4253775,-102.3616408785715
667.0422493,-25.181773497545237
671.6521092,-25.654931822584786
676.2549691,24.201255166329247
680.8508407,-47.65099533218063
685.4397355,-27.652811654461857
690.0216654,29.13747155449437
694.5966419,52.447771427331645
699.1646767,465.92866836823123
703.7257814,655.0447406885005
708.2799676,562.710003233627
712.827247,396.6950720183381
717.367631,199.94031152723664
721.9011314,306.5392909170264
726.4277595,-11.562545713502232
730.9475271,74.04591801650031
735.4604456,-55.20046188132528
739.9665264,385.48611340326215
744.4657813,97.2856127432567
748.9582215,78.29781269792397
753.4438587,9.477097116345476
757.9227042,132.4616590138935
762.3947696,206.3293507630949
766.8600662,-45.06660797550239
771.3186056,622.9722197362787
775.770399,240.60303921562422
780.215458,634.7181816400306
784.6537939,505.6910838093901
789.0854181,580.4775980011775
793.510342,904.987943051135
797.9285769,1238.854581056331
802.3401342,1272.1017258247803
806.7450253,953.288037458164
811.1432614,782.0527151368976
815.5348538,669.7478396857839
819.9198139,596.0916926377879
824.2981531,493.7259609111934
828.6698824,365.15563849034123
833.0350133,160.11299793484926
837.393557,-8.830660642478932
841.7455248,30.725343702079446
846.0909278,-21.064092436612412
850.4297774,-2.2006641036370027
854.7620848,-17.741204131763254
859.0878611,-76.96758990074795
863.4071176,-1.1419787590299677
867.7198655,105.48229146811502
872.026116,268.1179496727684
876.3258802,356.1277105445576
880.6191693,403.0289719637077
884.9059946,413.2477104061603
889.186367,351.1740576600109
893.4602979,64.67752493379777
897.7277982,-104.79280133814098
901.9888793,112.38400196626492
906.2435521,206.53991553177275
910.4918277,-23.247591099097235
914.7337174,57.64479840451577
918.9692321,-71.90321460931841
923.1983831,171.60330159100977
927.4211813,70.55542340898364
931.6376378,93.11781733375688
935.8477637,20.502928369586925
940.0515701,62.71561242288544
944.249068,117.41422152855012
948.4402684,-164.41565333039375
952.6251825,73.22144094053715
956.8038212,59.48188900571131
960.9761955,280.20564753318786
965.1423166,12.705902635748998
969.3021953,69.99560408946286
973.4558427,128.6057090398915
977.6032699,62.103279303368936
981.7444877,115.58535895710725
985.8795072,69.7271468396068
990.0083394,-9.773582369655287
994.1309953,-83.31985621325157
998.2474857,297.7940522518302
1002.357822,166.13415257728934
1006.462014,363.3865423707274
1010.560075,124.55246943017119
1014.652013,-130.27854067569592
1018.737841,43.987136435458865
1022.81757,-6.578641090801511
1026.891209,10.945296534241038
1030.958771,-6.115849905986352
1035.020266,125.58940963843907
1039.075705,-75.85982035537796
1043.1251,-69.50648459301897
1047.16846,52.205428144248515
1051.205797,70.81805864421034
1055.237121,262.2829466276603
1059.262444,963.6906183857735
1063.281777,2088.4816710153714
1067.295131,4184.391282063186
1071.302515,7528.805755318142
1075.303942,9601.151048866326
1079.299422,9461.942952265097
1083.288966,6605.876364430774
1087.272585,3258.209177719181
1091.250289,1348.1468711538869
1095.222091,664.7922546542185
1099.187999,198.57125999572887
1103.148026,278.6046463360018
1107.102183,65.98666040821621
1111.050479,-10.915160064719124
1114.992927,189.39773924458655
1118.929536,-50.897856704254345
1122.860318,521.7676227888603
1126.785283,566.0628696702196
1130.704443,1282.5975986174462
1134.617808,2056.983640393758
1138.52539,2125.77733556675
1142.427198,1944.2065206463217
1146.323244,1331.3884806523572
1150.213538,717.4623580094385
1154.098093,840.464298178126
1157.976917,688.8442376559897
1161.850023,802.0771015236185
1165.717421,1146.406664861935
1169.579121,1346.8732568871271
1173.435135,1786.9652212110893
1177.285474,1974.669797978454
1181.130148,2263.326424131106
1184.969169,2181.048124587807
1188.802547,1347.5127220395327
1192.630292,814.9604357088875
1196.452416,364.9527435190082
1200.26893,281.3718160804894
1204.079844,-48.859212830252844
1207.88517,2.6269178186255218
1211.684917,61.67739265216665
1215.479098,4.012854044463829
1219.267722,481.93991995131734
1223.050801,-33.31183450150308
1226.828346,2.686529794782736
1230.600366,170.5707603299377
1234.366874,281.34594867920714
1238.12788,363.2856051132329
1241.883395,352.07484049587794
1245.633429,492.2491522829582
1249.377994,661.7743459807859
1253.1171,188.57058139667015
1256.850759,203.39430382901946
1260.578981,52.51325557694528
1264.301776,47.79817547068896
1268.019157,74.95833868679057
1271.731133,-51.300405883332665
1275.437715,-128.8724580178096
1279.138915,4.320367679791705
1282.834743,292.9486446606423
1286.52521,100.87991249961452
1290.210328,128.2251236972972
1293.890106,23.232404956683474
1297.564555,229.49046538906575
1301.233688,-11.107126783278309
1304.897514,136.5595671359374
1308.556044,120.89135077692038
1312.209289,167.4691088051631
1315.857261,-59.51760890187744
1319.499969,-9.974996290271733
1323.137425,171.54985511339248
1326.769641,45.15326977430968
1330.396626,251.78077524077054
1334.018391,219.72530469972452
1337.634948,342.9894677944277
1341.246307,272.4062819491493
1344.85248,212.5704418270026
1348.453477,179.66387125643433
1352.049309,8.01592194064142
1355.639987,-0.11102563268121912
1359.225522,231.66130354471466
1362.805925,178.99747816799024
1366.381207,68.79614837975538
1369.951379,229.23217501253237
1373.516452,238.54965167648803
1377.076436,494.7989872665363
1380.631343,647.2695153752812
1384.181184,870.4719404475891
1387.725969,946.0210972196478
1391.26571,635.6050645182002
1394.800417,413.327910414052
1398.330102,214.11880177505083
1401.854776,352.94351316143474
1405.374448,35.53754202022814
1408.889132,-42.08721157560637
1412.398837,-82.93302217853635
1415.903574,273.4732901914964
1419.403355,815.2595590019297
1422.89819,1054.1759001703665
1426.388091,1289.7631650689236
1429.873069,1327.7595498088463
1433.353134,788.6848213239584
1436.828298,555.5498399762882
1440.298571,458.3042099473102
1443.763965,114.77407148990315
1447.224491,62.17283708576625
1450.68016,-34.21495960027227
1454.130983,158.7101882708259
1457.576971,41.9603595322498
1461.018135,255.63492468202242
1464.454486,259.3782118184399
1467.886036,100.42101112638218
1471.312794,-16.219431553283126
1474.734774,-27.912618470977122
1478.151985,154.50358593977705
1481.564439,22.761336794376952
1484.972146,133.98652005487946
1488.375119,18.081134057818918
1491.773368,129.30657930308786
1495.166904,218.04816583448496
1498.555739,6.828227946393547
1501.939883,9.079484306547862
1505.319349,-76.4573126020092
1508.694146,21.1990852202697
1512.064286,176.32536430275167
1515.429781,254.65815370474883
1518.790642,191.68723228107942
1522.146879,257.2668202520697
1525.498505,53.337864813594194
1528.845529,-54.5270554029601
1532.187965,331.90322975890854
1535.525822,256.7731870745711
1538.859112,423.7540190875373
1542.187846,465.2270564692334
1545.512036,450.55926420085575
1548.831693,819.9808647511478
1552.146829,858.4725588388076
1555.457453,734.8271898768894
1558.763579,918.1941120557469
1562.065216,1389.0990890563157
1565.362377,1849.040476355716
1568.655073,2212.345838739943
1571.943315,2564.784438140586
1575.227114,2777.896621814921
1578.506482,3344.019061067084
1581.781431,3888.0690655177095
1585.051971,4035.9738575085985
1588.318114,3962.079732873701
1591.579872,3286.995865583039
1594.837255,2128.070244116288
1598.090275,1333.2255181323303
1601.338945,702.5020719682985
1604.583274,607.2638774852882
1607.823275,285.03632308724895
1611.058959,35.039006182590754
1614.290338,578.0294759628048
1617.517422,-53.91885429390766
1620.740224,71.91288646333425
1623.958755,133.70866419073832
1627.173027,47.47501200364417
1630.38305,-41.6507897311094
1633.588838,135.35928511505577
1636.7904,24.4827848670038
1639.987749,195.4305586952071
1643.180896,156.9312355850414
1646.369853,-116.19181511679264
1649.554632,343.35340391492156
1652.735244,64.87714611494945
1655.9117,-39.81613761893764
1659.084013,27.020872664067014
1662.252193,246.79045777024774
1665.416254,-67.25417472947464
1668.576205,43.911267956784556
1671.732059,153.43945963741456
1674.883828,124.10715553300997
1678.031523,22.147418876773482
1681.175157,105.97505050218072
1684.314739,14.476478250423062
1687.450284,7.278883717384922
1690.581801,71.64823501419463
1693.709304,-120.07306592384762
1696.832803,-11.893787511725165
1699.952311,5.219654308599459
1703.067839,128.83427160947053
1706.179399,34.343392865627195
1709.287003,193.86388443848278
1712.390663,47.409637643451745
1715.49039,123.6010335904652
1718.586197,176.46760474146657
1721.678095,114.535139317471
1724.766096,-12.067650331619582
1727.850213,-174.27983867419326
1730.930456,72.16986265988052
1734.006838,24.59468312343388
1737.079372,-30.372035544494647
1740.148067,-23.251098017470593
1743.212938,287.91925009231306
1746.273996,53.346677203297276
1749.331252,65.8167536307235
1752.384718,-15.24539248511238
1755.434408,16.23448040171423
1758.480332,55.00173795040276
1761.522503,35.37658900321621
1764.560933,-28.300075029707305
1767.595634,-169.7208152374682
1770.626618,125.09652371867888
1773.653896,72.51956263250867
1776.677482,-15.8874694627163
1779.697388,28.914479780370225
1782.713625,143.24896295277142
1785.726205,163.41361994442357
1788.735141,226.17423999092406
1791.740445,56.46897778868083
1794.742129,-48.151569839706966
1797.740206,188.078409740887
1800.734687,295.74489285105716
1803.725585,210.00387344928959
1806.712912,183.25482512103812
1809.69668,145.1297813411277
1812.676902,18.772626188534215
1815.65359,-41.794269048630674
1818.626756,-74.79943784792819
1821.596413,59.8880054060407
1824.562573,-51.91885325487617
1827.525247,67.64464285693418
1830.48445,-6.6901533464819405
1833.440192,-4.0990823944550865
1836.392487,22.5250811235079
1839.341347,-25.908637711775434
1842.286784,31.819720381863046
1845.22881,-62.252295279505034
1848.167439,56.964080923254116
1851.102682,77.30215946215652
1854.034553,-29.580596841155025
1856.963063,-65.98900082797546
1859.888226,273.15985951237576
1862.810053,75.10556171492242
1865.728557,117.12845795529472
1868.643751,-50.69416094857997
1871.555648,-8.069296658855407
1874.46426,-35.9774990476358
1877.369599,140.18192192634336
1880.271679,55.365606851787405
1883.170512,-13.508121024800637
1886.06611,111.88611725356142
1888.958487,14.687454343570874
1891.847655,-39.009914306486024
1894.733626,53.06798824326273
1897.616414,-4.290780254855598
1900.496032,-126.58137928022772
1903.372491,94.30121723368585
1906.245805,69.56797852184411
1909.115987,151.2687118285413
1911.983049,17.92969068558338
1914.847004,-71.6441626546575
1917.707866,63.154400435423106
1920.565646,40.46850131852733
1923.420359,32.200833308115506
1926.272016,50.06655617935776
1929.120631,-85.31909973453169
1931.966216,-65.27061672855501
1934.808786,-27.605269336388794
1937.648351,18.589804907647633
1940.484927,-5.580736306486656
1943.318525,69.30598364113608
1946.149158,108.63477092346524
1948.97684,508.8159814689986
1951.801584,185.64887834689387
1954.623403,56.45840369737889
1957.44231,195.1175379582841
1960.258318,-56.48195185223631
1963.071439,-23.747334638890713
1965.881688,161.6417086054394
1968.689078,204.46933675035083
1971.493621,11.0263492511306
