Raman shift cm-1,4ATP_10nM_rep3_acc3_processed_intensity
-93.47115107,656.7307829405021
-87.69374369,187.51726319770154
-81.9253076,-10.347956883604539
-76.16582701,111.84708226620978
-70.41528615,137.47356956399454
-64.67366933,7.649880990544119
-58.94096086,-20.30205405865354
-53.21714512,7.839996227337732
-47.50220652,82.44295921975663
-41.79612954,183.67159682975654
-36.09889866,211.45179707206572
-30.41049843,191.62392181326658
-24.73091343,145.33924614321472
-19.0601283,107.97806619046472
-13.39812769,28.448454657789668
-7.744896327,-60.25141035694909
-2.100418946,42.505120441502775
3.535319659,124.45295258684425
9.162334658,27.873615734366332
14.78064118,-5.054611802515666
20.39025432,-0.03578812987543856
25.99118913,43.160336988931874
31.58346061,159.6516069041582
37.16708375,147.70042834239177
42.74207347,90.97049822568928
48.30844468,92.53442572607916
53.86621222,14.797109969116548
59.41539093,-89.5690215935668
64.95599558,-40.844810392489386
70.48804091,115.3201859018385
76.01154164,116.7602333477105
81.52651243,24.891697614208745
87.03296792,129.58223633804621
92.5309227,203.22208577305764
98.02039134,45.21608713649544
103.5013884,2.6516253730176373
108.9739282,109.3290892239086
114.4380255,143.23228528177407
119.8936944,275.6134922501341
125.3409495,404.67969373479957
130.779805,157.39578823441417
136.2102753,-66.7217169873901
141.6323747,116.51415171463863
147.0461174,218.3830451909658
152.4515176,86.44738367612307
157.8485895,35.80164149464126
163.2373472,25.090958415436734
168.6178049,78.03341959873948
173.9899766,195.34171572046702
179.3538764,163.53422718589945
184.7095182,147.4210965847915
190.0569161,223.43664605143135
195.396084,146.1642065092373
200.7270358,4.109896861948624
206.0497854,-42.79349601098055
211.3643466,4.729961442109115
216.6707333,44.28387114850484
221.9689593,-19.77276019247234
227.2590382,4.720564652414165
232.5409839,49.021523798317766
237.8148101,-38.48328961788601
243.0805303,-31.411545545585618
248.3381582,5.792682282193191
253.5877075,10.666184963587746
258.8291917,83.12282901724072
264.0626244,67.61067753919629
269.288019,53.69967085414383
274.5053891,99.61377071459407
279.7147481,-2.4625088793434706
284.9161094,-79.09342724532837
290.1094865,-27.538708219799787
295.2948927,38.253269479678366
300.4723414,241.7303934218598
305.6418459,495.9845617232052
310.8034194,738.5868284611624
315.9570752,1082.3333321580683
321.1028267,1225.2158508370217
326.2406869,1092.7414164366162
331.370669,1103.9106595256262
336.4927863,1231.9272048222047
341.6070517,1250.1386916732276
346.7134786,1368.4433666466855
351.8120798,1497.906366609495
356.9028684,1368.1324028326271
361.9858576,1306.2171146316916
367.0610602,1399.9010137967455
372.1284892,1502.2121237761523
377.1881577,1985.738255127123
382.2400784,3130.5789093698286
387.2842644,4490.409579632563
392.3207284,5105.908747629807
397.3494833,4621.164191528829
402.370542,3566.9250013723467
407.3839172,2423.3495928439715
412.3896217,1446.4254114908804
417.3876683,809.1967314953501
422.3780697,487.5958945748062
427.3608386,287.9774681501426
432.3359876,215.69071255387462
437.3035295,295.42966812335396
442.2634769,190.21487295460446
447.2158423,13.230424016857512
452.1606383,39.94795885617816
457.0978776,-7.599674952731448
462.0275727,-61.50136352357674
466.9497361,39.29702890457747
471.8643802,51.690515508392764
476.7715176,-32.597186374291084
481.6711608,-50.00800357794094
486.5633221,23.51092203861498
491.448014,39.309507193593674
496.3252488,-28.60517758752323
501.195039,15.864895656840389
506.0573969,104.68813291055616
510.9123349,43.24664652800763
515.7598651,-51.463477727223676
520.6,23.92184093781745
525.4327518,162.61950713246404
530.2581327,91.05568740323217
535.076155,-24.647717577660252
539.8868309,77.4373693794059
544.6901726,143.21901203957643
549.4861922,215.3341515844302
554.2749019,315.1956168054548
559.0563139,37.341863065584505
563.8304402,-103.7068175773239
568.597293,188.23584260312995
573.3568844,151.3446716725017
578.1092263,-75.90038703664798
582.8543308,18.120794286995114
587.5922101,115.64232126073247
592.322876,44.45392115725652
597.0463405,28.55979695656875
601.7626157,66.85536894959591
606.4717135,23.692194482564027
611.1736458,19.068894569340166
615.8684246,82.47522753148385
620.5560617,17.21992359755906
625.2365691,3.414575361470888
629.9099585,153.79905835222598
634.5762419,202.0688459496247
639.2354312,199.526379938654
643.887538,155.76474444772296
648.5325743,38.73411623643811
653.1705518,91.67132207072574
657.8014823,75.54419721039253
662.4253775,-87.69654920831923
667.0422493,-5.441198958083042
671.6521092,131.8947287609508
676.2549691,119.35544383229671
680.8508407,79.08650328215721
685.4397355,9.73225212036693
690.0216654,-6.6838268291412675
694.5966419,93.19236729858544
699.1646767,236.11349840388255
703.7257814,310.2640142345273
708.2799676,285.7456215620806
712.827247,254.59720411416268
717.367631,159.60729968714932
721.9011314,13.800649897701494
726.4277595,23.31376569747775
730.9475271,134.72562158099385
735.4604456,234.64011163922518
739.9665264,282.5638295616136
744.4657813,204.97732384879038
748.9582215,92.32410903059284
753.4438587,3.05635548433823
757.9227042,-54.08247474489876
762.3947696,16.00979982503565
766.8600662,220.16643919797485
771.3186056,296.80154872565225
775.770399,178.14837754186925
780.215458,140.6415160265232
784.6537939,40.22774319519473
789.0854181,-60.649370547659004
793.510342,153.76140072335258
797.9285769,310.7120288965434
802.3401342,298.9291560626381
806.7450253,305.7968247005281
811.1432614,180.22803491466496
815.5348538,46.04521587808094
819.9198139,49.25944956670959
824.2981531,77.1596421551262
828.6698824,79.63618092625066
833.0350133,26.180005513887274
837.393557,-11.043011730472184
841.7455248,3.6493941426162593
846.0909278,-3.2034001228023214
850.4297774,-8.702009507291194
854.7620848,-32.25362417411257
859.0878611,-53.74279840494623
863.4071176,3.342934787734393
867.7198655,126.13290895935617
872.026116,278.9239395653042
876.3258802,278.83222399763065
880.6191693,165.534904423252
884.9059946,238.47318513142798
889.186367,275.5441991207407
893.4602979,49.34053903885428
897.7277982,-73.01080135026228
901.9888793,134.95417006627838
906.2435521,337.2585521874435
910.4918277,176.61188488766146
914.7337174,-16.678607214389757
918.9692321,83.0200314217208
923.1983831,172.5438137097671
927.4211813,176.10165043259303
931.6376378,121.70698592412106
935.8477637,45.10581413665841
940.0515701,133.7913463578612
944.249068,121.05596204658207
948.4402684,-6.610918752268162
952.6251825,-23.81838431555667
956.8038212,5.430927320987905
960.9761955,124.22809463050459
965.1423166,123.24057315402973
969.3021953,23.722064386210263
973.4558427,70.88549413600765
977.6032699,43.72035844804401
981.7444877,18.69130065943392
985.8795072,63.84950600859759
990.0083394,5.934030850280976
994.1309953,34.9920725026866
998.2474857,71.42751272031325
1002.357822,-4.243196973047986
1006.462014,-15.512561948736902
1010.560075,-41.35594431306157
1014.652013,10.192127725097578
1018.737841,143.51512795110781
1022.81757,41.77688693052971
1026.891209,-98.61429629805366
1030.958771,21.420518591834153
1035.020266,174.48586140985674
1039.075705,74.26793573957889
1043.1251,-30.137710642145525
1047.16846,124.64020897556941
1051.205797,160.41896296953936
1055.237121,15.661972687888612
1059.262444,5.554377946992426
1063.281777,202.37132744110076
1067.295131,854.1448951070892
1071.302515,1828.4179687565852
1075.303942,2600.0324658362065
1079.299422,2811.942084644248
1083.288966,2157.240152138597
1087.272585,1140.7684472805927
1091.250289,515.0818946945662
1095.222091,187.65545454145342
1099.187999,74.42204725660355
1103.148026,144.4301287656683
1107.102183,120.76503504835586
1111.050479,31.30275583331512
1114.992927,-49.202792129357924
1118.929536,-56.379107189835395
1122.860318,52.07690942424286
1126.785283,32.98752937600145
1130.704443,112.48721055944807
1134.617808,463.5540052914142
1138.52539,567.9916144160748
1142.427198,402.52800548710684
1146.323244,266.3636279816959
1150.213538,270.84186871924345
1154.098093,379.9563715492893
1157.976917,324.0931280888719
1161.850023,271.1573098080967
1165.717421,448.88738149600647
1169.579121,687.8192207686343
1173.435135,811.6147964879859
1177.285474,780.7842138423496
1181.130148,815.7679095588524
1184.969169,809.709541577175
1188.802547,536.1570300859735
1192.630292,290.1872881590233
1196.452416,223.15701225574432
1200.26893,166.48174778438744
1204.079844,89.37595865510013
1207.88517,15.63926427035048
1211.684917,-36.55030379682279
1215.479098,146.79133774913174
1219.267722,337.5779618082423
1223.050801,140.417982377612
1226.828346,25.40089413874265
1230.600366,209.34847816458162
1234.366874,297.17484823389134
1238.12788,242.20828695837736
1241.883395,285.3866760082688
1245.633429,494.34970658727605
1249.377994,536.0393251481476
1253.1171,415.75871441052055
1256.850759,391.00260082521277
1260.578981,339.22514154697274
1264.301776,271.90899198030047
1268.019157,169.72297258221138
1271.731133,-7.6344688628218265
1275.437715,-29.862063573282654
1279.138915,66.03831548424307
1282.834743,96.47067682724307
1286.52521,35.14678333512884
1290.210328,-33.34554579433984
1293.890106,-11.760930482741273
1297.564555,4.55135576118192
1301.233688,3.2599910605953255
1304.897514,41.573099196752594
1308.556044,44.534666205966346
1312.209289,-25.088409025103427
1315.857261,-84.57968922642073
1319.499969,49.1249890367574
1323.137425,178.94296924439334
1326.769641,107.89702307800852
1330.396626,109.71924320258145
1334.018391,155.01089544400526
1337.634948,145.46771627575856
1341.246307,142.39788563025374
1344.85248,100.51509329992845
1348.453477,41.901331178066286
1352.049309,-44.663341394354596
1355.639987,-0.32220902120491957
1359.225522,116.78825878552016
1362.805925,24.185886700735956
1366.381207,6.546612320930701
1369.951379,118.45802241440484
1373.516452,150.32849907022026
1377.076436,247.82940894481936
1380.631343,298.67467638385637
1384.181184,253.0245270190731
1387.725969,282.8055540789834
1391.26571,285.8567233710931
1394.800417,263.9466769166245
1398.330102,305.7348596369411
1401.854776,300.2764282784684
1405.374448,194.39843792109252
1408.889132,24.381006780575845
1412.398837,-78.86552417540356
1415.903574,103.73374526918386
1419.403355,328.50899403834023
1422.89819,282.828170416512
1426.388091,311.2224699313963
1429.873069,451.17402487037754
1433.353134,331.99365598715167
1436.828298,182.38004099583964
1440.298571,226.02776911119037
1443.763965,144.82858048276688
1447.224491,-10.810774548272953
1450.68016,47.88449884690045
1454.130983,27.47213071415023
1457.576971,-18.458472321587905
1461.018135,166.7946091772593
1464.454486,149.6123334236312
1467.886036,-23.663374394726635
1471.312794,-4.82628264755747
1474.734774,68.07904959823561
1478.151985,118.34130999187009
1481.564439,127.22331584960082
1484.972146,49.517033173090056
1488.375119,-36.58826549848675
1491.773368,35.07294804339145
1495.166904,104.57549306788083
1498.555739,-1.886575794748893
1501.939883,-38.683514321739835
1505.319349,-16.70543945908807
1508.694146,35.41148998496623
1512.064286,110.02583050827258
1515.429781,13.650455941505882
1518.790642,10.334228227193588
1522.146879,84.7614954877801
1525.498505,-38.1065289902984
1528.845529,-14.444603614444215
1532.187965,69.16512434437702
1535.525822,-4.851282881725348
1538.859112,123.41219866740916
1542.187846,224.6193595362111
1545.512036,181.98742499697593
1548.831693,337.03587504260776
1552.146829,298.25302425592304
1555.457453,3.713530124466729
1558.763579,21.893316630361824
1562.065216,311.5660563066873
1565.362377,563.8836913162911
1568.655073,722.3989452310977
1571.943315,765.792004330023
1575.227114,745.5752313145224
1578.506482,941.3161788316759
1581.781431,1282.357450594116
1585.051971,1391.1529572700342
1588.318114,1400.663386825975
1591.579872,1367.4650051468918
1594.837255,1046.8639515076054
1598.090275,577.5029884993517
1601.338945,366.72246819457393
1604.583274,303.9313837861963
1607.823275,7.07000931274812
1611.058959,74.62848277081585
1614.290338,395.72603931867576
1617.517422,51.1763031768822
1620.740224,-119.51043829959997
1623.958755,156.09367303000275
1627.173027,51.242744347158464
1630.38305,2.6481116227101538
1633.588838,73.7878254337777
1636.7904,43.54017488186742
1639.987749,202.98117242543557
1643.180896,111.00887598889132
1646.369853,-43.66596058833163
1649.554632,243.31488613307448
1652.735244,228.5130746042162
1655.9117,-33.49917031215724
1659.084013,123.93667341595722
1662.252193,213.10257372993684
1665.416254,4.444614849380828
1668.576205,12.190237800931444
1671.732059,174.63070053085133
1674.883828,106.48541784014566
1678.031523,-12.359504062208424
1681.175157,23.208107399304236
1684.314739,33.483748341936135
1687.450284,45.96358469370286
1690.581801,84.34796344599621
1693.709304,-19.540443865611113
1696.832803,-75.23159132060842
1699.952311,53.51321398790624
1703.067839,136.282529947956
1706.179399,166.31531149965048
1709.287003,175.16628377951957
1712.390663,102.51169532756762
1715.49039,127.44219280856183
1718.586197,204.5732183784088
1721.678095,100.71148379691238
1724.766096,-41.022590501971976
1727.850213,-67.78762131258128
1730.930456,-28.50814274326101
1734.006838,31.684148794755536
1737.079372,34.97263018551108
1740.148067,69.35282956817522
1743.212938,169.337837749316
1746.273996,122.38548950280051
1749.331252,27.481420302838718
1752.384718,39.97364677193779
1755.434408,48.323769243468654
1758.480332,70.42778003577018
1761.522503,83.13581068601798
1764.560933,-22.62174270163065
1767.595634,-55.589064767466375
1770.626618,132.7837654360253
1773.653896,207.67623251313827
1776.677482,13.653401742869873
1779.697388,-55.92088332321871
1782.713625,112.6803555013544
1785.726205,248.98853768993186
1788.735141,208.85693480611877
1791.740445,41.5475420326249
1794.742129,35.325198233553614
1797.740206,194.2496366701599
1800.734687,182.65978660431264
1803.725585,119.80463684924067
1806.712912,143.88581474702556
1809.69668,92.59604741058538
1812.676902,-10.130701447189656
1815.65359,-60.03381442910518
1818.626756,-10.733214265049309
1821.596413,20.02859311183468
1824.562573,-6.3663944006732915
1827.525247,52.31339272178525
1830.48445,85.00084730368931
1833.440192,13.978498994075762
1836.392487,-40.679349274774076
1839.341347,6.138045875376655
1842.286784,45.25033601967295
1845.22881,-34.187946225192945
1848.167439,23.86246165946488
1851.102682,93.01522443785315
1854.034553,-62.259992893317275
1856.963063,24.33785307832327
1859.888226,240.6702465618059
1862.810053,89.6013330781252
1865.728557,-34.0044874404051
1868.643751,52.33125009748953
1871.555648,-7.73686861798501
1874.46426,-38.37711490996
1877.369599,81.79122776137879
1880.271679,46.934764762580485
1883.170512,2.247341194111385
1886.06611,99.6281222645326
1888.958487,63.097653195663625
1891.847655,-3.9091161840007356
1894.733626,37.79107627149097
1897.616414,-21.978706666182468
1900.496032,-62.90843140322448
1903.372491,21.70216913021259
1906.245805,71.97400953888365
1909.115987,107.71201367807039
1911.983049,89.90378468751766
1914.847004,53.00520550387316
1917.707866,120.56494660998183
1920.565646,92.30607455346527
1923.420359,-31.06835979138084
1926.272016,-28.32449861426161
1929.120631,10.25786164477422
1931.966216,-2.181876874424063
1934.808786,-7.919299629169455
1937.648351,68.11633269587514
1940.484927,128.34445870252034
1943.318525,49.575476473186164
1946.149158,216.48367523154073
1948.97684,488.23129417035193
1951.801584,296.3451652548559
1954.623403,120.94021993625238
1957.44231,141.8818472686113
1960.258318,-31.123401358003623
1963.071439,-76.72320453865775
1965.881688,47.353494723932606
1968.689078,33.816760495944074
1971.493621,-0.5433932083603454
