Raman shift cm-1,4ATP_1nM_rep1_acc3_processed_intensity
-93.47115107,406.1229188714294
-87.69374369,24.805386736333652
-81.9253076,-57.32062723868558
-76.16582701,23.725548843685925
-70.41528615,59.282914223373425
-64.67366933,1.2635987951641976
-58.94096086,-44.93324132288391
-53.21714512,-28.33590291220476
-47.50220652,-16.411839566290887
-41.79612954,83.03143163622335
-36.09889866,249.6070767955502
-30.41049843,194.296073960369
-24.73091343,11.300119431798564
-19.0601283,34.16765283585525
-13.39812769,58.46654150882729
-7.744896327,-64.57010207123173
-2.100418946,-7.727017823539001
3.535319659,126.22508389034157
9.162334658,96.41178302833475
14.78064118,30.35999602745673
20.39025432,-29.014688506920294
25.99118913,25.328162603051908
31.58346061,156.14512810516177
37.16708375,125.44898172316908
42.74207347,9.86275266587765
48.30844468,-15.589493134584956
53.86621222,54.97121273838846
59.41539093,-4.349105899379083
64.95599558,-91.97428989337166
70.48804091,98.00397961812939
76.01154164,141.72763010663473
81.52651243,7.20797128461092
87.03296792,164.84484306415652
92.5309227,200.7804691973928
98.02039134,-1.7348256324839895
103.5013884,50.93301338225268
108.9739282,104.63393388545529
114.4380255,5.454573929964113
119.8936944,167.05862445997064
125.3409495,368.5663000403693
130.779805,150.55828920639493
136.2102753,-115.02615356639285
141.6323747,25.241505018749024
147.0461174,170.23247881513203
152.4515176,15.815886972663748
157.8485895,-56.20314781775767
163.2373472,0.9648920440481561
168.6178049,28.82025873663224
173.9899766,95.5264119470994
179.3538764,81.64837244399996
184.7095182,39.94996978537779
190.0569161,108.13525673844379
195.396084,106.95981103101781
200.7270358,7.101260899595104
206.0497854,-47.9855228337417
211.3643466,1.3812130768789075
216.6707333,56.86885432465897
221.9689593,15.047399545042367
227.2590382,57.867367766559255
232.5409839,184.03878869785046
237.8148101,213.1772154767898
243.0805303,246.00984906114581
248.3381582,343.3795866222065
253.5877075,461.74258820123043
258.8291917,522.3209407239716
264.0626244,563.5944311672273
269.288019,763.1229036179484
274.5053891,906.3162282657318
279.7147481,830.3046131402104
284.9161094,822.2474603598373
290.1094865,893.040825531154
295.2948927,831.5872475101717
300.4723414,590.9652092693892
305.6418459,173.8097633705987
310.8034194,-99.91975283718756
315.9570752,-25.055073537582963
321.1028267,25.920020780830054
326.2406869,6.602584145870235
331.370669,98.36079976464225
336.4927863,54.827831954438594
341.6070517,-82.28890952361193
346.7134786,35.59848916912773
351.8120798,121.38269076651025
356.9028684,-5.422734930430892
361.9858576,94.90197847557454
367.0610602,229.01367571038372
372.1284892,208.43302288180675
377.1881577,366.4164593598881
382.2400784,653.3221705905329
387.2842644,1068.440390497971
392.3207284,1298.125720698022
397.3494833,1048.6997369366982
402.370542,802.492560564722
407.3839172,523.281833155622
412.3896217,147.6032396122403
417.3876683,20.82278740389997
422.3780697,-2.9463421727728836
427.3608386,35.28841746562446
432.3359876,139.71158447608835
437.3035295,149.99133835065368
442.2634769,82.93962142331635
447.2158423,-30.42367832082512
452.1606383,-37.05772938795569
457.0978776,21.527189977602582
462.0275727,8.639491225263285
466.9497361,21.85174300011844
471.8643802,-1.0404470601470308
476.7715176,-35.84008171378081
481.6711608,35.84529067245248
486.5633221,97.83733669706766
491.448014,50.942871815570015
496.3252488,-59.31744519580975
501.195039,-68.50400416998085
506.0573969,52.541680019629226
510.9123349,44.182537992438
515.7598651,-63.84769948669311
520.6,28.440655677967367
525.4327518,145.4708787659783
530.2581327,28.826799428277596
535.076155,-2.454043561531082
539.8868309,149.69426413732427
544.6901726,113.55231331445066
549.4861922,155.26608521812202
554.2749019,339.3229844070443
559.0563139,61.602773043440614
563.8304402,-122.23326228394576
568.597293,217.78370993568325
573.3568844,236.88604903543097
578.1092263,18.479957048954457
582.8543308,105.5921487759637
587.5922101,147.3564698398177
592.322876,11.60862029345723
597.0463405,-14.72220212648753
601.7626157,18.80363007938432
606.4717135,-11.25192782983531
611.1736458,10.942475292189446
615.8684246,124.0864122848193
620.5560617,134.81122112646815
625.2365691,17.28177273860114
629.9099585,16.057558927224573
634.5762419,105.40633318025694
639.2354312,153.0952719916057
643.887538,122.39328173831099
648.5325743,-17.342265891397883
653.1705518,1.1954167369901605
657.8014823,106.14471400080916
662.4253775,-8.090316707796545
667.0422493,-52.578222290907306
671.6521092,77.87683530805279
676.2549691,97.8677092168079
680.8508407,37.252772704464874
685.4397355,15.358739656854318
690.0216654,-37.48003559298784
694.5966419,-46.58526535445228
699.1646767,39.73911878352529
703.7257814,51.85072565202362
708.2799676,37.386221075681384
712.827247,83.62501540276064
717.367631,48.93322331292127
721.9011314,-60.604072673893626
726.4277595,-66.03193601627302
730.9475271,19.82184139695107
735.4604456,81.31849363486026
739.9665264,114.02200402100702
744.4657813,95.60170337679618
748.9582215,18.084282775669223
753.4438587,-12.536579259396465
757.9227042,9.720939955418011
762.3947696,12.774239637835777
766.8600662,156.54410251033607
771.3186056,311.86993777446094
775.770399,201.6030707357365
780.215458,98.58569304758065
784.6537939,20.640268882304767
789.0854181,-108.1105996173921
793.510342,35.677798362094784
797.9285769,235.72107841574646
802.3401342,157.75610517239915
806.7450253,147.04492616187838
811.1432614,211.7233748289894
815.5348538,32.48378872111842
819.9198139,-77.496045816339
824.2981531,32.136666566682024
828.6698824,97.18119757628455
833.0350133,58.085981364230946
837.393557,-5.611403572648328
841.7455248,48.16902787351851
846.0909278,62.62033835834286
850.4297774,-50.211325820331986
854.7620848,-40.0307478401608
859.0878611,-12.364951044267539
863.4071176,-6.441864502141046
867.7198655,183.52743961694188
872.026116,395.90698296677385
876.3258802,343.06622932137407
880.6191693,177.18481157930773
884.9059946,249.83154062534092
889.186367,269.2649593347291
893.4602979,-8.395376891014418
897.7277982,-54.89854256641056
901.9888793,186.10966187453283
906.2435521,233.30070201312063
910.4918277,59.96981383840047
914.7337174,-47.57916680498207
918.9692321,40.25466224694837
923.1983831,146.10453433530938
927.4211813,128.54506597995768
931.6376378,97.23669309319615
935.8477637,153.96545684827817
940.0515701,175.12948339804151
944.249068,37.14864212984517
948.4402684,-52.96169531602986
952.6251825,-2.4277837296718943
956.8038212,83.8546647182893
960.9761955,115.86344212904274
965.1423166,16.549143549395687
969.3021953,-11.68162293920414
973.4558427,25.967844056546944
977.6032699,-18.486906629537998
981.7444877,12.448577629117416
985.8795072,39.05272051166937
990.0083394,41.65293486145515
994.1309953,79.15795313829095
998.2474857,-57.817791523059356
1002.357822,-84.47648504190151
1006.462014,95.62507266821324
1010.560075,29.59387286930106
1014.652013,-10.896831711783683
1018.737841,175.42469540690655
1022.81757,150.06686901591146
1026.891209,-18.790051647916954
1030.958771,59.81301893141669
1035.020266,202.1544526619913
1039.075705,59.915445221864516
1043.1251,0.05841393367313685
1047.16846,167.23045973866832
1051.205797,113.689491763451
1055.237121,25.378837176166734
1059.262444,-13.958969838219694
1063.281777,-108.55601453417489
1067.295131,143.50075151698843
1071.302515,456.2796334452953
1075.303942,585.8815972743689
1079.299422,765.5007150807635
1083.288966,683.0650069696626
1087.272585,443.9044034076522
1091.250289,245.557637515882
1095.222091,9.784831711484738
1099.187999,46.660972173710256
1103.148026,123.94875552724515
1107.102183,-23.97868338869501
1111.050479,9.806233584125067
1114.992927,96.31542003412919
1118.929536,-18.573388478578813
1122.860318,-28.500291013926535
1126.785283,-2.189958415933475
1130.704443,-39.76402824145035
1134.617808,55.783831386467625
1138.52539,144.65090200267346
1142.427198,139.08732719618286
1146.323244,43.22405750215944
1150.213538,-16.403175328772903
1154.098093,56.95965158345537
1157.976917,-14.189384203180296
1161.850023,-49.56966431664763
1165.717421,125.48003261019505
1169.579121,222.96239156220085
1173.435135,196.83796925027764
1177.285474,98.81027700958666
1181.130148,42.66384551717674
1184.969169,117.21157929222028
1188.802547,174.47498989480306
1192.630292,119.02668696920865
1196.452416,50.3468927000078
1200.26893,-11.316317935022035
1204.079844,-60.27772606071507
1207.88517,-40.559458920484545
1211.684917,-23.83941847718214
1215.479098,170.5398763455878
1219.267722,339.8163142440567
1223.050801,105.08141814566837
1226.828346,-3.772625233248931
1230.600366,148.69841661997344
1234.366874,172.71684630909738
1238.12788,53.96617426660506
1241.883395,-1.1032504031745631
1245.633429,157.76393607863304
1249.377994,151.9448251975259
1253.1171,-3.123951736554268
1256.850759,26.79677477318952
1260.578981,14.288475268700033
1264.301776,61.49649693330211
1268.019157,142.87142195586648
1271.731133,-35.91260382244333
1275.437715,-86.33676618214781
1279.138915,134.77126929228132
1282.834743,197.06285220863987
1286.52521,3.1125392315905387
1290.210328,-99.71933979264685
1293.890106,51.18631739148911
1297.564555,125.32808151351745
1301.233688,36.00737049570142
1304.897514,37.457936880488255
1308.556044,128.4364406166538
1312.209289,109.67638177460735
1315.857261,-18.91577765527701
1319.499969,39.728568360822464
1323.137425,167.72337844428344
1326.769641,162.81392566997346
1330.396626,205.12891036185758
1334.018391,152.43316548450457
1337.634948,44.41064274677664
1341.246307,41.75000613385492
1344.85248,-19.376815477479
1348.453477,-85.12821598165226
1352.049309,-109.46748661322076
1355.639987,-4.38944011651283
1359.225522,155.1399512491318
1362.805925,92.67961082971738
1366.381207,37.5907405016121
1369.951379,40.438140109208405
1373.516452,14.50510571223343
1377.076436,110.32582725707962
1380.631343,108.74175984529138
1384.181184,42.847101191734154
1387.725969,114.96525606268645
1391.26571,56.59629299094121
1394.800417,-56.91047212814256
1398.330102,63.40978873206006
1401.854776,159.04624617214603
1405.374448,53.98067536407579
1408.889132,-72.300753169664
1412.398837,-140.89194904794758
1415.903574,-22.367251738634415
1419.403355,123.26612668902649
1422.89819,61.56080753871293
1426.388091,103.26151256067948
1429.873069,149.6484836546652
1433.353134,31.027177494704915
1436.828298,41.15616811857819
1440.298571,44.365947912742804
1443.763965,-52.237403808324224
1447.224491,-72.68961461752654
1450.68016,-32.61190080471328
1454.130983,-11.88685491789549
1457.576971,11.712017659576588
1461.018135,105.74060740333466
1464.454486,118.54349346978141
1467.886036,52.548232587742746
1471.312794,26.892841450178608
1474.734774,-7.547844299203263
1478.151985,34.645324337929424
1481.564439,97.69404367361037
1484.972146,-11.7368543857948
1488.375119,-112.12490402893239
1491.773368,31.69249495631371
1495.166904,130.2554205991639
1498.555739,48.30752116725489
1501.939883,55.066178834148104
1505.319349,21.320275952884217
1508.694146,-27.062193319870588
1512.064286,78.99462923506107
1515.429781,29.137652197543787
1518.790642,-18.846685157497248
1522.146879,105.14233695766114
1525.498505,-12.537112695261598
1528.845529,-60.91620268896168
1532.187965,131.47905967949907
1535.525822,118.32400047785617
1538.859112,187.13532474278438
1542.187846,271.23761300713227
1545.512036,169.44867318112853
1548.831693,331.8151719743046
1552.146829,348.3695462458869
1555.457453,15.910736541424201
1558.763579,-1.2141267720240911
1562.065216,218.51424569568428
1565.362377,342.4960997645938
1568.655073,400.48068397093647
1571.943315,355.71672952316766
1575.227114,264.7932393270694
1578.506482,362.56058197124173
1581.781431,512.8140675844818
1585.051971,463.6190401988804
1588.318114,462.6851037806347
1591.579872,528.3091141206027
1594.837255,410.9451570829751
1598.090275,223.06883744291855
1601.338945,243.11774555429994
1604.583274,280.4571120316223
1607.823275,30.14207409265302
1611.058959,148.892121402703
1614.290338,418.6953317158806
1617.517422,10.969101782813992
1620.740224,-102.4125575734049
1623.958755,176.90541424454662
1627.173027,60.96778079184608
1630.38305,85.56123484233729
1633.588838,137.89936568430798
1636.7904,24.66616333511841
1639.987749,168.99250461810323
1643.180896,181.8636121718892
1646.369853,126.57020266569305
1649.554632,280.4904355101878
1652.735244,149.34399392708826
1655.9117,-55.120001658952305
1659.084013,143.88340461134257
1662.252193,301.88941564942667
1665.416254,93.06750547062555
1668.576205,31.960860940385672
1671.732059,254.9354054138629
1674.883828,153.05819124933743
1678.031523,-64.92854144763098
1681.175157,39.200727740209885
1684.314739,49.722711063175524
1687.450284,10.881072525805557
1690.581801,94.8153060051089
1693.709304,1.242112773806987
1696.832803,-64.38110053879697
1699.952311,17.937668899012436
1703.067839,39.726995361420656
1706.179399,159.3661280959211
1709.287003,256.6994472118804
1712.390663,101.0273427741762
1715.49039,95.20372474921915
1718.586197,240.5125061795915
1721.678095,135.55818473541083
1724.766096,-8.392813950533508
1727.850213,-27.40709497411745
1730.930456,5.349357437704434
1734.006838,16.411347719969456
1737.079372,-68.65284815940569
1740.148067,58.61290968650968
1743.212938,298.3692109888347
1746.273996,224.99964728932108
1749.331252,105.0132033495266
1752.384718,125.42402003453635
1755.434408,153.7890587756631
1758.480332,176.29235639062
1761.522503,90.37698618022864
1764.560933,-48.416046828654814
1767.595634,-27.949648536784288
1770.626618,132.94478308207223
1773.653896,178.27517402739994
1776.677482,57.453535194565866
1779.697388,58.70268178731703
1782.713625,155.00586189397228
1785.726205,165.24708804134582
1788.735141,94.86430136656841
1791.740445,-59.787904413109125
1794.742129,-10.994038576596445
1797.740206,212.3716650920415
1800.734687,157.12378008117938
1803.725585,37.83672642746135
1806.712912,55.99880875612815
1809.69668,23.862198400381118
1812.676902,-14.56020495461059
1815.65359,-56.80505940128432
1818.626756,-62.620501692113436
1821.596413,-8.496854837247449
1824.562573,-0.050915199125263655
1827.525247,11.766696457719132
1830.48445,20.838230374619794
1833.440192,-11.488999414480375
1836.392487,-13.735419019158272
1839.341347,45.25126187510438
1842.286784,37.437411698086855
1845.22881,-38.92143715477667
1848.167439,30.194942038933327
1851.102682,53.78141869387293
1854.034553,-68.66976124600612
1856.963063,24.58121262151847
1859.888226,181.7911953749983
1862.810053,146.7442556722682
1865.728557,128.63940887331137
1868.643751,118.82378828729361
1871.555648,-23.362765930197178
1874.46426,-82.26472116429449
1877.369599,89.9278730838202
1880.271679,148.18158608267885
1883.170512,61.15798002181461
1886.06611,133.88032295451677
1888.958487,125.41076063050843
1891.847655,1.773912840868185
1894.733626,26.442933429285052
1897.616414,13.833708624422474
1900.496032,-45.60224523604692
1903.372491,-5.9983120871336375
1906.245805,86.3203675901069
1909.115987,199.2692070587206
1911.983049,141.7079379327136
1914.847004,5.858768559503461
1917.707866,99.7106832491335
1920.565646,152.49577745651416
1923.420359,16.379427214007865
1926.272016,-24.6408547343988
1929.120631,31.25546887416525
1931.966216,27.156810880266598
1934.808786,-50.03997276518126
1937.648351,-18.430229755278972
1940.484927,38.077888378630064
1943.318525,-40.712868846768245
1946.149158,158.74402144803992
1948.97684,425.0955207271557
1951.801584,234.93965359915316
1954.623403,55.84400836134101
1957.44231,41.960249899898386
1960.258318,-35.364263815303175
1963.071439,-30.701351635127725
1965.881688,14.888452701710971
1968.689078,7.487022355415627
1971.493621,-23.17059660200443
