Raman shift cm-1,4ATP_1nM_rep3_acc4_processed_intensity
-93.47115107,527.6227141439492
-87.69374369,163.91387881910015
-81.9253076,-13.516584722111247
-76.16582701,96.83171060527677
-70.41528615,149.12852581173885
-64.67366933,-4.415797463434045
-58.94096086,2.530361538042712
-53.21714512,-4.184065379498108
-47.50220652,-84.26193689283716
-41.79612954,56.39959749614809
-36.09889866,202.6615124292144
-30.41049843,144.3118372202841
-24.73091343,61.91154085389104
-19.0601283,59.804956935765745
-13.39812769,47.1795997700649
-7.744896327,-77.2680299694951
-2.100418946,-38.31287788073848
3.535319659,48.08349485990311
9.162334658,-88.69603289636126
14.78064118,0.6154320296796527
20.39025432,25.220878077272857
25.99118913,-18.12332155622704
31.58346061,132.3316905772826
37.16708375,62.748651535393265
42.74207347,28.263114074012833
48.30844468,38.48908743340644
53.86621222,-15.684070061235275
59.41539093,-10.780045554796743
64.95599558,-40.65454552004741
70.48804091,153.39783905513696
76.01154164,174.41200748219057
81.52651243,-113.49998470313295
87.03296792,121.68760484318352
92.5309227,297.63281066585023
98.02039134,23.804933610582452
103.5013884,41.10768910912418
108.9739282,123.44869756832304
114.4380255,40.42056515163358
119.8936944,201.40056615897288
125.3409495,391.1613308751977
130.779805,151.73108150395103
136.2102753,-87.11340763447527
141.6323747,17.95833556172431
147.0461174,156.04890987347733
152.4515176,63.698028481402844
157.8485895,-85.46405685942534
163.2373472,-61.05677879455072
168.6178049,21.24185414749809
173.9899766,126.26224757395062
179.3538764,124.82725131292159
184.7095182,53.42577828649496
190.0569161,127.20111037765037
195.396084,128.69253634269967
200.7270358,49.565279491164574
206.0497854,8.114949681729968
211.3643466,53.339040231022864
216.6707333,221.54898886489718
221.9689593,243.9998380729919
227.2590382,309.6664415733451
232.5409839,395.73490265570797
237.8148101,333.31494156399935
243.0805303,487.63678976300514
248.3381582,595.0949541665738
253.5877075,596.0309317976178
258.8291917,775.295901604298
264.0626244,903.8111880222098
269.288019,1026.2407731590663
274.5053891,1166.3694819875027
279.7147481,1121.3738910683746
284.9161094,1090.783688072108
290.1094865,1142.756601602911
295.2948927,1048.6010815266131
300.4723414,829.0959602603857
305.6418459,324.01105364384307
310.8034194,-139.86647234643283
315.9570752,-10.779059662207047
321.1028267,49.70625992143804
326.2406869,52.51304713858284
331.370669,159.819338808513
336.4927863,6.472066519512419
341.6070517,-54.459713693241376
346.7134786,23.789853008918428
351.8120798,82.46611697126983
356.9028684,-74.88831325704555
361.9858576,60.07254229818113
367.0610602,264.12696436608735
372.1284892,171.81968814108183
377.1881577,517.4860686225002
382.2400784,739.2054651357132
387.2842644,1129.356757769278
392.3207284,1499.0404975725216
397.3494833,1211.8397221094497
402.370542,936.7961791343924
407.3839172,515.034792901667
412.3896217,295.9140133026841
417.3876683,167.87666491880017
422.3780697,-40.6965193772431
427.3608386,60.10405478392914
432.3359876,52.30852191649615
437.3035295,177.31018022783195
442.2634769,256.74723983033107
447.2158423,27.459381255428887
452.1606383,11.038299458819914
457.0978776,-74.13295887776411
462.0275727,-45.60602890120953
466.9497361,112.7013595416253
471.8643802,14.326336794207224
476.7715176,39.04296400919554
481.6711608,101.85738530912629
486.5633221,198.0988846800607
491.448014,178.89584187188012
496.3252488,-19.751555651498695
501.195039,-25.92394558970489
506.0573969,61.86184159286793
510.9123349,-10.209698945278294
515.7598651,-72.72427524415392
520.6,140.9994843286406
525.4327518,246.48226476147138
530.2581327,179.37130890319764
535.076155,47.31984267802629
539.8868309,97.92902563468093
544.6901726,129.7773379691207
549.4861922,57.12423084651684
554.2749019,325.2624199708687
559.0563139,32.050252130755155
563.8304402,-93.31194955594634
568.597293,446.6044704098131
573.3568844,254.77262609115564
578.1092263,-51.56709084793118
582.8543308,63.519328109328065
587.5922101,161.82943290394064
592.322876,34.7137006510818
597.0463405,-69.4724632403581
601.7626157,52.72551768394357
606.4717135,-25.207466578490322
611.1736458,-83.16199461790487
615.8684246,25.081866176669145
620.5560617,51.33708446854487
625.2365691,-36.071513439472696
629.9099585,15.38978526183866
634.5762419,49.483983852139794
639.2354312,51.63443869526732
643.887538,219.6719840697489
648.5325743,-39.29957721395247
653.1705518,-21.031886155755195
657.8014823,157.35630571597434
662.4253775,-95.02650766747723
667.0422493,19.903173987441804
671.6521092,60.17302569277098
676.2549691,32.34574847549342
680.8508407,58.58697953337322
685.4397355,-56.896112125977645
690.0216654,-41.00764753620665
694.5966419,91.6234759403161
699.1646767,143.13798364327835
703.7257814,21.45141084843273
708.2799676,120.98614204021885
712.827247,107.11720144518189
717.367631,3.2749604091153444
721.9011314,-16.750136108691787
726.4277595,-55.991989461586584
730.9475271,33.27311467244335
735.4604456,19.709255973711635
739.9665264,160.5490664401506
744.4657813,204.23341818927744
748.9582215,39.47269299542723
753.4438587,-20.903562505933014
757.9227042,-23.290052621495946
762.3947696,14.991713430577136
766.8600662,162.3021732356997
771.3186056,320.9717829282682
775.770399,216.94579466503947
780.215458,217.44672741895835
784.6537939,60.63253832797953
789.0854181,-87.52056136454652
793.510342,204.1654078490606
797.9285769,241.56607514116817
802.3401342,142.9642236579358
806.7450253,193.05567410193228
811.1432614,206.22041619481382
815.5348538,44.705442767200985
819.9198139,-50.04307707038373
824.2981531,118.32206808071942
828.6698824,123.27304147747942
833.0350133,3.143021902084161
837.393557,-1.3610121257230325
841.7455248,37.40255198708723
846.0909278,32.28769190778172
850.4297774,32.90292183511272
854.7620848,10.176472787133893
859.0878611,-88.99859871805326
863.4071176,-3.577279796034219
867.7198655,102.22192223959416
872.026116,256.7922962733894
876.3258802,366.1933548641971
880.6191693,196.05940147478137
884.9059946,288.35027693776965
889.186367,348.1429826784579
893.4602979,55.55260626083789
897.7277982,-30.714749384978457
901.9888793,164.65489774955878
906.2435521,177.64538355591645
910.4918277,22.57939759928326
914.7337174,-92.4405529260264
918.9692321,-65.23834913363356
923.1983831,46.90809576238782
927.4211813,134.6558371137598
931.6376378,255.41756311874462
935.8477637,55.74816957114139
940.0515701,55.96950901374636
944.249068,178.23027362160423
948.4402684,-29.792105817294555
952.6251825,-38.05964604400482
956.8038212,106.25512351039646
960.9761955,214.86144796805493
965.1423166,52.63853639856413
969.3021953,13.691163283085388
973.4558427,80.03807845187991
977.6032699,-67.42801944253515
981.7444877,-26.331329122690917
985.8795072,55.37096271104336
990.0083394,9.384410790335778
994.1309953,44.615484158176955
998.2474857,37.638625115279055
1002.357822,-43.791362968272
1006.462014,-26.87199660755276
1010.560075,-69.10737375935317
1014.652013,123.48663540027978
1018.737841,228.37655198996544
1022.81757,31.42419824554784
1026.891209,-4.845354835099908
1030.958771,36.02398112475297
1035.020266,175.08597231514375
1039.075705,88.28670576291755
1043.1251,7.0450615652277815
1047.16846,142.15404331216078
1051.205797,59.362342095824914
1055.237121,-2.15587898947183
1059.262444,-3.077977024869462
1063.281777,-131.48936530292747
1067.295131,178.41243885089284
1071.302515,646.5616086049715
1075.303942,674.4635962943736
1079.299422,896.4281077493773
1083.288966,803.5058949130001
1087.272585,312.78810112455
1091.250289,138.5902716841401
1095.222091,-2.0373251022350445
1099.187999,33.82648566439022
1103.148026,57.45521750562108
1107.102183,-12.07013786744108
1111.050479,57.157815457356634
1114.992927,12.643761097220779
1118.929536,-59.55363439838252
1122.860318,2.2309226137166576
1126.785283,-42.9326248068807
1130.704443,-49.39417820180067
1134.617808,134.9350390999091
1138.52539,117.51206865937772
1142.427198,177.13839992119495
1146.323244,154.46860326269683
1150.213538,38.25927617984291
1154.098093,147.46452710111646
1157.976917,63.6985684510467
1161.850023,204.2930933894219
1165.717421,269.1600799872261
1169.579121,228.0035128896541
1173.435135,351.9588907769864
1177.285474,126.35575585705423
1181.130148,171.55525916066117
1184.969169,327.0412476001698
1188.802547,293.7932863032017
1192.630292,132.2275533282603
1196.452416,-35.30230773019928
1200.26893,61.119739063327984
1204.079844,-113.04104842095467
1207.88517,-46.77443384914608
1211.684917,118.84345266784867
1215.479098,107.43032535201807
1219.267722,308.06258209229645
1223.050801,54.59969806204839
1226.828346,-45.98977472736978
1230.600366,193.94420462337592
1234.366874,90.20007819260195
1238.12788,42.280709143449045
1241.883395,76.07619094434057
1245.633429,62.95738111496178
1249.377994,24.387416913123502
1253.1171,2.117145811453213
1256.850759,17.672840868877614
1260.578981,12.369307728697173
1264.301776,15.420838418157402
1268.019157,-22.409775243632104
1271.731133,-46.1080621996981
1275.437715,-23.60175409815834
1279.138915,120.53062654966888
1282.834743,230.54779981922667
1286.52521,62.88191274387204
1290.210328,-102.84575898382374
1293.890106,28.957612098752726
1297.564555,189.9589134640248
1301.233688,198.51136150778245
1304.897514,225.98614018527797
1308.556044,265.53692360479107
1312.209289,199.87000060617692
1315.857261,-12.752821013022526
1319.499969,130.74191156572783
1323.137425,315.13611400227944
1326.769641,245.67543863406289
1330.396626,347.571000601118
1334.018391,210.18774582660785
1337.634948,126.79855782031407
1341.246307,101.14233517367026
1344.85248,-22.3096823896947
1348.453477,57.962008754765
1352.049309,-37.19248946877068
1355.639987,-31.374560012386283
1359.225522,109.69613394844669
1362.805925,122.78421205803481
1366.381207,147.96359099686384
1369.951379,46.49005750564169
1373.516452,26.54053898768754
1377.076436,155.54558445026947
1380.631343,123.39782149441719
1384.181184,118.32215378678798
1387.725969,152.84061407648608
1391.26571,15.800889181404749
1394.800417,35.4770557568201
1398.330102,119.31368149923115
1401.854776,127.35527747408501
1405.374448,155.25947163300992
1408.889132,-12.044858245954801
1412.398837,-110.79794536212054
1415.903574,20.262485549352146
1419.403355,210.2562835887815
1422.89819,126.5323191764756
1426.388091,33.014001850892534
1429.873069,212.7294768426494
1433.353134,84.83111058246496
1436.828298,-15.834589580597552
1440.298571,59.29379625653986
1443.763965,-19.011683724551474
1447.224491,-117.28115510356616
1450.68016,-44.10381085156628
1454.130983,59.793094353035116
1457.576971,21.14304190919023
1461.018135,131.42485341590879
1464.454486,102.96544429637221
1467.886036,47.42753065227511
1471.312794,41.14084723389779
1474.734774,12.729095435028128
1478.151985,158.83238756457934
1481.564439,103.57361384824326
1484.972146,4.871065243344802
1488.375119,-116.87588400108032
1491.773368,48.728150853799804
1495.166904,273.830393026132
1498.555739,39.16946523696258
1501.939883,20.02224566136634
1505.319349,-14.187907565419593
1508.694146,-53.760016522538706
1512.064286,107.03782736877692
1515.429781,55.532778978555044
1518.790642,7.656756986583559
1522.146879,54.05275752450714
1525.498505,-79.9719305188205
1528.845529,-74.00021933991252
1532.187965,117.71206187014698
1535.525822,56.5905373458802
1538.859112,170.5051403495171
1542.187846,150.20088397292483
1545.512036,-5.288473114567644
1548.831693,338.0575287433743
1552.146829,272.3510471254987
1555.457453,-26.90270650899228
1558.763579,-16.580752313216948
1562.065216,60.80155242950455
1565.362377,354.77688814768294
1568.655073,429.3507967329514
1571.943315,320.6997834501178
1575.227114,249.15802244205264
1578.506482,374.9400112584963
1581.781431,581.9694097350891
1585.051971,418.8388749794744
1588.318114,545.9676959999335
1591.579872,553.8583492946509
1594.837255,439.0527607756976
1598.090275,399.2171578986226
1601.338945,156.60431495797945
1604.583274,368.6224070436318
1607.823275,46.257972804026465
1611.058959,-54.40714441598655
1614.290338,414.6775321728987
1617.517422,5.469841173190517
1620.740224,-70.90554089624482
1623.958755,235.4709025992979
1627.173027,81.59032877587556
1630.38305,42.798148706702264
1633.588838,149.7428044324289
1636.7904,54.9027771852778
1639.987749,175.17059475473638
1643.180896,185.73069926632886
1646.369853,-0.5022026547116454
1649.554632,216.86660699507206
1652.735244,147.53291647017818
1655.9117,-52.43259476243132
1659.084013,175.68062455568617
1662.252193,185.11935578451394
1665.416254,-27.511456430579663
1668.576205,120.73571697444507
1671.732059,259.21721568605363
1674.883828,113.73783411051237
1678.031523,36.645176422473014
1681.175157,36.74452083335251
1684.314739,-7.675486568201038
1687.450284,-38.793307709021235
1690.581801,63.77305079410072
1693.709304,40.68615326701575
1696.832803,-78.8485330131546
1699.952311,27.34074057777482
1703.067839,90.78587152412959
1706.179399,224.7922844772433
1709.287003,255.29847998147326
1712.390663,-37.04691547029929
1715.49039,119.02153548217727
1718.586197,296.35576392507966
1721.678095,43.00276142225092
1724.766096,-24.01325023221964
1727.850213,-2.2757553862836843
1730.930456,-65.41761910827803
1734.006838,-17.370046457458947
1737.079372,-19.436356965061407
1740.148067,59.54821393382284
1743.212938,288.82914021285217
1746.273996,126.42316575555071
1749.331252,25.971969201550458
1752.384718,142.72629546608707
1755.434408,58.97103040423636
1758.480332,101.79444394117203
1761.522503,109.23155884752398
1764.560933,-38.40792241457386
1767.595634,-54.513465713727655
1770.626618,130.6923054508121
1773.653896,216.4899128711512
1776.677482,13.449242695089602
1779.697388,17.165783004790022
1782.713625,180.15226470189586
1785.726205,193.10080986023345
1788.735141,182.67680663306854
1791.740445,50.206857937984545
1794.742129,-15.687294254715379
1797.740206,127.26669148016776
1800.734687,166.91128875472836
1803.725585,110.5222253677155
1806.712912,92.50109625470328
1809.69668,118.30610012914578
1812.676902,44.084961525234604
1815.65359,-90.01041212150169
1818.626756,-38.43066040782132
1821.596413,-16.303808830556175
1824.562573,48.392294838274495
1827.525247,131.8842583149271
1830.48445,12.458261184947219
1833.440192,-21.74684507578024
1836.392487,-5.125963270619623
1839.341347,46.888394232184154
1842.286784,78.6426042796055
1845.22881,6.109788739833388
1848.167439,36.38507864082812
1851.102682,107.43634983497414
1854.034553,-11.844070188042455
1856.963063,-45.73451825444825
1859.888226,228.87686115276608
1862.810053,207.05329464407382
1865.728557,41.14774800556389
1868.643751,102.03050917688384
1871.555648,-28.246801720998846
1874.46426,-41.16813254766725
1877.369599,151.53904466106474
1880.271679,33.00250528596345
1883.170512,-12.082963589546772
1886.06611,155.29972715970774
1888.958487,51.82973832269897
1891.847655,-47.53952850838679
1894.733626,87.26989326711647
1897.616414,42.7787390771795
1900.496032,-73.6085605381333
1903.372491,27.239382792812993
1906.245805,126.09418747998156
1909.115987,170.93911534307648
1911.983049,117.27665041339898
1914.847004,30.92828165801586
1917.707866,122.8062829556976
1920.565646,120.3781104030167
1923.420359,6.240883300844018
1926.272016,-21.883797143883744
1929.120631,-46.1147430794897
1931.966216,29.082404217999418
1934.808786,114.86579094239104
1937.648351,12.195743853299447
1940.484927,16.313264695668035
1943.318525,91.01457886662202
1946.149158,245.08546884142493
1948.97684,480.89894688009826
1951.801584,243.40660112722637
1954.623403,107.20932956923303
1957.44231,162.2883807850671
1960.258318,-13.324189048116374
1963.071439,-34.643500333082685
1965.881688,38.06724941896415
1968.689078,153.5589428910972
1971.493621,-2.7084807269303823
