Raman shift cm-1,4ATP_1pM_rep3_acc4_processed_intensity
-93.47115107,528.4249101846316
-87.69374369,49.89202328593805
-81.9253076,-66.29318012839408
-76.16582701,28.704858369572193
-70.41528615,33.09445134280561
-64.67366933,-28.69106820581341
-58.94096086,-32.92063665298376
-53.21714512,-23.89846283137679
-47.50220652,-2.855453046726989
-41.79612954,94.29072424647367
-36.09889866,167.965866667373
-30.41049843,116.39858872964615
-24.73091343,40.724670559582634
-19.0601283,18.700227980082303
-13.39812769,-10.009127975933506
-7.744896327,-30.328861166055976
-2.100418946,26.88764226597409
3.535319659,84.40903326181993
9.162334658,44.46046099282622
14.78064118,-22.27239276493018
20.39025432,-5.664483182068162
25.99118913,77.08903631837669
31.58346061,109.40838097631743
37.16708375,51.21033465925229
42.74207347,12.267812623078596
48.30844468,20.944765371160003
53.86621222,-39.22408442031035
59.41539093,-118.01807768813916
64.95599558,-40.205048787458736
70.48804091,101.86684174217326
76.01154164,92.79794098319763
81.52651243,15.684650110391576
87.03296792,36.638161455945955
92.5309227,73.57799094081494
98.02039134,51.093037846011974
103.5013884,26.520913075385295
108.9739282,5.988167377775625
114.4380255,47.51669514361821
119.8936944,212.2837090757538
125.3409495,286.37637258808246
130.779805,94.39739216662775
136.2102753,-101.70436752664767
141.6323747,-31.98368500396478
147.0461174,119.98126397696052
152.4515176,90.00214810257341
157.8485895,-26.19602039372029
163.2373472,-19.14955748265868
168.6178049,75.28868444672122
173.9899766,97.82219433912115
179.3538764,46.755321689148275
184.7095182,48.76332053297227
190.0569161,117.03211081282359
195.396084,120.46002276279773
200.7270358,19.700237199093976
206.0497854,-52.09662378165842
211.3643466,-19.19312315253569
216.6707333,21.804842641206903
221.9689593,7.523533586211158
227.2590382,7.2311793401823365
232.5409839,51.559328693886016
237.8148101,95.6003483285345
243.0805303,129.29830594304326
248.3381582,157.87887579373057
253.5877075,180.9904743847668
258.8291917,235.76882500916392
264.0626244,345.4379514884173
269.288019,459.2137096270291
274.5053891,502.1411119313612
279.7147481,452.41491214865323
284.9161094,377.4863890068516
290.1094865,379.2983945116006
295.2948927,421.5738172799247
300.4723414,311.78014272952595
305.6418459,32.51977287211808
310.8034194,-133.7874860727336
315.9570752,-61.28053858768027
321.1028267,24.997084441773346
326.2406869,11.949002718430371
331.370669,15.373033888833419
336.4927863,27.352525765660538
341.6070517,-1.0903491712845792
346.7134786,9.186998708147698
351.8120798,50.45269277066217
356.9028684,77.10230585030874
361.9858576,152.28012682677644
367.0610602,236.08346145620803
372.1284892,290.21419695608694
377.1881577,602.6035151019066
382.2400784,1441.6941452402948
387.2842644,2484.2359691088477
392.3207284,3033.6397149005475
397.3494833,2790.135720509531
402.370542,2060.3645787722153
407.3839172,1273.2083255177095
412.3896217,674.0682695314758
417.3876683,339.945217191556
422.3780697,188.76582863741635
427.3608386,114.96286656177494
432.3359876,126.91282531462329
437.3035295,193.10099743767861
442.2634769,170.36619851168226
447.2158423,38.43226108559015
452.1606383,-69.85432854532434
457.0978776,-86.8379261119037
462.0275727,-35.166542348124835
466.9497361,30.493354580256575
471.8643802,45.18438133792445
476.7715176,23.694928828028786
481.6711608,35.29141717781147
486.5633221,74.77197311356495
491.448014,78.92187268128694
496.3252488,47.891352528488135
501.195039,41.072675657634434
506.0573969,22.674760088325833
510.9123349,-65.78783693367942
515.7598651,-80.4249917058604
520.6,76.79737159718145
525.4327518,182.59113663675788
530.2581327,101.55701370677711
535.076155,31.43625375302161
539.8868309,83.94598892076222
544.6901726,174.44195468473163
549.4861922,251.09165326738614
554.2749019,212.78292488918325
559.0563139,39.26679105342727
563.8304402,-1.6993819942811506
568.597293,147.45636590842594
573.3568844,172.33007166026653
578.1092263,39.191975283669066
582.8543308,-12.724855496706837
587.5922101,-5.542856638872529
592.322876,-49.91897616578764
597.0463405,-64.01426966606817
601.7626157,-20.756498206863785
606.4717135,-8.860215029788085
611.1736458,-17.35570051378929
615.8684246,6.4183060664942815
620.5560617,31.048548201529513
625.2365691,31.579931246468256
629.9099585,45.312955216868104
634.5762419,85.96121134604847
639.2354312,105.38315285153463
643.887538,73.64147435712857
648.5325743,37.6386235533724
653.1705518,34.042255052219154
657.8014823,10.865345239257508
662.4253775,-45.457495827642205
667.0422493,-48.12556018215544
671.6521092,19.24559557440662
676.2549691,69.76205040353415
680.8508407,46.734196348814244
685.4397355,-34.018683700270465
690.0216654,-70.57230800495161
694.5966419,31.00203643787271
699.1646767,170.9587103278924
703.7257814,202.44628610695528
708.2799676,179.61111389785685
712.827247,187.0435029729985
717.367631,155.34411037766353
721.9011314,37.4133345074176
726.4277595,-53.206264899112185
730.9475271,-4.004637937627081
735.4604456,119.55434655638825
739.9665264,165.89242970157986
744.4657813,99.71063938680228
748.9582215,19.97082020120356
753.4438587,5.613820238042314
757.9227042,9.823109647728458
762.3947696,-12.541551169254806
766.8600662,31.79760146139282
771.3186056,190.97900319614595
775.770399,305.3041161914871
780.215458,212.7375343946007
784.6537939,1.8084145496291946
789.0854181,-50.75994759146328
793.510342,135.49774556288705
797.9285769,293.896190497377
802.3401342,252.5936235776678
806.7450253,163.38588271549884
811.1432614,124.53185164082116
815.5348538,71.1329879168006
819.9198139,41.15607720930542
824.2981531,96.75903384152889
828.6698824,127.01456576828541
833.0350133,48.5738961528669
837.393557,-27.4602306786932
841.7455248,-23.275488967890155
846.0909278,-6.814047460237511
850.4297774,2.1107663952267757
854.7620848,24.35225996671617
859.0878611,-6.191370092296388
863.4071176,-60.30125898102519
867.7198655,37.659085567139876
872.026116,248.14217507041292
876.3258802,317.86771338349104
880.6191693,251.48310724262402
884.9059946,251.57999625682822
889.186367,245.8759924820663
893.4602979,84.2342866341934
897.7277982,-27.34946230098822
901.9888793,99.06461337245973
906.2435521,220.11733769417555
910.4918277,121.32503687497156
914.7337174,-11.71358711959472
918.9692321,7.610770719545535
923.1983831,104.78630934747825
927.4211813,165.60338875808486
931.6376378,161.57477310453146
935.8477637,128.5770529958744
940.0515701,105.44594608402772
944.249068,52.025034976319944
948.4402684,-29.90546723465107
952.6251825,-19.816155960515886
956.8038212,105.35818510333357
960.9761955,193.5253762744446
965.1423166,154.90713976391726
969.3021953,74.7448650744102
973.4558427,31.453906571646286
977.6032699,9.616744310470466
981.7444877,5.859211448411372
985.8795072,15.169466249899529
990.0083394,0.6084889865292382
994.1309953,-16.94258263523085
998.2474857,0.8749792171353761
1002.357822,7.446548223108778
1006.462014,-32.58845054856104
1010.560075,-34.80445352878067
1014.652013,46.92501678487817
1018.737841,85.00230018377619
1022.81757,12.811775417541327
1026.891209,-24.492053943998574
1030.958771,44.583518627450296
1035.020266,74.96136690439634
1039.075705,-4.579209273218134
1043.1251,-51.19129742338675
1047.16846,16.43868000634336
1051.205797,78.31026280543509
1055.237121,29.98926679943157
1059.262444,-54.767562764257995
1063.281777,22.39342140099434
1067.295131,406.9866608005121
1071.302515,1032.0196904828222
1075.303942,1628.6186635997917
1079.299422,1839.448250807433
1083.288966,1502.986208839167
1087.272585,901.658862821696
1091.250289,446.4622607124043
1095.222091,239.6206052105457
1099.187999,159.07845322279763
1103.148026,102.79259833085953
1107.102183,34.38095046843682
1111.050479,-35.11829453076102
1114.992927,-55.52590997305296
1118.929536,-12.443537390270482
1122.860318,14.675315542985352
1126.785283,-6.374899721016986
1130.704443,19.79237254519026
1134.617808,128.94831288912366
1138.52539,220.4366592163333
1142.427198,196.3950155883687
1146.323244,83.17184052670532
1150.213538,14.309408233029487
1154.098093,23.954622819065747
1157.976917,19.22315294135882
1161.850023,20.20600359704987
1165.717421,104.06233881919782
1169.579121,199.04378228021983
1173.435135,220.98181585465898
1177.285474,243.02726006605548
1181.130148,340.35434772916597
1184.969169,405.8669937781899
1188.802547,302.21009047156116
1192.630292,103.46303134082314
1196.452416,-7.782812599464814
1200.26893,-8.277843291867185
1204.079844,-11.457594779954007
1207.88517,-37.71954967368838
1211.684917,21.398654779895573
1215.479098,189.6581114643868
1219.267722,287.8475947636812
1223.050801,220.67447576075588
1226.828346,194.14835229791706
1230.600366,314.1208777076713
1234.366874,351.10080399131203
1238.12788,229.7401415626755
1241.883395,204.90670234690413
1245.633429,336.63669333633857
1249.377994,369.6882444281713
1253.1171,223.27457170723534
1256.850759,96.92172073516093
1260.578981,117.66033178601731
1264.301776,185.87555003523755
1268.019157,132.8488874861203
1271.731133,-6.413471370678877
1275.437715,-4.855339741302593
1279.138915,148.406486203329
1282.834743,186.8354489855682
1286.52521,42.198958014484624
1290.210328,-45.91570125127773
1293.890106,26.536998212948482
1297.564555,100.36626585179401
1301.233688,101.17309794483589
1304.897514,113.24546064932036
1308.556044,107.96531023540717
1312.209289,2.2025490237444707
1315.857261,-69.86852362114497
1319.499969,42.708874095412924
1323.137425,208.85258701819566
1326.769641,257.0499818051898
1330.396626,201.43939779113973
1334.018391,107.17122130462457
1337.634948,35.74188380674705
1341.246307,23.39363316729189
1344.85248,15.993226103759707
1348.453477,-34.52285885745132
1352.049309,-60.00739877927439
1355.639987,31.587158314383572
1359.225522,175.0534938483395
1362.805925,200.8589540813865
1366.381207,93.21413054449123
1369.951379,25.77568553015922
1373.516452,111.41079238940586
1377.076436,245.9087978383796
1380.631343,287.3377723764048
1384.181184,257.33859455315553
1387.725969,224.17219211140036
1391.26571,178.34095929905948
1394.800417,131.4556516798766
1398.330102,149.0420192909935
1401.854776,217.30615445602555
1405.374448,196.78493759969933
1408.889132,36.041454290107026
1412.398837,-75.11037955458909
1415.903574,6.613790541040984
1419.403355,145.09270055130585
1422.89819,207.69030843910514
1426.388091,239.3528266895196
1429.873069,247.26888796181188
1433.353134,193.5435785050019
1436.828298,125.63382411274063
1440.298571,69.03974890570963
1443.763965,3.5575193172032016
1447.224491,-30.44930889178861
1450.68016,-9.940985235974722
1454.130983,26.075501891587713
1457.576971,75.35418289978908
1461.018135,133.87634400060995
1464.454486,134.21402184543973
1467.886036,49.51718003977141
1471.312794,-30.372763129266147
1474.734774,4.830900134317439
1478.151985,107.37010769910886
1481.564439,103.13831972234613
1484.972146,-4.344565356717439
1488.375119,-12.318311995277803
1491.773368,100.8022883672995
1495.166904,133.6488494578214
1498.555739,47.29895332590243
1501.939883,-12.415002081366879
1505.319349,-10.590683449356568
1508.694146,8.784276076247103
1512.064286,45.80430252961881
1515.429781,78.7633702930977
1518.790642,73.69966826882433
1522.146879,19.28618014339795
1525.498505,-56.81418287363921
1528.845529,-51.38358952577987
1532.187965,74.63143762710487
1535.525822,204.2680360688721
1538.859112,226.28024033909506
1542.187846,176.0507263306563
1545.512036,211.7056280693576
1548.831693,332.9960920076381
1552.146829,276.61833463932214
1555.457453,39.8001654682715
1558.763579,-14.289201408297012
1562.065216,195.42362941755354
1565.362377,413.5938349556522
1568.655073,498.5776172791989
1571.943315,476.4151953339688
1575.227114,477.05109123613096
1578.506482,617.4030699729283
1581.781431,803.0085531890081
1585.051971,920.5980258809998
1588.318114,1004.5519349536096
1591.579872,997.2757513397288
1594.837255,808.6045161974779
1598.090275,572.9481627134651
1601.338945,396.96269308923837
1604.583274,176.38856323172965
1607.823275,-13.215383452949638
1611.058959,48.20172322227792
1614.290338,176.08391935092547
1617.517422,82.1894656230219
1620.740224,-47.288219322399655
1623.958755,-12.007320767623312
1627.173027,25.724987122066523
1630.38305,-28.56819357153738
1633.588838,-50.69645953034038
1636.7904,20.634161342365303
1639.987749,84.39124582193264
1643.180896,49.37388467346736
1646.369853,5.265086177154814
1649.554632,32.8051020685088
1652.735244,23.603332596556527
1655.9117,-40.226370924945144
1659.084013,-31.806241393490566
1662.252193,8.316879169070518
1665.416254,1.2611554078289657
1668.576205,35.57104480275356
1671.732059,106.31071201831818
1674.883828,95.49351509858643
1678.031523,49.022051819662906
1681.175157,42.16505707512154
1684.314739,2.2496475169450605
1687.450284,-78.38676615849303
1690.581801,-89.4216299208343
1693.709304,-26.44846412083818
1696.832803,7.628061438378053
1699.952311,-0.3471211867533954
1703.067839,46.481074492707734
1706.179399,148.94469403416798
1709.287003,161.95123443348842
1712.390663,73.67725814291838
1715.49039,43.94842123685205
1718.586197,73.51391705879749
1721.678095,29.084544259311848
1724.766096,-48.254205037463166
1727.850213,-32.96118744146783
1730.930456,24.380300259878425
1734.006838,5.856458960102124
1737.079372,-25.600061274774976
1740.148067,50.98199621722742
1743.212938,148.71482630665224
1746.273996,131.5748403961723
1749.331252,76.41151639351969
1752.384718,94.35493642803603
1755.434408,142.71937742618485
1758.480332,154.2798784901628
1761.522503,93.0024137915104
1764.560933,-33.77682250889916
1767.595634,-85.45910414362959
1770.626618,13.177094156871274
1773.653896,90.79661669774478
1776.677482,50.31472557856215
1779.697388,36.61299122021981
1782.713625,110.3097097001804
1785.726205,143.9938840633459
1788.735141,65.75141329637873
1791.740445,-24.783679668121092
1794.742129,11.370901258348955
1797.740206,133.10769004347608
1800.734687,166.75299566899054
1803.725585,95.81887356206914
1806.712912,38.75362027720209
1809.69668,19.75765323520223
1812.676902,0.05263164430495948
1815.65359,-23.7661903516769
1818.626756,-37.082656629665784
1821.596413,-14.286823579144576
1824.562573,42.301590313938625
1827.525247,63.349913251578464
1830.48445,3.1979183208014597
1833.440192,-56.82071392423325
1836.392487,-20.6641094537397
1839.341347,36.302077915503645
1842.286784,16.206975567867644
1845.22881,20.911961307151813
1848.167439,103.73459880868097
1851.102682,97.56590724030633
1854.034553,-5.592485882200606
1856.963063,22.386189887053447
1859.888226,171.30557907182063
1862.810053,192.75141519530445
1865.728557,71.19891484780851
1868.643751,-24.968538207188743
1871.555648,-63.44742078568844
1874.46426,-60.45379151968315
1877.369599,-1.6266463459356437
1880.271679,50.97057499359633
1883.170512,52.24481119411192
1886.06611,42.23115176366183
1888.958487,23.669533209059942
1891.847655,-13.407031463109583
1894.733626,-24.816522394789274
1897.616414,-12.464852966647364
1900.496032,-10.834712125456477
1903.372491,20.249928119810697
1906.245805,99.48894341194621
1909.115987,142.8874559637004
1911.983049,109.70427038560445
1914.847004,76.40697122180316
1917.707866,88.6747775952728
1920.565646,91.3408097334928
1923.420359,51.731724607361905
1926.272016,-9.583678944120233
1929.120631,-71.59553428686901
1931.966216,-70.80359456933057
1934.808786,20.328441291165475
1937.648351,74.46129827819657
1940.484927,24.334678409846294
1943.318525,49.0678878534973
1946.149158,239.47762502011105
1948.97684,344.7114952021578
1951.801584,211.17441618503227
1954.623403,64.54461857480595
1957.44231,35.767773379259104
1960.258318,-10.110933939699493
1963.071439,-50.686910564270995
1965.881688,33.35734008379368
1968.689078,97.07940393878587
1971.493621,-14.387300608101565
