Raman shift cm-1,4ATP_1fM_rep2_acc3_processed_intensity
-93.47115107,534.661650565562
-87.69374369,157.0213524392021
-81.9253076,-13.077781744404191
-76.16582701,10.981435212179946
-70.41528615,67.285551909724
-64.67366933,55.92881200057647
-58.94096086,0.8558319930592724
-53.21714512,-28.303088750993297
-47.50220652,9.289294847452316
-41.79612954,90.03060396227869
-36.09889866,145.85639855171462
-30.41049843,144.99835211612165
-24.73091343,122.24680624904249
-19.0601283,103.92764299820722
-13.39812769,68.32119854524107
-7.744896327,17.29771423417239
-2.100418946,-0.49954588971390734
3.535319659,20.37763567801079
9.162334658,24.402022034930923
14.78064118,-2.6204886193773973
20.39025432,-0.12277208628622915
25.99118913,69.18667476621562
31.58346061,153.05451918590137
37.16708375,181.59892936124945
42.74207347,148.2456328088097
48.30844468,76.15741724920653
53.86621222,-11.994310621732751
59.41539093,-51.6390399430311
64.95599558,14.432977334995137
70.48804091,116.51981163770442
76.01154164,136.1025472331147
81.52651243,101.30392832195139
87.03296792,125.83083565063664
92.5309227,195.62400664787305
98.02039134,201.2581883821173
103.5013884,125.36763227475892
108.9739282,66.44308076472797
114.4380255,111.34624789925957
119.8936944,216.86372204729983
125.3409495,235.4552287630771
130.779805,115.79511716765873
136.2102753,-0.8792928494317991
141.6323747,8.144191495031222
147.0461174,65.74855525820539
152.4515176,52.24369321522455
157.8485895,0.8917644991590166
163.2373472,4.643733978389793
168.6178049,51.99630571419607
173.9899766,74.99981130018813
179.3538764,76.4217782190827
184.7095182,105.89051207377216
190.0569161,151.88435247543646
195.396084,148.6860367037751
200.7270358,80.77187056935688
206.0497854,9.761698783612882
211.3643466,-8.398987025469086
216.6707333,10.885694000580681
221.9689593,17.549005261377303
227.2590382,0.28012993804662933
232.5409839,-14.48193000396212
237.8148101,-14.812687149040721
243.0805303,-12.200420531213638
248.3381582,-14.44252395141264
253.5877075,-13.470619788833375
258.8291917,12.712674457031557
264.0626244,81.90271302250825
269.288019,164.51772240475557
274.5053891,182.7761872343954
279.7147481,106.20254271208105
284.9161094,17.279057667999382
290.1094865,8.879803204726848
295.2948927,51.02024893328905
300.4723414,47.97142176690166
305.6418459,0.18551407587987256
310.8034194,4.755971624774716
315.9570752,97.00089081066204
321.1028267,205.16345084254237
326.2406869,275.51001386986354
331.370669,328.7624331965378
336.4927863,391.4228225874339
341.6070517,467.8297023151212
346.7134786,558.8263204470252
351.8120798,650.9262070268416
356.9028684,714.1601381966871
361.9858576,721.8713557601247
367.0610602,713.4827129542473
372.1284892,939.7169455794801
377.1881577,1827.5887777862154
382.2400784,3493.960995459188
387.2842644,5295.5222726309785
392.3207284,6193.055607178529
397.3494833,5681.647520327091
402.370542,4192.925127240307
407.3839172,2578.9855743535304
412.3896217,1401.4811379167527
417.3876683,732.1386992650665
422.3780697,406.5434145112245
427.3608386,285.0707366568904
432.3359876,284.53126157604044
437.3035295,299.62721008940116
442.2634769,230.83281059642235
447.2158423,94.48467628013279
452.1606383,-4.15647935385303
457.0978776,-20.07876972786009
462.0275727,5.386263755651129
466.9497361,40.58918284715503
471.8643802,84.62075305757723
476.7715176,125.1431945340019
481.6711608,143.61080734091703
486.5633221,142.0856445233664
491.448014,136.57267077422006
496.3252488,127.75296004734966
501.195039,91.11967939995381
506.0573969,21.03523419704726
510.9123349,-25.40955722691708
515.7598651,15.283229574565922
520.6,110.7055487580235
525.4327518,157.32672186007375
530.2581327,123.22322482712586
535.076155,80.80406127204736
539.8868309,92.59879831577359
544.6901726,154.16055062371484
549.4861922,217.69398816209872
554.2749019,217.46547509042682
559.0563139,156.21341431279254
563.8304402,133.8278509860688
568.597293,178.43569398139897
573.3568844,182.4889936213953
578.1092263,98.74589555568473
582.8543308,17.042493630297166
587.5922101,2.529470677356647
592.322876,18.361571776509404
597.0463405,13.796273776722568
601.7626157,-13.838600581869382
606.4717135,-33.4952703895255
611.1736458,-14.605413879325848
615.8684246,40.822605520662414
620.5560617,102.52983903881875
625.2365691,151.61122562059666
629.9099585,183.7652300332176
634.5762419,181.89184675374992
639.2354312,133.58896505897332
643.887538,72.4440977649507
648.5325743,57.713910071596295
653.1705518,92.46490110798429
657.8014823,104.72571280203103
662.4253775,53.91413928209336
667.0422493,-5.641216560688395
671.6521092,-11.703127963026656
676.2549691,25.008729128774938
680.8508407,46.86328055036162
685.4397355,20.111180901685504
690.0216654,-10.699656104965971
694.5966419,36.12057948704847
699.1646767,156.8282190832289
703.7257814,244.12477981378723
708.2799676,221.00891604904191
712.827247,126.44984980027556
717.367631,46.379286700983585
721.9011314,9.574711978407528
726.4277595,-9.576708890932197
730.9475271,-10.070902189124578
735.4604456,44.30663431006904
739.9665264,140.88040559862324
744.4657813,192.6465605050844
748.9582215,136.46498080184884
753.4438587,22.757374364095494
757.9227042,-34.20455604449984
762.3947696,25.746822051991153
766.8600662,167.2171320439595
771.3186056,294.9444870064086
775.770399,319.793384811253
780.215458,231.69538294437035
784.6537939,133.2887355426847
789.0854181,177.2476052483515
793.510342,401.8833102136618
797.9285769,639.7763099761879
802.3401342,691.2832110412303
806.7450253,556.7530899862937
811.1432614,386.3925073295713
815.5348538,272.92625630965347
819.9198139,208.16072701745506
824.2981531,166.18207218017602
828.6698824,135.08335006475747
833.0350133,106.65960190708833
837.393557,75.75499715750799
841.7455248,43.84573373827192
846.0909278,21.475531342476017
850.4297774,13.209106063664038
854.7620848,-2.9110398172435694
859.0878611,-39.75871535444464
863.4071176,-46.34132952488047
867.7198655,37.39569119783363
872.026116,166.78476436191573
876.3258802,231.08628190640826
880.6191693,203.27146314449385
884.9059946,137.34230077995693
889.186367,61.392334532994624
893.4602979,1.0890509368150845
897.7277982,17.10069087295807
901.9888793,99.53362461531972
906.2435521,137.7517270703072
910.4918277,82.56675053143579
914.7337174,26.850434335754585
918.9692321,63.99541056707551
923.1983831,164.32113390911132
927.4211813,238.85450503206312
931.6376378,246.2759669537511
935.8477637,204.0426816706925
940.0515701,148.67444858377547
944.249068,117.47698943251811
948.4402684,143.17549999289912
952.6251825,228.55377670240443
956.8038212,324.9299466457528
960.9761955,363.0081413641609
965.1423166,320.4611682244632
969.3021953,243.4295370116099
973.4558427,189.2386628295818
977.6032699,172.95731310214666
981.7444877,174.22873529061803
985.8795072,168.55938416762132
990.0083394,149.16977355394914
994.1309953,121.21257896142163
998.2474857,85.50067937109895
1002.357822,48.979449142758995
1006.462014,27.043395934044838
1010.560075,18.741525561655465
1014.652013,9.191716035435093
1018.737841,-5.275221797421324
1022.81757,-13.361633744148861
1026.891209,-4.057884382175246
1030.958771,10.471790436872851
1035.020266,0.18901340362027952
1039.075705,-28.75877697572679
1043.1251,-23.800611040424677
1047.16846,30.860548338555375
1051.205797,67.6554354175744
1055.237121,21.09321053471873
1059.262444,-23.245787463096164
1063.281777,225.21598207150254
1067.295131,1044.9026924586904
1071.302515,2309.5556335209317
1075.303942,3391.7279234553703
1079.299422,3613.4168482589575
1083.288966,2847.5917601291535
1087.272585,1631.4931126244173
1091.250289,658.7830134894144
1095.222091,222.5205371247892
1099.187999,155.41398134973122
1103.148026,159.69008940106949
1107.102183,95.55518700621252
1111.050479,9.932443638303283
1114.992927,-14.650237690964076
1118.929536,15.621298708091594
1122.860318,41.99933279750685
1126.785283,79.71177602785244
1130.704443,217.29775355787257
1134.617808,448.0253613786326
1138.52539,616.5319210277115
1142.427198,606.3267624919326
1146.323244,479.1315421939144
1150.213538,366.52022933926327
1154.098093,313.22004099312363
1157.976917,295.394091679778
1161.850023,311.0997429833337
1165.717421,368.4668561518102
1169.579121,458.21698956442515
1173.435135,593.7143014221053
1177.285474,784.6791546300911
1181.130148,940.0378975667817
1184.969169,911.8729116364194
1188.802547,680.1343642474837
1192.630292,395.35541184805686
1196.452416,198.29275498685413
1200.26893,88.87222135319621
1204.079844,13.16155828230091
1207.88517,-10.86666253095835
1211.684917,68.5292965895326
1215.479098,205.77558792540174
1219.267722,267.54810307227865
1223.050801,221.42328665031977
1226.828346,188.94087357533687
1230.600366,234.64736351409584
1234.366874,287.01664462048143
1238.12788,324.9756888827482
1241.883395,404.233132594842
1245.633429,475.68101707501717
1249.377994,421.40103942727706
1253.1171,270.4508454561164
1256.850759,174.50994572947388
1260.578981,181.19721166613402
1264.301776,182.7231908319755
1268.019157,95.48868953748246
1271.731133,-5.416215034716792
1275.437715,11.405308642010077
1279.138915,130.14758675121925
1282.834743,188.44966495355854
1286.52521,105.04671755351761
1290.210328,-10.189445325592526
1293.890106,-27.635623083699453
1297.564555,41.3013580333487
1301.233688,113.75183759356284
1304.897514,142.18614559236136
1308.556044,108.10712702183727
1312.209289,26.06993738160073
1315.857261,-25.454133859542537
1319.499969,21.04346105422775
1323.137425,124.71763640867934
1326.769641,191.8195547886605
1330.396626,187.45571390710145
1334.018391,135.18866763529323
1337.634948,70.70673494051468
1341.246307,26.2205683422414
1344.85248,8.19436600766268
1348.453477,-3.8866798242863236
1352.049309,-5.32564329518712
1355.639987,37.59041389436597
1359.225522,115.22607065274862
1362.805925,172.5631744858282
1366.381207,188.38342255735625
1369.951379,193.45219181247805
1373.516452,229.61611721378665
1377.076436,315.41923358709056
1380.631343,416.807615158185
1384.181184,456.46517253528447
1387.725969,390.12861715722653
1391.26571,277.0635762983744
1394.800417,232.0898359488734
1398.330102,277.8599897618749
1401.854776,297.16112889538965
1405.374448,186.37679330156547
1408.889132,10.505447996341331
1412.398837,-65.627451936766
1415.903574,18.464319131000792
1419.403355,170.27341135532552
1422.89819,297.9832926049354
1426.388091,391.3646005299091
1429.873069,433.7500607378639
1433.353134,385.8142937213997
1436.828298,268.61422130391577
1440.298571,142.71218716690362
1443.763965,42.20809976972494
1447.224491,-5.137395496634312
1450.68016,22.655304039354974
1454.130983,96.09452845531854
1457.576971,160.35927196876418
1461.018135,187.38548667199214
1464.454486,166.91069946167502
1467.886036,113.6402996986113
1471.312794,91.97648941181899
1474.734774,143.29076810485358
1478.151985,199.3019131643031
1481.564439,167.07189845632394
1484.972146,81.64090897047524
1488.375119,66.95482310472829
1491.773368,148.14054337506371
1495.166904,211.868097904858
1498.555739,171.9867532585405
1501.939883,73.33903222903442
1505.319349,11.06850381339283
1508.694146,25.40910748360355
1512.064286,83.26768506059813
1515.429781,123.14927656777279
1518.790642,108.26215347473553
1522.146879,43.155075658099896
1525.498505,-26.253057811013534
1528.845529,-36.04441282493107
1532.187965,22.381526004318225
1535.525822,87.97103065956958
1538.859112,126.35047190936042
1542.187846,178.15937472297156
1545.512036,270.1268593760038
1548.831693,327.56034614624696
1552.146829,257.61512974038106
1555.457453,120.08091590405706
1558.763579,105.25632739005044
1562.065216,307.64317993272914
1565.362377,603.7686105639006
1568.655073,798.9248735759102
1571.943315,862.4057216457119
1575.227114,951.3953411929867
1578.506482,1190.5642892860726
1581.781431,1512.885703388131
1585.051971,1752.0689873909323
1588.318114,1796.5522524301948
1591.579872,1619.1907927626733
1594.837255,1267.7488885444268
1598.090275,859.7161238490651
1601.338945,502.9099080545759
1604.583274,239.7259269419203
1607.823275,104.17808236244656
1611.058959,104.9834131000888
1614.290338,137.04579896475673
1617.517422,94.93221069921208
1620.740224,24.231618839805407
1623.958755,-1.5172395208933693
1627.173027,-7.973228944256434
1630.38305,-20.74517244334733
1633.588838,-7.070406018040984
1636.7904,40.602497131665785
1639.987749,75.51165693326875
1643.180896,69.7153086650891
1646.369853,51.42222774073282
1649.554632,41.3395336192371
1652.735244,21.859392674665756
1655.9117,0.8565298994974455
1659.084013,4.513161610883628
1662.252193,11.629103166224027
1665.416254,2.4823097040864326
1668.576205,10.498364040052472
1671.732059,44.52026107344182
1674.883828,54.363081878554055
1678.031523,16.492540783231263
1681.175157,-27.072977303981293
1684.314739,-29.938856494267917
1687.450284,0.29055227317744325
1690.581801,15.336768961656073
1693.709304,-2.6542183597273166
1696.832803,-7.58940318358713
1699.952311,47.725944194568626
1703.067839,139.53992282028352
1706.179399,192.81250656966063
1709.287003,172.65054621129525
1712.390663,134.8126499676479
1715.49039,147.528470517783
1718.586197,182.13742247917645
1721.678095,156.76117286511055
1724.766096,71.80744409953871
1727.850213,5.302952701200027
1730.930456,-10.780072325496064
1734.006838,-0.454990149877915
1737.079372,45.73533967739529
1740.148067,140.54616108637796
1743.212938,213.2124931632504
1746.273996,189.560066912663
1749.331252,118.59730605680127
1752.384718,103.69360213939379
1755.434408,152.73177114415677
1758.480332,174.70913756843004
1761.522503,106.37225544428674
1764.560933,8.618441641008708
1767.595634,-3.257732404928383
1770.626618,69.46183080954609
1773.653896,111.21043793292995
1776.677482,89.76843781190705
1779.697388,102.46138884252387
1782.713625,186.23628655236703
1785.726205,236.05581995535837
1788.735141,172.26791572802742
1791.740445,76.07160556261051
1794.742129,78.19769852835749
1797.740206,177.6997898640816
1800.734687,263.88787503867314
1803.725585,271.62583239643186
1806.712912,216.27605594852736
1809.69668,124.35642796582763
1812.676902,27.079143909520628
1815.65359,-23.927141837725944
1818.626756,-6.873814909621153
1821.596413,46.256978284969136
1824.562573,92.00967888767028
1827.525247,96.4484732189137
1830.48445,51.72088881375201
1833.440192,7.213224039317122
1836.392487,13.081509102779238
1839.341347,45.17273767039244
1842.286784,67.8903691638423
1845.22881,94.4351792632819
1848.167439,113.77700831084309
1851.102682,90.19686788110613
1854.034553,76.26563310981348
1856.963063,157.1783874122071
1859.888226,272.97186007767334
1862.810053,274.36284638463064
1865.728557,143.08604134909845
1868.643751,5.675700535469346
1871.555648,-37.280104399272204
1874.46426,9.540482027280376
1877.369599,86.13861084383466
1880.271679,146.16666858700674
1883.170512,180.68993588115188
1886.06611,184.30596093910736
1888.958487,149.11283337995548
1891.847655,106.75622253971895
1894.733626,100.07588790424627
1897.616414,117.84427284508234
1900.496032,130.24847568087642
1903.372491,143.16770461849563
1906.245805,160.49194472848004
1909.115987,157.7016855123936
1911.983049,127.07104007946482
1914.847004,93.55395340197668
1917.707866,69.9473995367458
1920.565646,40.68330829048092
1923.420359,2.1141521871314666
1926.272016,-20.771003005909513
1929.120631,-10.121417314256579
1931.966216,19.84593465843645
1934.808786,36.805040221881875
1937.648351,23.568608633084843
1940.484927,18.645736718399768
1943.318525,102.85223416257548
1946.149158,275.9492624385355
1948.97684,391.3151774074848
1951.801584,326.5079140499962
1954.623403,145.5146800937455
1957.44231,-3.7821434875155404
1960.258318,-43.528321585331554
1963.071439,17.147735218766748
1965.881688,100.07232309386526
1968.689078,102.25113388477246
1971.493621,4.907864926922372
