Raman shift cm-1,4ATP_100pM_rep1_acc3_processed_intensity
-93.47115107,436.26551165431187
-87.69374369,51.43024995654322
-81.9253076,-36.476695544100515
-76.16582701,7.883555239450628
-70.41528615,1.0177099536604857
-64.67366933,-12.931807073015666
-58.94096086,-20.393400667960798
-53.21714512,-29.45841590337447
-47.50220652,14.19878391767628
-41.79612954,129.08745360461674
-36.09889866,258.60504223125076
-30.41049843,248.87325191718566
-24.73091343,111.78138454168055
-19.0601283,94.19128103677221
-13.39812769,112.30835154438407
-7.744896327,-0.973731482990134
-2.100418946,-25.879028576485517
3.535319659,47.65166979320588
9.162334658,31.217818148867597
14.78064118,-3.478896358284212
20.39025432,-10.025769015954749
25.99118913,37.873655681890895
31.58346061,159.06277798715175
37.16708375,146.477936506219
42.74207347,12.105501511935508
48.30844468,5.192057609338441
53.86621222,23.665600701587117
59.41539093,-79.11803509317546
64.95599558,-67.21551075916923
70.48804091,109.6436331570026
76.01154164,115.05534326129612
81.52651243,17.891111185532324
87.03296792,136.39519766903334
92.5309227,189.95140196776265
98.02039134,18.219098771281452
103.5013884,33.98252719703129
108.9739282,136.9728170187895
114.4380255,60.01538153100329
119.8936944,160.66123237136557
125.3409495,345.59550761939374
130.779805,131.32235051931343
136.2102753,-105.1984451182584
141.6323747,21.39817106112138
147.0461174,105.03676853282357
152.4515176,-5.603654289411679
157.8485895,-58.80258023993969
163.2373472,-63.07318206357846
168.6178049,-45.52237592627955
173.9899766,40.03960796356154
179.3538764,59.07424938239791
184.7095182,12.361782609007662
190.0569161,50.762623788349856
195.396084,89.12730697561119
200.7270358,34.43363439653302
206.0497854,-14.465011755008788
211.3643466,-13.416290327012291
216.6707333,-0.845744553536349
221.9689593,59.758623360179115
227.2590382,160.19329515953717
232.5409839,143.48762994170158
237.8148101,105.16397801443867
243.0805303,233.19136372526975
248.3381582,330.9732640257098
253.5877075,345.3463426475816
258.8291917,420.00852076973433
264.0626244,500.0903326325404
269.288019,640.1126890336676
274.5053891,784.1659189835418
279.7147481,708.9033524628553
284.9161094,615.1820833275949
290.1094865,696.2774196585922
295.2948927,753.936549826814
300.4723414,612.5430555541021
305.6418459,212.33168633161335
310.8034194,-110.66228433389568
315.9570752,19.68209338179205
321.1028267,146.23426178018295
326.2406869,5.3112994037294
331.370669,50.38040405499679
336.4927863,135.65110944401502
341.6070517,-15.552323196028802
346.7134786,-34.53386268707777
351.8120798,33.11118986213804
356.9028684,-44.61720543592382
361.9858576,12.116675721011227
367.0610602,143.75701946385723
372.1284892,114.60108659605412
377.1881577,164.27248567626813
382.2400784,466.77865881727195
387.2842644,837.0474799711844
392.3207284,977.5288973902678
397.3494833,887.6897213312161
402.370542,701.0088930466912
407.3839172,341.16603653407685
412.3896217,47.278354736849664
417.3876683,45.716168043166434
422.3780697,40.17567629653573
427.3608386,-49.237225300813215
432.3359876,-30.9192977180529
437.3035295,88.77200512198674
442.2634769,131.32021806562977
447.2158423,40.86791221788461
452.1606383,36.34327729886574
457.0978776,80.95989661915628
462.0275727,-26.621319364771423
466.9497361,-107.05495291265763
471.8643802,-17.70983036734009
476.7715176,112.86600536734478
481.6711608,130.87365950957104
486.5633221,30.82970748334678
491.448014,-16.908800454484904
496.3252488,4.409925740551174
501.195039,24.423760519040822
506.0573969,60.57605855590184
510.9123349,-8.49369237154955
515.7598651,-106.94659768512811
520.6,58.899404701972415
525.4327518,227.1867633953873
530.2581327,60.881834478715916
535.076155,-39.615412871521016
539.8868309,102.25666453084777
544.6901726,117.80368895263706
549.4861922,170.39610120856915
554.2749019,293.0207744044364
559.0563139,43.14731025884223
563.8304402,-87.7719827421963
568.597293,230.01253451660173
573.3568844,237.26609991881136
578.1092263,-3.609932790539562
582.8543308,32.70748414596417
587.5922101,54.4643029471472
592.322876,-42.6713762002987
597.0463405,-24.6569998502311
601.7626157,42.38451934641267
606.4717135,29.072025039298907
611.1736458,-52.06789189939268
615.8684246,-18.048413845840706
620.5560617,102.75827098512168
625.2365691,39.28662202244133
629.9099585,-27.141708412239346
634.5762419,99.20182971795671
639.2354312,162.7593710376294
643.887538,57.80563715729313
648.5325743,-55.88840006632605
653.1705518,-10.421076393100888
657.8014823,83.30918356859536
662.4253775,12.052354601291636
667.0422493,-40.638895950812724
671.6521092,18.34074428591261
676.2549691,17.265951331622475
680.8508407,14.254733686483593
685.4397355,20.422893581147196
690.0216654,-39.66899000110289
694.5966419,-44.89570759612873
699.1646767,-5.931347473543653
703.7257814,17.021608996115727
708.2799676,53.27748305128249
712.827247,45.31770903499806
717.367631,47.94417962794064
721.9011314,16.41054695984548
726.4277595,-102.80684300552807
730.9475271,-19.81674040582774
735.4604456,184.03022705057134
739.9665264,167.05832401028795
744.4657813,120.0361287731416
748.9582215,153.83768489682382
753.4438587,57.0191776756584
757.9227042,-60.129980151827446
762.3947696,-6.292225446089724
766.8600662,156.6848509559041
771.3186056,235.59652519106515
775.770399,166.92438113453153
780.215458,117.6663872995678
784.6537939,37.22276234945244
789.0854181,-90.55192802928453
793.510342,24.663416982755294
797.9285769,214.07741103177085
802.3401342,125.01966828372191
806.7450253,4.412864715943378
811.1432614,38.97179741403509
815.5348538,15.31009345553057
819.9198139,-33.34301794781917
824.2981531,45.53133242460626
828.6698824,111.70364198731596
833.0350133,30.566755783026057
837.393557,-42.40817421474254
841.7455248,-0.17471366020539314
846.0909278,2.4259645613997813
850.4297774,-9.760233588843597
854.7620848,55.0604060978356
859.0878611,5.947707658799139
863.4071176,-83.08094983902217
867.7198655,79.00460583511692
872.026116,281.62853979003694
876.3258802,227.93458153724276
880.6191693,170.3269201761408
884.9059946,300.6714273414416
889.186367,296.67334615920475
893.4602979,58.766192045675695
897.7277982,-28.599902341406178
901.9888793,157.41186918064687
906.2435521,269.9624054910141
910.4918277,125.89287465137079
914.7337174,-23.926282584284287
918.9692321,-7.5826256559919685
923.1983831,123.262840903566
927.4211813,274.74626168963664
931.6376378,235.5075835173275
935.8477637,113.73975882019182
940.0515701,156.2258064884741
944.249068,112.78887913554817
948.4402684,-39.44883615791617
952.6251825,-9.74555273583178
956.8038212,122.50035249548898
960.9761955,143.40570150873913
965.1423166,39.933636042749995
969.3021953,31.754833836698822
973.4558427,76.63928685242084
977.6032699,-15.218944753293947
981.7444877,21.3685936526161
985.8795072,145.14719123881406
990.0083394,58.062816124142834
994.1309953,6.990721327765769
998.2474857,54.04794413816944
1002.357822,-30.836924407483757
1006.462014,-117.39344810635312
1010.560075,-19.483390837290656
1014.652013,190.13519798428004
1018.737841,264.0921795692019
1022.81757,117.9967765772956
1026.891209,29.479920025665955
1030.958771,138.5710627359441
1035.020266,163.56517168782284
1039.075705,27.52765017698303
1043.1251,82.84092588456562
1047.16846,242.76988659554587
1051.205797,141.30978606934355
1055.237121,5.487570247605461
1059.262444,-18.398838444645023
1063.281777,-23.487529258110683
1067.295131,185.10259313361348
1071.302515,435.0166177455731
1075.303942,545.0986718310385
1079.299422,713.1443250286634
1083.288966,665.8276760137725
1087.272585,332.7501422573141
1091.250289,161.13905400617435
1095.222091,111.93571030426997
1099.187999,53.065598130703435
1103.148026,92.69899832134354
1107.102183,149.34349990856387
1111.050479,123.6389468159314
1114.992927,36.22532223868605
1118.929536,-19.281537927221287
1122.860318,-41.82915049261189
1126.785283,-96.94941075372022
1130.704443,-16.912867121003572
1134.617808,138.90066599476557
1138.52539,119.63756260974594
1142.427198,73.89841974877892
1146.323244,57.96965290628239
1150.213538,5.050149262294397
1154.098093,5.006517795947474
1157.976917,10.646088692795729
1161.850023,18.164869013130456
1165.717421,59.593525698334275
1169.579121,102.61061279962898
1173.435135,89.07518904519446
1177.285474,-20.276186719044695
1181.130148,31.00856226368633
1184.969169,230.7266317492895
1188.802547,183.43650880962574
1192.630292,18.46584157473175
1196.452416,2.0603838007123993
1200.26893,-35.11921134951106
1204.079844,-93.87064572599265
1207.88517,-33.1000446625235
1211.684917,46.82074159270694
1215.479098,167.62138744274887
1219.267722,263.5560806395963
1223.050801,104.81215355814894
1226.828346,-26.199521551390124
1230.600366,127.99969580574793
1234.366874,210.20543146678168
1238.12788,45.24473667583933
1241.883395,8.135044423972442
1245.633429,209.12190847722204
1249.377994,251.98349963742527
1253.1171,98.77168394177762
1256.850759,33.46331381271288
1260.578981,60.24965064860741
1264.301776,83.98489012649351
1268.019157,36.13028375547603
1271.731133,-79.0397131548568
1275.437715,-119.25325266066571
1279.138915,24.5458658950336
1282.834743,208.99174786711586
1286.52521,123.76350026436819
1290.210328,-52.54302560912797
1293.890106,57.71894249060115
1297.564555,155.6139248072
1301.233688,33.89360240059785
1304.897514,46.2235312597965
1308.556044,166.06192341870846
1312.209289,95.990331059006
1315.857261,-39.672748015406775
1319.499969,-1.7613929155800836
1323.137425,140.45506406642
1326.769641,219.28219724218982
1330.396626,194.4643899376563
1334.018391,101.16533255336542
1337.634948,37.6547677406481
1341.246307,28.677482475854884
1344.85248,-15.977099698822327
1348.453477,-72.86965258340486
1352.049309,-67.00259346253286
1355.639987,2.3987562379440277
1359.225522,87.1817131124926
1362.805925,97.73441604849384
1366.381207,44.72852756135802
1369.951379,15.776339817723631
1373.516452,12.711742565123544
1377.076436,12.280625775745634
1380.631343,38.80473892122158
1384.181184,105.03639431138545
1387.725969,110.74563671659038
1391.26571,21.3423066027345
1394.800417,26.942832380231614
1398.330102,139.50252809759283
1401.854776,168.99671683306426
1405.374448,112.37205977514603
1408.889132,-7.539832868260731
1412.398837,-102.64700443550771
1415.903574,22.46473370505744
1419.403355,174.47467947137244
1422.89819,143.72412461934584
1426.388091,142.34617061397714
1429.873069,183.13951069173845
1433.353134,145.6690723339958
1436.828298,139.96106238119046
1440.298571,115.21570695928796
1443.763965,-16.781997060725345
1447.224491,-65.52663266529989
1450.68016,28.56195701497667
1454.130983,84.46958454038142
1457.576971,111.24699609101027
1461.018135,179.88782404007998
1464.454486,181.61197814423787
1467.886036,110.12233224332556
1471.312794,48.45108088017432
1474.734774,52.288065135000835
1478.151985,148.0820934736089
1481.564439,160.9029993271231
1484.972146,-9.838700782442217
1488.375119,-94.96839534888213
1491.773368,45.27648063067617
1495.166904,124.28770943749912
1498.555739,39.64162293097542
1501.939883,-7.261071694100629
1505.319349,-21.12814101346477
1508.694146,10.913327663757137
1512.064286,101.89330722393865
1515.429781,43.576932803790534
1518.790642,-22.558213822793206
1522.146879,42.71752647828367
1525.498505,-18.987885966053938
1528.845529,-56.4218300748871
1532.187965,81.06352164680558
1535.525822,131.13057485766763
1538.859112,168.6256504234232
1542.187846,234.30348382811707
1545.512036,247.85622585450017
1548.831693,346.88870315067777
1552.146829,302.68381624044616
1555.457453,34.30515256179108
1558.763579,-30.499043104705635
1562.065216,136.7809464645031
1565.362377,315.51816909286396
1568.655073,430.95166963084745
1571.943315,400.554220617782
1575.227114,355.0504737135635
1578.506482,454.01674593487803
1581.781431,504.5772687293787
1585.051971,423.7156520400539
1588.318114,425.7260077902006
1591.579872,503.38931908695486
1594.837255,421.1164285026045
1598.090275,246.3698439706643
1601.338945,305.7533823343972
1604.583274,302.9244809544038
1607.823275,-36.74455674617455
1611.058959,-20.093696416403198
1614.290338,224.5091679808581
1617.517422,55.53319033799926
1620.740224,16.995405340635813
1623.958755,128.63790872190873
1627.173027,-18.20147055148199
1630.38305,-8.150919460790192
1633.588838,76.51689185951813
1636.7904,22.924311565923077
1639.987749,114.02614274468729
1643.180896,117.6202785174559
1646.369853,-13.008421003977531
1649.554632,95.33496944215878
1652.735244,144.60676333605258
1655.9117,-20.853439241431943
1659.084013,18.092664739958636
1662.252193,117.87107222498335
1665.416254,15.956955170447117
1668.576205,24.74015649719059
1671.732059,166.81712677257082
1674.883828,134.7001209289645
1678.031523,12.947303856388295
1681.175157,-33.244253039873236
1684.314739,-25.555153279195878
1687.450284,24.36348235700028
1690.581801,9.028191338970665
1693.709304,-80.79262084385074
1696.832803,-57.39726103422909
1699.952311,24.830298863407755
1703.067839,37.41093473232494
1706.179399,59.27010941159162
1709.287003,79.14460395356261
1712.390663,58.927380192108096
1715.49039,82.05483710599896
1718.586197,117.34332696112287
1721.678095,51.44749868007459
1724.766096,-77.90622984362788
1727.850213,-77.38588283284663
1730.930456,49.124895662282455
1734.006838,25.84957956881061
1737.079372,-44.333915943536155
1740.148067,139.08634289872555
1743.212938,304.7620131376932
1746.273996,208.84474003359554
1749.331252,125.01653078415688
1752.384718,167.19129549691797
1755.434408,192.06835635793288
1758.480332,187.59380674262366
1761.522503,136.38864858443347
1764.560933,-15.390785069925556
1767.595634,-50.048738672854086
1770.626618,131.7907891503604
1773.653896,174.71342849800828
1776.677482,43.15427069695844
1779.697388,55.93572032769027
1782.713625,165.22485581671825
1785.726205,195.2557061121939
1788.735141,117.39462494990838
1791.740445,-13.787747398559844
1794.742129,5.964577699510627
1797.740206,201.18810798042216
1800.734687,280.3932545201826
1803.725585,172.6622688688408
1806.712912,133.48620214546708
1809.69668,174.68959549382345
1812.676902,76.48626616604287
1815.65359,-30.21813024307116
1818.626756,8.630122438402623
1821.596413,-5.239335397591731
1824.562573,-15.366284507826705
1827.525247,95.19446208200094
1830.48445,80.94385459112465
1833.440192,-18.04906399955343
1836.392487,34.41671518697635
1839.341347,95.68536261539327
1842.286784,21.72016167722813
1845.22881,-16.739047459551678
1848.167439,70.41129624108586
1851.102682,54.104525580395865
1854.034553,-68.96936088118483
1856.963063,42.203431633382735
1859.888226,238.5343542390327
1862.810053,164.74771868234467
1865.728557,39.77119156558556
1868.643751,-2.4768502278681552
1871.555648,-82.51501400782982
1874.46426,-19.381769084181734
1877.369599,120.01501923208559
1880.271679,44.655114363447524
1883.170512,-7.810290181127183
1886.06611,75.44733481481344
1888.958487,0.7614523340722474
1891.847655,-76.06795344784044
1894.733626,26.10731571507647
1897.616414,22.560770414299345
1900.496032,-37.10196820885777
1903.372491,56.88755154762629
1906.245805,101.18789577329798
1909.115987,37.28967490174587
1911.983049,2.8147790706713707
1914.847004,16.645878158907603
1917.707866,44.964884379421704
1920.565646,0.8692970412143062
1923.420359,-55.12006844758887
1926.272016,-49.88003356043336
1929.120631,-41.83558977750187
1931.966216,-15.264148615455804
1934.808786,8.686895460541656
1937.648351,42.6696842038476
1940.484927,42.20837401245134
1943.318525,-30.615493836476496
1946.149158,133.21736084357948
1948.97684,364.57795960508287
1951.801584,212.75411598208441
1954.623403,60.38054947298791
1957.44231,108.17585977273615
1960.258318,8.406941187895939
1963.071439,-96.74311857522059
1965.881688,-17.768914221081893
1968.689078,45.42913881564351
1971.493621,6.741281876462075
