Raman shift cm-1,4ATP_100nM_rep3_acc5_processed_intensity
-93.47115107,458.4711026338658
-87.69374369,41.71128277812722
-81.9253076,-96.60823993955243
-76.16582701,11.31682986508504
-70.41528615,60.2032709242005
-64.67366933,8.074881258721526
-58.94096086,-10.583611475581655
-53.21714512,-51.3494790414898
-47.50220652,-52.52173736726412
-41.79612954,56.9129001960777
-36.09889866,132.49191400208008
-30.41049843,95.72671018713042
-24.73091343,43.911174557348474
-19.0601283,86.10887900892975
-13.39812769,50.80349821146116
-7.744896327,-55.329848677266696
-2.100418946,46.96764449891441
3.535319659,146.9023685786217
9.162334658,94.4032399961148
14.78064118,11.027905007954601
20.39025432,-101.83026680802261
25.99118913,14.547254296151465
31.58346061,219.6015378290782
37.16708375,114.37599690102678
42.74207347,22.18952730311762
48.30844468,55.74888162185993
53.86621222,-14.614565157781293
59.41539093,-67.26801461617478
64.95599558,-40.98107621775038
70.48804091,54.327405091475065
76.01154164,64.29295350304653
81.52651243,-78.2199777124093
87.03296792,11.895353257407223
92.5309227,147.28507420883736
98.02039134,-3.7008562174351205
103.5013884,20.37006218893299
108.9739282,161.66752182364513
114.4380255,60.97946813496499
119.8936944,141.0357079344401
125.3409495,341.4619641215258
130.779805,125.90944703233843
136.2102753,-115.8367962082599
141.6323747,30.443284536673424
147.0461174,149.5291854781278
152.4515176,31.680535471003715
157.8485895,-50.59415130739407
163.2373472,12.109840970796807
168.6178049,122.00077365267191
173.9899766,189.8256644354324
179.3538764,178.6516386044667
184.7095182,143.9827715572011
190.0569161,162.67330624101976
195.396084,143.06620037411767
200.7270358,20.861910102497536
206.0497854,-11.3422099001966
211.3643466,66.31158203372026
216.6707333,38.2994080448336
221.9689593,-23.186844812304642
227.2590382,-3.8018992993051395
232.5409839,-27.844931564943636
237.8148101,-56.23640816819676
243.0805303,-17.17723890316865
248.3381582,26.297793514827422
253.5877075,64.59565813612828
258.8291917,13.9395488357561
264.0626244,-24.286167954103703
269.288019,115.43680375021603
274.5053891,131.3209840013237
279.7147481,-17.35518315603871
284.9161094,-31.71447858972248
290.1094865,-5.082879250909112
295.2948927,150.65962088031483
300.4723414,566.2190497817102
305.6418459,967.210018424321
310.8034194,1429.470182745632
315.9570752,1892.257392574536
321.1028267,1945.8630987224751
326.2406869,1896.4157337424201
331.370669,2005.7786333584759
336.4927863,1984.896586947401
341.6070517,1998.3428179075624
346.7134786,2190.1832861652006
351.8120798,2224.3749799245375
356.9028684,2128.1950787970145
361.9858576,2115.4974212382067
367.0610602,2109.026461281457
372.1284892,2187.4048592065124
377.1881577,2678.097599894446
382.2400784,3933.441835825415
387.2842644,5657.722075428594
392.3207284,6496.808263888933
397.3494833,5822.881361176356
402.370542,4452.118614887632
407.3839172,3111.781298827752
412.3896217,2096.0714868255236
417.3876683,1372.6072229511942
422.3780697,862.9446336240433
427.3608386,664.4589720473621
432.3359876,551.1942631684543
437.3035295,475.79652807786783
442.2634769,446.78717914304946
447.2158423,228.10876801445772
452.1606383,51.51528331352688
457.0978776,11.109769688916344
462.0275727,-54.248866860434646
466.9497361,-18.590635375024817
471.8643802,66.41632857868501
476.7715176,158.35406591551873
481.6711608,359.89886646282855
486.5633221,534.0132210117716
491.448014,508.7663053993798
496.3252488,334.3703368012576
501.195039,252.97923011017406
506.0573969,303.24910082162523
510.9123349,160.58677831597987
515.7598651,-63.04570527164253
520.6,86.48664335760077
525.4327518,260.0282768656932
530.2581327,39.80971854567639
535.076155,21.514595121047137
539.8868309,314.8505836619953
544.6901726,224.31705734813005
549.4861922,137.4972116685821
554.2749019,313.8318653018889
559.0563139,43.68853007188717
563.8304402,-99.63571887826923
568.597293,297.67170756763403
573.3568844,267.171865276253
578.1092263,-6.740699450948206
582.8543308,46.50389470257717
587.5922101,18.499696301437126
592.322876,-74.34901178039524
597.0463405,-3.1470149387575828
601.7626157,27.262493480076596
606.4717135,-18.276682685594537
611.1736458,5.463835388495857
615.8684246,126.18176097557249
620.5560617,177.99993851331976
625.2365691,138.13893725781216
629.9099585,192.9054314724172
634.5762419,231.3586546103531
639.2354312,167.74786541999714
643.887538,85.56798010476899
648.5325743,2.8541115141912172
653.1705518,-9.98514145350132
657.8014823,-19.219038935405855
662.4253775,-6.034988843500862
667.0422493,63.82209613956232
671.6521092,57.388281990272795
676.2549691,94.22032196302095
680.8508407,132.07434979655687
685.4397355,-6.590859366174506
690.0216654,-93.74783844962381
694.5966419,40.17535521878659
699.1646767,217.3921827576621
703.7257814,292.9326956083017
708.2799676,379.2080186170083
712.827247,443.93529796880875
717.367631,318.4300745449986
721.9011314,152.73384098769031
726.4277595,31.130240983260926
730.9475271,-14.860353632722653
735.4604456,143.71089717068548
739.9665264,240.20431178748288
744.4657813,160.15151222350752
748.9582215,97.71322617650203
753.4438587,8.66050921401805
757.9227042,-64.0218365303065
762.3947696,-58.04581544073051
766.8600662,51.88255523538964
771.3186056,196.34371353084543
775.770399,168.62511047049065
780.215458,128.25474233565942
784.6537939,104.05429059490788
789.0854181,17.656598922601297
793.510342,162.21379365214165
797.9285769,432.54659150389784
802.3401342,436.49833122767586
806.7450253,275.4344963791446
811.1432614,209.9551424604773
815.5348538,161.2894093012581
819.9198139,61.7285767077786
824.2981531,58.165569799308976
828.6698824,84.06486916620278
833.0350133,7.097591718552049
837.393557,-25.181770915519678
841.7455248,41.01194918461036
846.0909278,1.4587364051281728
850.4297774,-109.11163622475074
854.7620848,-61.29886573333588
859.0878611,21.427192607633906
863.4071176,-15.543306810325141
867.7198655,32.14559345630276
872.026116,233.656925252128
876.3258802,304.33974167808367
880.6191693,180.92252344426254
884.9059946,191.8353666238225
889.186367,267.9518881179186
893.4602979,38.491756960037904
897.7277982,-165.82559940890746
901.9888793,50.68681459654505
906.2435521,236.13614837977795
910.4918277,66.13790003547345
914.7337174,-52.27442902265017
918.9692321,64.47217030974758
923.1983831,162.31201367380214
927.4211813,208.56122357365007
931.6376378,217.89877753211766
935.8477637,200.6602550049788
940.0515701,185.87073704788418
944.249068,28.9042405606217
948.4402684,-31.438012862921994
952.6251825,113.9208944470476
956.8038212,179.84312506241088
960.9761955,242.86162156454805
965.1423166,222.36264217177893
969.3021953,122.61048659597117
973.4558427,158.2070770079518
977.6032699,99.87193436701125
981.7444877,13.531671225620414
985.8795072,54.27044933545886
990.0083394,6.476124288484925
994.1309953,-35.9739529010875
998.2474857,14.194770294702664
1002.357822,103.02558988152231
1006.462014,205.544806567043
1010.560075,110.15219972572078
1014.652013,-22.07192606804088
1018.737841,57.353155774274654
1022.81757,46.42730741780494
1026.891209,-86.80436148582643
1030.958771,-7.199343364277425
1035.020266,107.41441884319313
1039.075705,-29.911884533972597
1043.1251,-93.06012590985999
1047.16846,30.735506747345596
1051.205797,48.5644607737271
1055.237121,180.69066086525467
1059.262444,594.1519134910845
1063.281777,1248.8375358994012
1067.295131,2523.2215041889312
1071.302515,4088.3388370471607
1075.303942,4847.5614682825335
1079.299422,4410.829055889686
1083.288966,3095.3844711540955
1087.272585,1625.5114108959103
1091.250289,666.0577874877304
1095.222091,198.90760669705665
1099.187999,45.75831589303045
1103.148026,20.348377852891147
1107.102183,-45.504976107159465
1111.050479,-40.488086535435556
1114.992927,-10.254146835137803
1118.929536,43.88958786865136
1122.860318,252.4044963392385
1126.785283,572.5367042211587
1130.704443,1172.3578836657568
1134.617808,1944.509009395701
1138.52539,2372.851823909505
1142.427198,2255.6306987402036
1146.323244,1616.8301338051574
1150.213538,941.7233506195435
1154.098093,664.0571093693666
1157.976917,539.1692020759408
1161.850023,528.3967011103182
1165.717421,650.7718473105923
1169.579121,714.3007561582817
1173.435135,769.3444710131887
1177.285474,882.2074344741375
1181.130148,985.4452148001687
1184.969169,998.7053492660991
1188.802547,875.1032216282525
1192.630292,579.2034817282087
1196.452416,288.96326826185043
1200.26893,150.625841018053
1204.079844,31.855471729342753
1207.88517,-24.961269206428764
1211.684917,-4.91710603854956
1215.479098,111.05832081461287
1219.267722,238.81785514945085
1223.050801,60.64888693467248
1226.828346,-46.9198040207329
1230.600366,195.4663079991104
1234.366874,285.2607018762533
1238.12788,189.3105462749901
1241.883395,266.2028642528652
1245.633429,434.05276227690285
1249.377994,414.0390788543203
1253.1171,285.6749628595216
1256.850759,241.68473437529838
1260.578981,221.59439793253898
1264.301776,202.83210485545192
1268.019157,140.98401737105206
1271.731133,-2.004189682893198
1275.437715,-26.843010998799578
1279.138915,112.90399666396068
1282.834743,199.97044370575819
1286.52521,97.8106023544511
1290.210328,-45.55059220642825
1293.890106,26.4531922209623
1297.564555,223.14518908555127
1301.233688,275.36707518513305
1304.897514,264.2145775490806
1308.556044,330.9676439189008
1312.209289,220.13203166170942
1315.857261,-18.36722367511456
1319.499969,57.63355804075866
1323.137425,204.3017296016343
1326.769641,174.8909148472838
1330.396626,221.176926193123
1334.018391,225.49813680584072
1337.634948,145.84584000035994
1341.246307,128.08658284609635
1344.85248,102.29307622626612
1348.453477,7.290419154187077
1352.049309,-103.23805469951452
1355.639987,29.023112539968622
1359.225522,237.87699503385733
1362.805925,149.58811519288167
1366.381207,47.891534630204205
1369.951379,63.211680256827435
1373.516452,152.20922353464175
1377.076436,397.26338135875574
1380.631343,581.7596189450114
1384.181184,810.8798210278838
1387.725969,1090.802247894544
1391.26571,936.1250956702711
1394.800417,559.3843960816143
1398.330102,379.97038600207134
1401.854776,247.05552613038515
1405.374448,112.08960083467485
1408.889132,-6.369805634284489
1412.398837,-60.76023260091607
1415.903574,188.00113683908717
1419.403355,585.2395201758178
1422.89819,892.7973225250149
1426.388091,1212.473794745288
1429.873069,1358.0616902109696
1433.353134,1128.0755023352965
1436.828298,755.6443569233186
1440.298571,444.17747353111383
1443.763965,202.66795352075113
1447.224491,29.361956890377932
1450.68016,-2.4639394576447318
1454.130983,24.38848724854004
1457.576971,-37.52388201724726
1461.018135,-32.929123140383346
1464.454486,89.95096139243621
1467.886036,99.8768592827755
1471.312794,8.286902521444455
1474.734774,29.63355938716082
1478.151985,95.84115462853005
1481.564439,65.2714264152612
1484.972146,-19.140652835339246
1488.375119,-71.71383677146942
1491.773368,62.792771855884304
1495.166904,198.19302166635626
1498.555739,47.267222623003875
1501.939883,-87.53330939630219
1505.319349,-35.45402281668159
1508.694146,13.716599797312881
1512.064286,24.853740589139164
1515.429781,10.684385472933215
1518.790642,29.413128495663237
1522.146879,18.940994672420537
1525.498505,-115.3074113070804
1528.845529,-103.02458173456287
1532.187965,44.56895529166471
1535.525822,65.26225970507369
1538.859112,82.24258820621216
1542.187846,34.92483105733302
1545.512036,1.0087095319515527
1548.831693,234.28324174614406
1552.146829,254.923459443534
1555.457453,23.671633926782704
1558.763579,166.2956086762864
1562.065216,546.1533518190496
1565.362377,826.6238934202361
1568.655073,1096.268679158634
1571.943315,1274.0031383853113
1575.227114,1294.7503670663327
1578.506482,1443.7625556713497
1581.781431,1683.8855491613763
1585.051971,1731.0545726382004
1588.318114,1650.0422951260882
1591.579872,1452.1185141056392
1594.837255,1028.0601810244812
1598.090275,531.5566909414408
1601.338945,327.61440237609185
1604.583274,261.51857163302486
1607.823275,-18.079478353268115
1611.058959,27.523993258898997
1614.290338,270.75430226381036
1617.517422,32.48983102022021
1620.740224,-44.11629297576134
1623.958755,132.03909778297597
1627.173027,-16.34946721515874
1630.38305,-43.9981187315653
1633.588838,62.520847228155375
1636.7904,-14.006764865442364
1639.987749,90.88578520615813
1643.180896,180.51873693667022
1646.369853,45.81050524078615
1649.554632,129.3174972293041
1652.735244,139.1934180918094
1655.9117,-86.45593428835964
1659.084013,44.34976551732234
1662.252193,180.0243757762384
1665.416254,-52.46445380275735
1668.576205,5.95789340436324
1671.732059,271.5426546829767
1674.883828,171.57219503416985
1678.031523,36.88513626510057
1681.175157,84.07357511090316
1684.314739,40.70247623085123
1687.450284,3.708415641707173
1690.581801,17.307731147734597
1693.709304,-53.40310417551705
1696.832803,-42.61701453859238
1699.952311,25.066744891587742
1703.067839,8.23004173362237
1706.179399,89.66582543571897
1709.287003,166.36964700860705
1712.390663,45.208437795539275
1715.49039,62.348552289324736
1718.586197,206.42448019705563
1721.678095,82.16334230165762
1724.766096,-89.71661099874076
1727.850213,-70.93511918782005
1730.930456,-13.670634617407618
1734.006838,12.95502111898913
1737.079372,-27.89251657439385
1740.148067,41.38434177610725
1743.212938,215.1743753291754
1746.273996,146.51779538827225
1749.331252,28.102746483849607
1752.384718,49.81428056858342
1755.434408,54.14086164513219
1758.480332,108.56751463632105
1761.522503,98.99595262386862
1764.560933,-67.19626657002073
1767.595634,-77.69713561044524
1770.626618,104.55795438575414
1773.653896,165.71469892182768
1776.677482,59.19699642403502
1779.697388,12.31128910577349
1782.713625,84.35725676771216
1785.726205,192.42120785339668
1788.735141,201.21199674363248
1791.740445,23.57127859921121
1794.742129,-32.25324157462311
1797.740206,139.72059481802768
1800.734687,177.2810697670086
1803.725585,112.46801228776573
1806.712912,137.08672075775144
1809.69668,136.68666182431127
1812.676902,46.60248201011991
1815.65359,-53.952440301832944
1818.626756,-40.263278196018085
1821.596413,36.0848186897104
1824.562573,26.60227288266212
1827.525247,3.296059083429526
1830.48445,-2.557687879209645
1833.440192,-46.76630052538269
1836.392487,-11.847651504597575
1839.341347,86.76963423439264
1842.286784,57.97729821531636
1845.22881,16.96529506862471
1848.167439,93.94313262247263
1851.102682,59.24942951598275
1854.034553,-84.90106081267294
1856.963063,-8.935606862131808
1859.888226,191.88701809848848
1862.810053,160.05178838645048
1865.728557,26.895269235293686
1868.643751,8.552101139560255
1871.555648,-37.00851659142184
1874.46426,-74.28531055098101
1877.369599,9.142065735174636
1880.271679,52.333365063712385
1883.170512,33.63038689323819
1886.06611,32.6442522618256
1888.958487,-26.415987761798952
1891.847655,-56.7765632547684
1894.733626,28.10602482762014
1897.616414,-3.442894228485102
1900.496032,-93.77551634225249
1903.372491,32.317203698397854
1906.245805,137.8017169022735
1909.115987,53.38737096164547
1911.983049,11.471665086337921
1914.847004,54.456200941378285
1917.707866,57.364110879594875
1920.565646,11.602111927016711
1923.420359,-0.6794943963116382
1926.272016,-35.2512850187957
1929.120631,-87.97148728280199
1931.966216,-40.85912434817867
1934.808786,-5.725716429978206
1937.648351,43.08767341911437
1940.484927,79.84736372627083
1943.318525,-11.482074234759018
1946.149158,156.14952746753013
1948.97684,401.60576979736766
1951.801584,192.85083714265437
1954.623403,11.145733728217596
1957.44231,59.85800522943063
1960.258318,-31.920561025325682
1963.071439,-71.23790011915675
1965.881688,27.65358172972335
1968.689078,36.38570249093675
1971.493621,-11.02389860303617
