Raman shift cm-1,4ATP_100fM_rep3_acc1_processed_intensity
-93.47115107,571.8140146300116
-87.69374369,129.84548960741034
-81.9253076,-23.00866466528086
-76.16582701,48.58832057589519
-70.41528615,79.47356806456675
-64.67366933,-0.28280301712756994
-58.94096086,-55.98139753610355
-53.21714512,-29.05641551509222
-47.50220652,32.33794408430017
-41.79612954,108.14655608262993
-36.09889866,178.65789454241923
-30.41049843,183.60010578161626
-24.73091343,115.81818601305321
-19.0601283,39.728041703054394
-13.39812769,-6.214650091122914
-7.744896327,-13.707904859405208
-2.100418946,29.80386550669407
3.535319659,82.02909442879702
9.162334658,65.76781610296987
14.78064118,7.3010618178523625
20.39025432,21.912403849952135
25.99118913,125.05687062175126
31.58346061,193.45708020362602
37.16708375,159.58879551832578
42.74207347,89.00890133735531
48.30844468,21.873865877290616
53.86621222,-62.31770998432901
59.41539093,-97.32104957449897
64.95599558,3.0668022933436347
70.48804091,125.29272425487346
76.01154164,104.32124487902166
81.52651243,27.945551858412646
87.03296792,47.37682125130662
92.5309227,84.50857988732116
98.02039134,41.25871811875942
103.5013884,-8.694455129907162
108.9739282,5.495577058269156
114.4380255,87.86648464936981
119.8936944,210.4949522734382
125.3409495,238.06430483290166
130.779805,86.44781888861715
136.2102753,-48.92121162211552
141.6323747,19.46931430301362
147.0461174,133.5501561693574
152.4515176,83.80598433027971
157.8485895,-22.085449221123373
163.2373472,13.759060707050338
168.6178049,126.51126905977584
173.9899766,142.39173126793966
179.3538764,105.516004651631
184.7095182,153.57697669081065
190.0569161,216.01790828746945
195.396084,149.65595367751652
200.7270358,18.425949794292645
206.0497854,-37.23079540456386
211.3643466,-22.37421320735601
216.6707333,-2.1829369677995096
221.9689593,13.792041434614692
227.2590382,25.610444289311722
232.5409839,17.212991029526357
237.8148101,3.2004470401683474
243.0805303,29.017055446849206
248.3381582,106.97962401736268
253.5877075,181.74743258047963
258.8291917,198.10413282814605
264.0626244,198.3917221019083
269.288019,254.70318899106874
274.5053891,315.12391032828856
279.7147481,283.630097889369
284.9161094,204.7733101098281
290.1094865,187.65138531404938
295.2948927,206.2096706466068
300.4723414,136.68530884441557
305.6418459,-14.205799304556876
310.8034194,-87.58373415992925
315.9570752,-29.06836804152975
321.1028267,37.448329299170354
326.2406869,27.320768324425586
331.370669,-17.289918001694836
336.4927863,-30.940535359606088
341.6070517,6.317104703210365
346.7134786,43.52353828045935
351.8120798,18.201314063773886
356.9028684,-14.604268845896268
361.9858576,36.3572466092863
367.0610602,108.39905206597585
372.1284892,142.9167703959413
377.1881577,333.4706171050084
382.2400784,873.4118310738643
387.2842644,1555.5648687406874
392.3207284,1922.1569530415127
397.3494833,1767.4059045050726
402.370542,1284.5612062046655
407.3839172,769.7193687071771
412.3896217,378.44621338420814
417.3876683,131.76567706352571
422.3780697,6.704962339465009
427.3608386,-3.702178351581992
432.3359876,80.53295206354544
437.3035295,162.74523305411606
442.2634769,138.35084350088997
447.2158423,38.81490058048597
452.1606383,-20.818007830029018
457.0978776,-25.235866998825806
462.0275727,-34.08865275037354
466.9497361,-36.139305304361855
471.8643802,13.919232571739041
476.7715176,80.2795094742574
481.6711608,92.03889929741517
486.5633221,49.51582607622723
491.448014,1.726583153359602
496.3252488,-13.17491479692189
501.195039,17.59899267948482
506.0573969,41.5795026817033
510.9123349,-6.686873708611078
515.7598651,-56.23678840530644
520.6,14.730397160080749
525.4327518,145.60407753619322
530.2581327,175.05082048378176
535.076155,106.40182670470837
539.8868309,92.46762477427252
544.6901726,200.9216285333133
549.4861922,299.68503554153557
554.2749019,211.0909103476586
559.0563139,9.914271678434105
563.8304402,-19.82822812317097
568.597293,146.3415268369014
573.3568844,229.67377939371562
578.1092263,160.0937565265633
582.8543308,114.99427830315648
587.5922101,113.23918350664087
592.322876,64.61668433532722
597.0463405,9.79858319734505
601.7626157,-6.782212708989184
606.4717135,-21.622672149608377
611.1736458,-21.614560333819966
615.8684246,14.44409480121098
620.5560617,33.16316080737644
625.2365691,14.190011338357529
629.9099585,2.1673425391190815
634.5762419,23.885470874375002
639.2354312,77.97960819443432
643.887538,115.67033220750127
648.5325743,68.23327427008454
653.1705518,-23.1258187913001
657.8014823,-48.214057903839524
662.4253775,9.289011182991073
667.0422493,78.52247855839111
671.6521092,103.11605976274274
676.2549691,83.2513749197121
680.8508407,46.913735023954416
685.4397355,4.78093991141721
690.0216654,-26.90602057288422
694.5966419,-2.6073153575859678
699.1646767,78.83313237211178
703.7257814,145.3483625878959
708.2799676,152.9627054409055
712.827247,125.86970280535675
717.367631,78.82749319394006
721.9011314,13.474226563257503
726.4277595,-20.446604055663947
730.9475271,24.162561514915197
735.4604456,112.09799125206376
739.9665264,168.5157492514864
744.4657813,156.04057769311802
748.9582215,87.08531296407081
753.4438587,3.531962792912225
757.9227042,-42.284315124929655
762.3947696,-0.30186454834228016
766.8600662,132.35379507613368
771.3186056,258.7393707029338
775.770399,259.78673514957825
780.215458,135.12304932235125
784.6537939,8.306734513433408
789.0854181,0.32821776443841166
793.510342,98.11260068088124
797.9285769,184.38310343149834
802.3401342,206.46155660733663
806.7450253,191.30560056560861
811.1432614,130.31248436684461
815.5348538,24.51197790012357
819.9198139,-39.47698900164784
824.2981531,-11.92676668514553
828.6698824,36.09782075611052
833.0350133,36.00708698074283
837.393557,7.201928484726915
841.7455248,-6.260037325010104
846.0909278,5.993082192600308
850.4297774,18.287102709641303
854.7620848,-2.9881046076265427
859.0878611,-40.54563816381992
863.4071176,-17.162418614688796
867.7198655,95.36910791682581
872.026116,197.7994779140688
876.3258802,213.71857936868633
880.6191693,240.66521087010562
884.9059946,331.39006099144217
889.186367,311.163922726195
893.4602979,126.08526732864635
897.7277982,41.771233424130216
901.9888793,168.0134635578986
906.2435521,220.3786747396022
910.4918277,41.66871207800203
914.7337174,-110.40583213659771
918.9692321,-30.691653497461317
923.1983831,135.51859429717294
927.4211813,209.79781821662363
931.6376378,207.43518571615058
935.8477637,185.3268270495645
940.0515701,130.54286904089352
944.249068,46.893328507082956
948.4402684,13.277915510753019
952.6251825,68.51481758104282
956.8038212,121.90794334098086
960.9761955,80.50707966943315
965.1423166,-2.9441919581273908
969.3021953,-11.61110762726112
973.4558427,45.98292670428634
977.6032699,60.54371432061387
981.7444877,13.134383377697048
985.8795072,-14.05315385162126
990.0083394,9.26059635991254
994.1309953,25.881570145128094
998.2474857,-6.204481182409303
1002.357822,-52.308900910320595
1006.462014,-62.89251048249321
1010.560075,-33.32229656281248
1014.652013,12.366559256951764
1018.737841,35.57495202247327
1022.81757,25.236429755669565
1026.891209,31.28991914468574
1030.958771,62.411649883054444
1035.020266,46.495393768392994
1039.075705,-10.944342149418986
1043.1251,-4.829314695825005
1047.16846,73.24042298046476
1051.205797,104.94451398329497
1055.237121,32.1540415419763
1059.262444,-59.679038564361164
1063.281777,-25.17916861606807
1067.295131,227.32042672542627
1071.302515,662.168079272973
1075.303942,1111.9437194213654
1079.299422,1337.7334413207368
1083.288966,1186.9452303991936
1087.272585,758.7318734187163
1091.250289,335.1856576482164
1095.222091,126.20540343353044
1099.187999,108.62875590296923
1103.148026,106.02422791565556
1107.102183,23.50312012333133
1111.050479,-58.81250706922142
1114.992927,-43.78813326684705
1118.929536,29.132162403506705
1122.860318,43.93536952802362
1126.785283,-10.015090836774363
1130.704443,-30.143996341082577
1134.617808,12.042924283084957
1138.52539,36.66704906074779
1142.427198,6.779180628677032
1146.323244,-22.41260491701012
1150.213538,-3.5881099237376617
1154.098093,24.109269383067776
1157.976917,17.40757940414202
1161.850023,29.577020362691812
1165.717421,105.55948568096595
1169.579121,174.92939280170995
1173.435135,169.93462926616837
1177.285474,154.90146631778734
1181.130148,224.20614531033704
1184.969169,316.2563492580305
1188.802547,295.5291362534269
1192.630292,182.65190987615384
1196.452416,87.87955347384816
1200.26893,13.374139715468708
1204.079844,-69.0221294938654
1207.88517,-84.49409926360126
1211.684917,39.08546333322483
1215.479098,210.0346574777874
1219.267722,231.78703755800817
1223.050801,93.94966552259947
1226.828346,45.873948568821845
1230.600366,180.48933732355445
1234.366874,252.19323571568086
1238.12788,156.28719611862152
1241.883395,124.86174902013707
1245.633429,230.75526460157056
1249.377994,243.08807451335372
1253.1171,105.56625817638346
1256.850759,23.68109723373712
1260.578981,70.17600999776673
1264.301776,108.60475589392831
1268.019157,46.141102107878794
1271.731133,-38.989985588593896
1275.437715,-16.130041646000628
1279.138915,90.32279775982936
1282.834743,112.24142848526722
1286.52521,6.145097904728377
1290.210328,-53.40584150396871
1293.890106,41.55923743520731
1297.564555,156.15014305204716
1301.233688,171.63417645752153
1304.897514,162.24438731507473
1308.556044,167.9024421039997
1312.209289,103.08664016294611
1315.857261,-4.610187620845096
1319.499969,1.891405731651723
1323.137425,132.8089495079802
1326.769641,223.61464536745882
1330.396626,180.46342433136286
1334.018391,73.88677160796503
1337.634948,10.758478166603606
1341.246307,5.924872424306855
1344.85248,2.0341361959997917
1348.453477,-29.35393350404357
1352.049309,-52.83326071193541
1355.639987,-20.009302638274676
1359.225522,48.3872577168313
1362.805925,71.57883329682095
1366.381207,32.115076282617395
1369.951379,0.9841172222207639
1373.516452,22.535556814798767
1377.076436,74.52617404315069
1380.631343,127.19400984892202
1384.181184,154.22635457446992
1387.725969,118.8950638838778
1391.26571,42.918295430649636
1394.800417,34.64822440446284
1398.330102,144.14637976469896
1401.854776,249.8133844557898
1405.374448,190.1441962560137
1408.889132,-7.7466795215962065
1412.398837,-121.50106413794796
1415.903574,-22.979401948763325
1419.403355,140.86995321570515
1422.89819,190.09021101713694
1426.388091,149.18468276477358
1429.873069,108.38882977617189
1433.353134,82.9842849413519
1436.828298,64.6215834512466
1440.298571,39.29752939085252
1443.763965,-0.8123454644492085
1447.224491,-21.95843812653397
1450.68016,-8.855068110696521
1454.130983,9.776646264891328
1457.576971,41.78087861019191
1461.018135,100.2667537412066
1464.454486,115.42760938229634
1467.886036,40.18025306251408
1471.312794,-24.904373853715214
1474.734774,33.21517263856597
1478.151985,135.17717167325145
1481.564439,100.70358215137853
1484.972146,-40.49389994653663
1488.375119,-50.950771442512654
1491.773368,110.5046659402618
1495.166904,199.1043552157545
1498.555739,117.1486384950017
1501.939883,34.74239555694112
1505.319349,26.628599773569476
1508.694146,6.094553278440305
1512.064286,-29.855086437151378
1515.429781,-7.407265811452389
1518.790642,48.68560814265863
1522.146879,37.859943912547195
1525.498505,-37.931463364851744
1528.845529,-60.92486920201294
1532.187965,20.537764936891975
1535.525822,129.15876557131196
1538.859112,176.17931644184318
1542.187846,179.77175649413473
1545.512036,239.92678858940187
1548.831693,324.57643177040524
1552.146829,249.3854101320261
1555.457453,34.272860831491876
1558.763579,-35.91676586078662
1562.065216,161.87388902175655
1565.362377,417.6723570075332
1568.655073,491.0855521987828
1571.943315,404.23329251175477
1575.227114,380.32363587028954
1578.506482,513.6182192095761
1581.781431,648.2025991243706
1585.051971,674.864184823388
1588.318114,680.2817983226456
1591.579872,686.6273909249591
1594.837255,602.7281955985605
1598.090275,465.7457756755446
1601.338945,357.8962568452017
1604.583274,230.33110858857683
1607.823275,109.31429623408543
1611.058959,114.08540502348724
1614.290338,142.49402265939688
1617.517422,45.14692171115078
1620.740224,-43.25200580285979
1623.958755,-12.399783565004299
1627.173027,2.0491572291426934
1630.38305,-47.67050463570659
1633.588838,-37.313879436365056
1636.7904,42.96512859380388
1639.987749,68.38488154172997
1643.180896,25.74122641350459
1646.369853,31.37842425141301
1649.554632,77.77682921596036
1652.735244,48.20321343086471
1655.9117,-5.464209963402396
1659.084013,22.228523391744318
1662.252193,27.596210717166656
1665.416254,-58.6251967552919
1668.576205,-73.08775800559636
1671.732059,40.53159897993518
1674.883828,99.05879501123894
1678.031523,25.85465536871795
1681.175157,-45.542016406211026
1684.314739,-27.522704903828892
1687.450284,32.286404286573955
1690.581801,66.858990501419
1693.709304,47.64734552331711
1696.832803,-3.393084579906251
1699.952311,-6.093271234332327
1703.067839,94.64192782111718
1706.179399,215.31913395458415
1709.287003,214.698009540621
1712.390663,126.57396997942153
1715.49039,120.33759523363787
1718.586197,183.1364481771435
1721.678095,138.3693042529602
1724.766096,-8.344618203991686
1727.850213,-76.3337928285282
1730.930456,-29.69736798732309
1734.006838,7.1321868080287985
1737.079372,10.834928109844022
1740.148067,62.98711568374779
1743.212938,127.98138813978701
1746.273996,109.15438598038698
1749.331252,48.991891967569984
1752.384718,32.23070612036371
1755.434408,43.094519341933335
1758.480332,39.7101016775289
1761.522503,1.848886558521741
1764.560933,-60.86703947208126
1767.595634,-69.64157401394448
1770.626618,0.6831707577874999
1773.653896,30.886988737934477
1776.677482,-16.072548418115908
1779.697388,-1.8405884770873495
1782.713625,106.95517009366134
1785.726205,165.32517767863087
1788.735141,106.17516731780039
1791.740445,26.241209185055016
1794.742129,40.296581580034015
1797.740206,145.5521852960481
1800.734687,219.95293172995804
1803.725585,188.04808158764607
1806.712912,116.46281982369584
1809.69668,62.54684567790281
1812.676902,-5.112801364871011
1815.65359,-65.74064331291193
1818.626756,-47.437117096689256
1821.596413,24.148197668407832
1824.562573,74.11885559216226
1827.525247,86.436010616763
1830.48445,64.33912709105601
1833.440192,21.219066541829392
1836.392487,-2.311106713728357
1839.341347,-1.808932460782131
1842.286784,5.03742639707599
1845.22881,34.233162464619404
1848.167439,61.8138967754506
1851.102682,27.421595022146814
1854.034553,-14.159458338042974
1856.963063,46.72629329843334
1859.888226,167.2738953302056
1862.810053,208.54456535711546
1865.728557,130.4957321844792
1868.643751,0.9381983400726313
1871.555648,-77.12666011084194
1874.46426,-32.15049424833013
1877.369599,72.11409514709953
1880.271679,106.17852546483665
1883.170512,81.74030491068967
1886.06611,89.80769485461329
1888.958487,116.71882188803818
1891.847655,104.33828411431185
1894.733626,48.68290076655366
1897.616414,-19.344655689482774
1900.496032,-43.03199730257018
1903.372491,7.307940552380332
1906.245805,70.91293222552116
1909.115987,80.6148590381585
1911.983049,48.6991505593608
1914.847004,17.117370351879522
1917.707866,8.405015693044387
1920.565646,25.969323491527817
1923.420359,38.319422043117875
1926.272016,3.750771646427106
1929.120631,-46.711091137982564
1931.966216,-37.97764343429088
1934.808786,5.361376640089222
1937.648351,-8.469502485445716
1940.484927,-30.993813183765972
1943.318525,97.36173686684626
1946.149158,341.26414867169456
1948.97684,441.1283561983685
1951.801584,306.97498399278294
1954.623403,138.5205282564758
1957.44231,66.79756579800576
1960.258318,30.455628353627045
1963.071439,-5.16430995988789
1965.881688,-12.755286076181402
1968.689078,-0.3921325412829013
1971.493621,9.982315244294611
