Raman shift cm-1,4ATP_100pM_rep2_acc5_processed_intensity
-93.47115107,557.6330123505417
-87.69374369,209.47806108662104
-81.9253076,2.73095851695237
-76.16582701,133.5144100814325
-70.41528615,180.97181662375527
-64.67366933,-23.852979863253097
-58.94096086,-17.96353615107803
-53.21714512,15.110014617063655
-47.50220652,-3.7590253147033224
-41.79612954,128.47946596021916
-36.09889866,152.9100169806626
-30.41049843,118.14328258875753
-24.73091343,54.49113883240324
-19.0601283,43.49732307035288
-13.39812769,93.02755148056667
-7.744896327,-52.20990255654498
-2.100418946,-23.99799983103879
3.535319659,84.63342210880451
9.162334658,2.1733323187057905
14.78064118,15.482074380822365
20.39025432,-6.906810545316118
25.99118913,7.573610612474127
31.58346061,165.48225809086924
37.16708375,140.19164919891472
42.74207347,23.851600662431377
48.30844468,18.994562703400245
53.86621222,39.83955644858
59.41539093,-28.917375818389512
64.95599558,-67.53208684993643
70.48804091,136.33548191033174
76.01154164,161.9348211097359
81.52651243,-39.14087186072685
87.03296792,106.9035838586602
92.5309227,182.93834905391836
98.02039134,17.904998849235795
103.5013884,114.65768648345494
108.9739282,147.6725926889202
114.4380255,37.830266299439074
119.8936944,209.3153612922797
125.3409495,366.3817926528919
130.779805,179.2576688878068
136.2102753,-54.87185675099789
141.6323747,-40.49865097139036
147.0461174,61.51706959218109
152.4515176,17.729028393056637
157.8485895,-35.14257855387655
163.2373472,-59.73078208092272
168.6178049,-14.87585896505675
173.9899766,105.24402151445429
179.3538764,25.213454757789236
184.7095182,-16.05471098696023
190.0569161,91.55295840091298
195.396084,67.22277759061069
200.7270358,24.75955130242437
206.0497854,6.259552856549931
211.3643466,59.6748810018164
216.6707333,203.22080253987338
221.9689593,220.90454992295133
227.2590382,177.93723446606202
232.5409839,233.51243563255434
237.8148101,391.18198771315735
243.0805303,506.44114270140085
248.3381582,514.9929012981826
253.5877075,580.7212455998247
258.8291917,742.8792917390185
264.0626244,853.7629157433628
269.288019,915.8453060004965
274.5053891,1050.5097881995628
279.7147481,1079.6147485156293
284.9161094,1066.9545247799642
290.1094865,1135.0787967990218
295.2948927,1048.8593287214562
300.4723414,844.6268975850678
305.6418459,356.02102753966335
310.8034194,-99.26309636672602
315.9570752,12.238507719755738
321.1028267,38.09750904232719
326.2406869,-64.41715756953036
331.370669,53.51775969755071
336.4927863,33.21212103563187
341.6070517,-24.132272339112546
346.7134786,107.33262813828294
351.8120798,114.8115789367377
356.9028684,-100.41003981576691
361.9858576,61.04654501041908
367.0610602,343.86931717677476
372.1284892,261.9023457363155
377.1881577,361.9221989697658
382.2400784,631.0202467714773
387.2842644,1026.8148287186866
392.3207284,1359.9692059042056
397.3494833,1258.3642518269996
402.370542,1001.8103500878002
407.3839172,553.2894601622147
412.3896217,266.07161002536003
417.3876683,213.029837795653
422.3780697,29.796328605314
427.3608386,43.25579980937063
432.3359876,117.47524788673563
437.3035295,203.41953196364932
442.2634769,241.0218362433173
447.2158423,15.413238822215778
452.1606383,-33.78791577263458
457.0978776,-23.58350041986685
462.0275727,-39.8796126789474
466.9497361,51.75710223939775
471.8643802,-4.800410824211188
476.7715176,-24.83372660837516
481.6711608,8.6206837165605
486.5633221,-29.035028857798782
491.448014,39.29360110663775
496.3252488,48.79324785774796
501.195039,-16.43421236765021
506.0573969,104.171142874956
510.9123349,63.853614631797534
515.7598651,-158.88789466947023
520.6,8.18390799292165
525.4327518,230.92083012239485
530.2581327,39.40542455288642
535.076155,-74.87864463030908
539.8868309,70.53141371326046
544.6901726,51.20688354012455
549.4861922,142.0099268087299
554.2749019,301.4042335990951
559.0563139,32.642889762588155
563.8304402,-66.76676409789238
568.597293,159.36441973287515
573.3568844,154.4722809677346
578.1092263,61.236720520289836
582.8543308,112.84775109447415
587.5922101,98.08640769555046
592.322876,-41.58386325009904
597.0463405,8.305984883892613
601.7626157,105.63252208730955
606.4717135,-25.463498953006074
611.1736458,-99.6851272467596
615.8684246,44.948527433598045
620.5560617,104.06279282439124
625.2365691,-20.700657728396525
629.9099585,36.800433335866195
634.5762419,137.99684788699398
639.2354312,62.85891719592952
643.887538,13.069165731867269
648.5325743,-34.942123131299155
653.1705518,34.78010973002988
657.8014823,55.161704551502794
662.4253775,-89.58324002156075
667.0422493,-55.58827163423848
671.6521092,38.62471145274482
676.2549691,8.0068483478376
680.8508407,-26.6987526253898
685.4397355,43.11868417251725
690.0216654,13.248369240609179
694.5966419,-73.29728773319283
699.1646767,-7.3797361436675395
703.7257814,49.77824107318742
708.2799676,30.3471180150799
712.827247,16.989587722816626
717.367631,70.60047488992552
721.9011314,-13.004700430064682
726.4277595,-105.99123050618428
730.9475271,4.341163201950927
735.4604456,163.18733968580094
739.9665264,225.63222441400706
744.4657813,186.7540411573512
748.9582215,175.62778398219274
753.4438587,5.133618537827019
757.9227042,-37.90306902741386
762.3947696,68.46143446387221
766.8600662,169.06347069260082
771.3186056,379.7613540101656
775.770399,267.5093310848572
780.215458,183.8267658425253
784.6537939,61.86701565978041
789.0854181,-160.92745928564278
793.510342,122.16162408666128
797.9285769,292.417942867844
802.3401342,156.93225663967561
806.7450253,161.89585636271164
811.1432614,154.2378159070534
815.5348538,15.44177230171405
819.9198139,-31.427396589985882
824.2981531,26.648324533868873
828.6698824,49.930533463559584
833.0350133,61.094986994338946
837.393557,21.209429651321194
841.7455248,22.46051417366965
846.0909278,-18.670869063449505
850.4297774,-38.04820437733911
854.7620848,36.226359323748426
859.0878611,-45.180610309643
863.4071176,-54.44143930430371
867.7198655,39.4648932418215
872.026116,208.27503943054242
876.3258802,353.6653328972008
880.6191693,206.28148561169345
884.9059946,238.72681273543748
889.186367,324.6515095967138
893.4602979,33.21372850162009
897.7277982,-89.01950160283013
901.9888793,155.19962373783716
906.2435521,269.8570834578745
910.4918277,40.843703949558574
914.7337174,-103.73059739884141
918.9692321,37.86164047456174
923.1983831,70.53575549644563
927.4211813,142.3458157836856
931.6376378,223.30810058746474
935.8477637,142.07799023445943
940.0515701,219.12234330558098
944.249068,26.44350307185627
948.4402684,-134.49150880374341
952.6251825,55.003501273499566
956.8038212,67.70049209093688
960.9761955,188.38975854531384
965.1423166,114.08784788948684
969.3021953,-14.494536123013546
973.4558427,146.6583692053117
977.6032699,5.0821523717171715
981.7444877,-15.253680624440868
985.8795072,126.7838306846661
990.0083394,65.80692723748248
994.1309953,115.25220911044724
998.2474857,42.590030033742835
1002.357822,-95.86687654729668
1006.462014,-44.80669630658972
1010.560075,-33.17258298291817
1014.652013,86.43885679715757
1018.737841,156.64736957710568
1022.81757,36.37127429561524
1026.891209,15.191551965397238
1030.958771,42.86158507517046
1035.020266,90.17332861715478
1039.075705,18.33556968995434
1043.1251,15.280343175058992
1047.16846,178.8769567152434
1051.205797,49.05748293300505
1055.237121,-44.76482346490267
1059.262444,-4.6524072203334015
1063.281777,-104.66677406196264
1067.295131,122.86950477542118
1071.302515,541.201666207249
1075.303942,724.0683620964703
1079.299422,817.4293996591558
1083.288966,703.8256578018894
1087.272585,410.7800880536298
1091.250289,176.07399916852262
1095.222091,8.404033986956097
1099.187999,26.404995355312153
1103.148026,67.72203486155533
1107.102183,-7.691926818625058
1111.050479,16.04504764630431
1114.992927,-3.647497082953808
1118.929536,-0.7714430349901622
1122.860318,90.81422605706021
1126.785283,-76.81922288049778
1130.704443,-70.85226188208429
1134.617808,201.6952884576857
1138.52539,226.3108115440177
1142.427198,193.06424590620884
1146.323244,62.29953175847981
1150.213538,33.51056249991133
1154.098093,124.3320524310496
1157.976917,-38.88943071652248
1161.850023,26.639020169652184
1165.717421,113.59009501022982
1169.579121,123.3974421865947
1173.435135,212.99673676262228
1177.285474,68.89113843309823
1181.130148,103.90869347368269
1184.969169,237.59881271748756
1188.802547,255.0373253578664
1192.630292,155.68234431349137
1196.452416,-6.574736516308242
1200.26893,1.3110730016002492
1204.079844,-59.244906213966374
1207.88517,-30.64437280859785
1211.684917,11.867042466746504
1215.479098,135.21347239519446
1219.267722,310.6712142277936
1223.050801,12.761255067945712
1226.828346,-24.046125046987584
1230.600366,186.70703197225566
1234.366874,153.03227182348814
1238.12788,135.34461929778536
1241.883395,107.4027439901503
1245.633429,279.24477820489136
1249.377994,249.91859494936205
1253.1171,12.120339980837091
1256.850759,61.48420300815499
1260.578981,0.40974025919009804
1264.301776,-26.468849792027463
1268.019157,39.47486284680692
1271.731133,-33.27877977475684
1275.437715,-33.84176601172862
1279.138915,9.328192314265388
1282.834743,87.63227304410832
1286.52521,27.20421390668985
1290.210328,-122.89396225286511
1293.890106,-8.60720790374846
1297.564555,70.49941981286129
1301.233688,29.11312945448949
1304.897514,59.545649020063024
1308.556044,126.50189389350074
1312.209289,102.33925663944926
1315.857261,-75.45698032014728
1319.499969,20.553823773232455
1323.137425,195.3985038332423
1326.769641,148.90198628247262
1330.396626,171.36841589989052
1334.018391,112.45985461548074
1337.634948,60.92536786327311
1341.246307,58.02686124510636
1344.85248,-20.731758151788725
1348.453477,-43.80097122051272
1352.049309,-132.0190920641923
1355.639987,-104.17295693323608
1359.225522,65.48855617274019
1362.805925,33.16903686794802
1366.381207,20.7175327972297
1369.951379,66.45850058677483
1373.516452,-21.707442687819956
1377.076436,8.025581590173246
1380.631343,66.93230370224225
1384.181184,-33.22368799576968
1387.725969,7.372189604689826
1391.26571,93.95014616862741
1394.800417,25.264621798526164
1398.330102,121.73090367163351
1401.854776,198.3293922389201
1405.374448,67.90848703835488
1408.889132,4.1441974020704535
1412.398837,-140.01824863699926
1415.903574,-82.17838267626854
1419.403355,139.11820271051505
1422.89819,10.693412966453181
1426.388091,64.71949364631357
1429.873069,189.90210953233213
1433.353134,62.09945142567843
1436.828298,83.51826939600448
1440.298571,39.033422842315446
1443.763965,-53.2261627066297
1447.224491,-70.8505442600034
1450.68016,-69.30542119554906
1454.130983,31.222278421395263
1457.576971,63.772893596432226
1461.018135,90.0901721508988
1464.454486,100.468225759488
1467.886036,34.85209056689255
1471.312794,-33.959922505964116
1474.734774,35.89448909799123
1478.151985,178.09947753501447
1481.564439,96.18408801744332
1484.972146,-21.987556254397628
1488.375119,-88.02466176258419
1491.773368,59.21080341174794
1495.166904,209.75181997299532
1498.555739,34.98459847226829
1501.939883,57.799365598174546
1505.319349,26.504443361224844
1508.694146,-108.67309218837468
1512.064286,50.11845338799532
1515.429781,36.719847782011165
1518.790642,6.726256879963161
1522.146879,121.87637518086625
1525.498505,-56.04533368143877
1528.845529,-89.85773981311128
1532.187965,111.04761308647663
1535.525822,21.015962090120713
1538.859112,93.81966244901149
1542.187846,193.08843797844554
1545.512036,54.9826576481224
1548.831693,308.67597005514756
1552.146829,347.64374786589724
1555.457453,-2.6620705009625745
1558.763579,11.32525361938909
1562.065216,163.59101230752057
1565.362377,291.6272586922944
1568.655073,332.06521399910804
1571.943315,280.68559907293417
1575.227114,270.7536814589103
1578.506482,374.53393532372206
1581.781431,552.3632144862303
1585.051971,517.9572341217232
1588.318114,550.915871687529
1591.579872,611.1192154360875
1594.837255,489.59902752178186
1598.090275,292.14538568734986
1601.338945,212.26983087038428
1604.583274,360.6908896501044
1607.823275,15.349189808519498
1611.058959,-69.44665270216103
1614.290338,381.9358144012424
1617.517422,62.48600866611835
1620.740224,-88.03497837941273
1623.958755,191.32937129010222
1627.173027,25.925284004314403
1630.38305,10.875285299818696
1633.588838,116.86878316980389
1636.7904,64.8470398390848
1639.987749,196.3370805556196
1643.180896,155.38538126226675
1646.369853,-2.3894418072619636
1649.554632,184.67078679957737
1652.735244,149.6626019115316
1655.9117,-57.09459673795869
1659.084013,127.80233706277855
1662.252193,204.12172525517272
1665.416254,-8.197858373550172
1668.576205,46.098759414045205
1671.732059,236.96005865774174
1674.883828,136.45092477900653
1678.031523,18.265968317574654
1681.175157,4.081104511559763
1684.314739,-73.65580794467317
1687.450284,15.736445449252223
1690.581801,106.40171762453511
1693.709304,-19.402761590939733
1696.832803,-15.99399613826895
1699.952311,61.74119249266243
1703.067839,1.596263459607596
1706.179399,52.81096002952172
1709.287003,145.88824942992503
1712.390663,-23.72860035091837
1715.49039,-10.36348921284921
1718.586197,198.75351620663974
1721.678095,54.34498869156365
1724.766096,-45.40122743144366
1727.850213,-18.55831451447724
1730.930456,-65.04607702458185
1734.006838,22.283307562611263
1737.079372,-39.208862801186186
1740.148067,17.39600526594328
1743.212938,257.16922317746497
1746.273996,124.79378902321956
1749.331252,59.40403580308062
1752.384718,112.91860641280843
1755.434408,34.167917018215924
1758.480332,96.92870693228461
1761.522503,111.20622590432862
1764.560933,-23.741973286722246
1767.595634,-29.32466962552343
1770.626618,118.65762996274393
1773.653896,127.21963826161623
1776.677482,-26.112162669920952
1779.697388,6.181655584949395
1782.713625,178.05489389403147
1785.726205,215.7352939947539
1788.735141,160.3287779239712
1791.740445,43.75395309585343
1794.742129,-12.461203716198998
1797.740206,179.8675851848094
1800.734687,269.9254048601695
1803.725585,120.33166641864086
1806.712912,48.38151952052982
1809.69668,42.7467913706842
1812.676902,10.274834144999483
1815.65359,-77.55055084702148
1818.626756,-105.06388178442741
1821.596413,-16.13820363894186
1824.562573,35.46373499002903
1827.525247,66.24139863779317
1830.48445,12.972218510019022
1833.440192,-51.8855790878112
1836.392487,36.40684061496165
1839.341347,109.25047482005922
1842.286784,34.61589942268133
1845.22881,-42.646661505735885
1848.167439,30.69511161721044
1851.102682,13.664341696552142
1854.034553,-96.17040929272018
1856.963063,40.0161984867114
1859.888226,218.21347701144595
1862.810053,185.0151950072531
1865.728557,67.03757232032962
1868.643751,25.194844821333056
1871.555648,-15.967291748776809
1874.46426,-39.47184027409137
1877.369599,153.14809983381434
1880.271679,137.4425356936825
1883.170512,-36.872148191497864
1886.06611,134.06172461922046
1888.958487,137.48612147657335
1891.847655,-39.165524541845535
1894.733626,17.348096720210993
1897.616414,-15.404353485284748
1900.496032,-52.95275749294453
1903.372491,41.36413097005116
1906.245805,13.455883750754094
1909.115987,51.335461631997866
1911.983049,88.18684004236283
1914.847004,-19.859514220560165
1917.707866,53.8360399946818
1920.565646,66.41245101925489
1923.420359,-0.27454822123164035
1926.272016,45.904198685603426
1929.120631,-85.10151738105968
1931.966216,-96.43593003463454
1934.808786,-10.219560966017987
1937.648351,-37.16672093974366
1940.484927,45.54808460275787
1943.318525,37.771199561939824
1946.149158,220.8372372507364
1948.97684,475.79212616836145
1951.801584,209.36243752470247
1954.623403,50.3625408657222
1957.44231,98.87097423685496
1960.258318,-51.78265757145424
1963.071439,-57.597923051481104
1965.881688,38.635812461974254
1968.689078,13.046268795324025
1971.493621,7.236092768547881
