Raman shift cm-1,blank_rep2_acc4_processed_intensity
-93.52472366,920.2254408752473
-87.74731628,59.09560361300441
-81.97888019,-40.76404776429932
-76.2193996,66.33270110728033
-70.46885874,-26.4509638454061
-64.72724191,-110.63951859277604
-58.99453344,-164.31552927197862
-53.2707177,85.0037478838025
-47.55577911,127.52901602507835
-41.84970212,30.79507288307655
-36.15247124,413.34971543051654
-30.46407101,454.9017959471415
-24.78448602,293.5206732448739
-19.11370089,227.86108287248788
-13.45170028,186.8794252387537
-7.798468914,-63.59900734774253
-2.153991534,-44.30025493160167
3.481747071,265.7381097986592
9.10876207,-0.3529538875673097
14.72706859,112.41753031183094
20.33668173,38.974864546870364
25.93761654,-58.026654290770054
31.52988803,369.2380580442211
37.11351116,211.12698574203154
42.68850089,111.34304478404891
48.25487209,174.31325622550446
53.81263964,106.49564042044521
59.36181834,-57.41286011363249
64.90242299,-214.6681532887002
70.43446832,198.97031856025006
75.95796905,263.9496931998968
81.47293984,-68.83002970576005
86.97939533,240.88563959255654
92.47735012,383.74456910261495
97.96681875,72.30136308476064
103.4478158,99.05999068816354
108.9203557,184.72311800267698
114.3844529,-72.11907169201156
119.8401218,320.3788821377669
125.2873769,688.4223824478016
130.7262324,99.94370528307445
136.1567027,-202.8767185348754
141.5788021,37.77505913518326
146.9925448,274.3304611420843
152.397945,81.6723030492806
157.7950169,-78.12798887997816
163.1837747,-60.46336439430111
168.5642323,140.07770274084334
173.936404,355.8784055735253
179.3003038,24.131772923594895
184.6559456,20.720180760057858
190.0033435,325.24422683243677
195.3425114,265.27211223943544
200.6734632,100.78462181154148
205.9962128,-102.28635565510487
211.310774,-113.86498269440027
216.6171607,65.3517204567276
221.9153867,-46.99212844341028
227.2054656,42.45415736921176
232.4874113,123.44540054787711
237.7612375,-57.85741185023062
243.0269577,37.08342783928879
248.2845856,31.433084388301623
253.5341349,-79.14927499659858
258.7756191,-13.790294019324818
264.0090518,75.36896155922626
269.2344464,208.91361829756676
274.4518165,257.6748676330081
279.6611755,8.727285111358874
284.8625368,-105.1240565993941
290.0559139,-73.85338166708368
295.2413201,441.68047121832865
300.4187688,1635.216072654922
305.5882733,2539.618619108616
310.7498468,3444.8546150439547
315.9035027,4186.479840316892
321.0492541,4162.194119006338
326.1871143,4109.735335905632
331.3170964,4066.929514618847
336.4392137,4146.767666596642
341.5534792,4102.646086872093
346.659906,3750.5350799969965
351.7585072,3788.7634637008678
356.8492959,3509.7740636591084
361.932285,3388.0962602752043
367.0074876,3316.196227078631
372.0749167,2975.130398596748
377.1345851,3126.2548150271277
382.1865058,2699.0170949204244
387.2306918,2349.9618247938147
392.2671558,2242.6748990181272
397.2959107,1971.306287712916
402.3169694,2019.353543081777
407.3303446,1743.5514173326233
412.3360492,1404.8915105781853
417.3340958,1203.210687294572
422.3244971,1020.1734255284568
427.307266,1048.5888345798994
432.2824151,1033.856374422705
437.2499569,1159.0032032792396
442.2099043,1056.576216961283
447.1622697,430.32672205259496
452.1070657,498.7835780095734
457.044305,414.7943390311875
461.9740001,71.79598424976348
466.8961635,124.2056527733348
471.8108076,-165.80279542991775
476.717945,-85.02770801343968
481.6175882,132.89381530976652
486.5097495,130.8448890587647
491.3944414,80.60106512644734
496.2716763,-96.13827091201892
501.1414665,-15.57920103287779
506.0038244,312.9869307974577
510.8587623,74.03788781762705
515.7062925,-166.13533467874595
520.5464274,32.646061689443286
525.3791792,26.844674944904455
530.2045601,75.17605277162511
535.0225824,-200.797349491947
539.8332583,38.472236967450954
544.6366,91.8937529513637
549.4326196,-96.5318040862685
554.2213293,545.9700557429774
559.0027413,10.4001571093454
563.7768676,-133.41117766222578
568.5437204,592.575743975824
573.3033118,254.91196201175399
578.0556537,81.40118840056039
582.8007583,321.04072277873456
587.5386375,243.2102711024986
592.2693034,-35.464504887591374
596.9927679,100.09386067802825
601.7090431,335.54199236567865
606.4181409,86.44942264956035
611.1200732,-120.74257288514946
615.814852,52.5415900232515
620.5024891,221.67600049541943
625.1829965,-40.91855945852103
629.8563859,307.14745823921066
634.5226693,538.8702000160038
639.1818586,-24.7244784747636
643.8339654,126.67008115185718
648.4790017,7.590748166658841
653.1169792,10.58435170025291
657.7479097,123.90049436339382
662.3718049,-312.75331551979866
666.9886767,-108.41689441859603
671.5985366,-20.33516296255698
676.2013965,102.12477904948969
680.7972681,80.69879686377499
685.386163,-10.059474152715893
689.9680928,-13.65736420035455
694.5430693,-12.385259427599522
699.1111041,278.8843125319745
703.6722088,111.70392051941644
708.226395,233.9488912231211
712.7736744,242.49479181508514
717.3140584,226.59165048018804
721.8475588,91.04880234337634
726.3741869,-179.1764921927279
730.8939545,80.34320572607658
735.406873,290.5020507066158
739.9129539,464.62377451597445
744.4122087,319.96802717953597
748.9046489,215.14878096583755
753.3902861,-124.13414178470873
757.8691316,-49.459886056664686
762.341197,41.583515306430286
766.8064936,68.84632225393989
771.265033,671.0202612750663
775.7168264,390.55552748160767
780.1618854,241.84021767483773
784.6002213,65.86341646440451
789.0318455,-226.3170455559387
793.4567694,75.14652734862909
797.8750043,120.63345387186382
802.2865616,-15.177482427761731
806.6914527,71.69486014206706
811.0896888,128.8737419923454
815.4812812,-43.01402336725164
819.8662414,-145.14836250314298
824.2445805,-13.378635548444208
828.6163098,214.3318908238216
832.9814407,18.55679235182896
837.3399844,-77.66562149976329
841.6919522,182.52090779817823
846.0373552,106.4269529409579
850.3762048,-73.26952609835679
854.7085122,282.89612074351703
859.0342885,291.1799384487329
863.353545,-65.37545156048583
867.6662929,121.91285230696673
871.9725434,357.6522633270796
876.2723076,725.2993954630947
880.5655967,473.4430772918847
884.852422,365.7876197368356
889.1327944,721.7317124358979
893.4067253,9.761985513296377
897.6742257,-100.69694398556335
901.9353067,378.53802841183733
906.1899795,227.86083154711042
910.4382551,136.3539549285292
914.6801448,-176.9410770006926
918.9156596,-77.44168252684253
923.1448105,89.64625188982922
927.3676087,-1.0708915925307991
931.5840652,372.6339693504594
935.7941911,45.56483240893169
939.9979975,137.05809527889548
944.1954954,53.302200993321094
948.3866958,-307.6883658372543
952.5716099,109.01550934337155
956.7502486,45.00908189942399
960.9226229,185.08577551535308
965.088744,77.88959450150958
969.2486227,-26.384640798785227
973.4022701,51.6946882451368
977.5496973,-96.67063752969648
981.6909151,-45.87493733014304
985.8259346,101.38950135115527
989.9547668,-10.233922042391129
994.0774227,11.138251209116419
998.1939132,113.9686295853233
1002.304249,-273.8092663522877
1006.408442,-6.446692555371328
1010.506502,-47.34943155126901
1014.598441,99.416827935367
1018.684269,457.35477634321217
1022.763997,-7.44064446310864
1026.837637,15.700602853621916
1030.905199,98.0433792850945
1034.966694,173.91708620339176
1039.022133,126.46589688243469
1043.071527,-111.98455966269667
1047.114887,115.38233293361374
1051.152224,192.03677835636657
1055.183549,-20.88076644578264
1059.208872,35.69381348364814
1063.228205,-262.4934441862712
1067.241558,-110.67955911034541
1071.248943,282.40572968505654
1075.250369,39.829914052498424
1079.245849,448.6870435122486
1083.235393,378.9263626750161
1087.219012,22.37188790589849
1091.196717,380.26889519001554
1095.168518,304.00905087489707
1099.134427,38.313870632145125
1103.094454,55.25372044197056
1107.04861,80.04580154042557
1110.996907,202.83050929474146
1114.939354,78.32813687599312
1118.875963,22.286970446127725
1122.806745,313.10604190702134
1126.731711,-155.09009424833593
1130.650871,-194.30368273133112
1134.564236,340.8328814073357
1138.471817,137.1281217920374
1142.373625,227.68488388627142
1146.269671,262.48054128939015
1150.159966,104.75181517805092
1154.04452,288.229391531195
1157.923344,-4.68338206178268
1161.79645,62.23413140893024
1165.663848,289.42416864651847
1169.525549,248.50014146922643
1173.381563,453.04156067847305
1177.231902,-71.13266521234205
1181.076576,-35.88928874258795
1184.915596,389.17143132215523
1188.748974,310.2317722401782
1192.576719,276.48325199945606
1196.398844,106.40240040446734
1200.215357,347.36960295854635
1204.026272,-83.24098665161358
1207.831597,-106.65703047777109
1211.631345,184.92559559142006
1215.425525,227.98250703848896
1219.21415,1006.9363557528869
1222.997229,296.26047521905673
1226.774773,-81.93696168423638
1230.546794,403.84317584402095
1234.313302,121.75789996745634
1238.074307,94.29804790339556
1241.829822,66.53679272006538
1245.579857,312.2457763902137
1249.324421,178.7316169240699
1253.063528,-247.18344202145917
1256.797186,23.662931055656635
1260.525408,123.63581514392871
1264.248204,-11.918083763543173
1267.965584,95.95072380970345
1271.67756,-42.57190369397535
1275.384142,-204.97601525232437
1279.085342,107.70151402499964
1282.781171,218.20261521284294
1286.471638,70.26539560078791
1290.156755,-133.21785833860417
1293.836533,109.32006172470545
1297.510983,282.98909559048946
1301.180115,-26.27434428127478
1304.843941,109.9677651037313
1308.502471,215.70375692925234
1312.155716,196.76753175321844
1315.803688,-104.05725389993623
1319.446396,-15.323386315862997
1323.083853,321.3804032411218
1326.716068,214.23521806161563
1330.343053,439.6028198327691
1333.964818,277.3312328366983
1337.581375,111.64496875619868
1341.192735,43.122764761781625
1344.798907,-77.5511221447708
1348.399904,21.354703111855617
1351.995736,-228.07979133628692
1355.586415,24.714489146822388
1359.17195,327.40201708674437
1362.752353,-25.079747338180326
1366.327635,-28.6253386300302
1369.897807,56.46651072778491
1373.462879,118.1371747468645
1377.022864,300.6432370523316
1380.577771,104.49348067313747
1384.127611,36.311760797863215
1387.672397,81.05922359327796
1391.212137,-46.646812623714595
1394.746845,-65.69079664113825
1398.27653,-30.48719869789719
1401.801203,176.63013872926373
1405.320876,246.92227872962536
1408.835559,-18.972775609910855
1412.345264,-207.97712266853637
1415.850001,60.812396117792616
1419.349782,451.50200025725894
1422.844618,48.82436557257027
1426.334519,29.271547972034696
1429.819496,385.2501100915348
1433.299561,-31.675964476216166
1436.774725,78.85159945236595
1440.244998,189.98768992258488
1443.710393,40.832728391284434
1447.170919,-37.69923216667565
1450.626588,-73.92862624071307
1454.07741,304.51013798348094
1457.523398,279.6884778076668
1460.964562,398.1218794173511
1464.400914,311.5916530523435
1467.832463,97.23498016836031
1471.259222,10.466615020096391
1474.681201,-85.6462428212569
1478.098412,246.76610612818885
1481.510866,188.18437443369066
1484.918574,71.14853706730734
1488.321546,-218.39213927238907
1491.719795,110.12715168537162
1495.113332,498.1268930671032
1498.502166,116.07906602874245
1501.886311,30.637829173492925
1505.265776,-163.11431391807366
1508.640573,34.238460124124714
1512.010714,73.00627834895052
1515.376209,-39.72302872296767
1518.737069,72.80123133656502
1522.093306,73.7384045925674
1525.444932,-139.8769183755593
1528.791957,-36.23155597838698
1532.134392,558.3347869095796
1535.472249,67.99019941794987
1538.805539,217.6924682446738
1542.134274,478.42680005175913
1545.458464,104.8190708208777
1548.778121,797.9234867846889
1552.093256,631.3497603959507
1555.403881,-70.22472304474049
1558.710006,-175.11027359814483
1562.011644,-22.42998454931916
1565.308805,243.6905440402471
1568.6015,196.4717745481474
1571.889742,174.6263165522519
1575.173542,25.86404577470315
1578.45291,66.19970412304534
1581.727858,312.6903444675909
1584.998398,57.58532509186175
1588.264541,-1.8343548010303294
1591.526299,18.944809326427063
1594.783682,-23.91120212802224
1598.036703,-31.290736758266604
1601.285372,-80.98708098110556
1604.529701,296.56566725909823
1607.769702,59.57003460999405
1611.005386,42.521030994239965
1614.236765,371.54289054694414
1617.463849,80.39718606897073
1620.686651,73.34909292177886
1623.905183,43.55978597204962
1627.119454,-90.66732677729786
1630.329478,-124.27727444794635
1633.535265,27.4401247616432
1636.736827,-53.98667952578812
1639.934176,66.40367925946957
1643.127324,226.03614501880782
1646.316281,14.714083909786453
1649.50106,355.2116497078426
1652.681671,125.42124655593989
1655.858128,-286.1650506102819
1659.03044,223.51768425446932
1662.198621,426.91317545122286
1665.362681,50.29274736338357
1668.522632,43.978993907034244
1671.678487,346.4106607354229
1674.830256,358.47825355646614
1677.977951,76.30696389487856
1681.121584,-5.4034211212005445
1684.261167,178.40166255734516
1687.396711,68.7626856145599
1690.528229,-84.43310984940082
1693.655731,-92.97537737970362
1696.779231,-76.21962260847704
1699.898738,120.54578395854793
1703.014266,3.002318804274111
1706.125826,-26.833175608525433
1709.23343,214.63790799882253
1712.33709,32.40575497758563
1715.436818,36.076101497235925
1718.532624,249.32776968614579
1721.624522,327.890800921395
1724.712524,176.36354837273797
1727.79664,-37.706759993907696
1730.876884,-52.793027396349316
1733.953266,68.67775325996816
1737.025799,-19.96871225567581
1740.094495,-21.29439140204103
1743.159366,399.6251836995074
1746.220423,96.8821158363468
1749.277679,-126.41762546929648
1752.331146,86.95708962475518
1755.380835,22.99445822562747
1758.42676,42.38126891421435
1761.468931,104.20612716112768
1764.50736,-46.24845379837071
1767.542061,-183.61294234435005
1770.573045,224.09473041307058
1773.600324,302.899046270971
1776.62391,-30.020934111776754
1779.643815,55.804396396049775
1782.660052,339.98092579387003
1785.672632,383.27854380979056
1788.681568,292.84878581324665
1791.686873,61.829965110906315
1794.688557,-40.89168632445952
1797.686633,354.0337422247557
1800.681115,315.7605656149321
1803.672013,225.49531041905436
1806.65934,177.36040683449733
1809.643108,16.121143809279783
1812.62333,85.59815314703773
1815.600018,-184.08470438318315
1818.573184,7.309205297188889
1821.542841,59.142080398807586
1824.509,-120.223776529016
1827.471675,35.56269458094904
1830.430877,-68.2931183741644
1833.38662,78.3400769661927
1836.338914,42.826961183562645
1839.287774,107.82581147610348
1842.233211,100.56982936252206
1845.175238,-156.681062298706
1848.113866,76.3202870526359
1851.04911,164.1247927439085
1853.98098,-29.42545464454749
1856.909491,32.1273425165481
1859.834653,454.19162779738485
1862.75648,382.68249856076574
1865.674985,-3.6442809320361462
1868.590179,13.027297822539992
1871.502076,-102.50899391481026
1874.410687,-162.32807578378117
1877.316027,168.6318819804654
1880.218107,94.93806802995647
1883.116939,39.77199191298658
1886.012538,228.82278267440668
1888.904914,11.55947537457058
1891.794082,-97.83916927407907
1894.680054,112.58247099869219
1897.562842,125.9030160587015
1900.442459,-212.68561843838893
1903.318918,-56.485188269103915
1906.192232,164.8348918975617
1909.062414,107.30681656153212
1911.929476,111.69009963410126
1914.793432,8.337186023511137
1917.654293,173.96067285303567
1920.512074,102.66396661747038
1923.366786,-82.6731235424867
1926.218443,-25.084889184998463
1929.067058,-37.72607903877723
1931.912644,-83.36729901798493
1934.755213,-54.67580158505831
1937.594779,65.3973663717053
1940.431354,175.78539067523133
1943.264952,44.67179078598948
1946.095586,349.9595063988878
1948.923268,911.2548715610938
1951.748012,280.1437508329748
1954.569831,86.74604729573943
1957.388737,261.04583125850036
1960.204745,-157.16513195627198
1963.017867,-49.43139331683915
1965.828116,46.24727222478977
1968.635505,132.49165768210355
1971.440049,-66.86477853745849
