Wavelength,AAB_AS_S2_I1,AAB_AS_S2_I2,AAB_AS_S2_I4
352.8078093,11.21409512,32.18890283,9.17
353.9410787,10.79239587,25.13086157,10.7318552
355.0741405,10.58051076,18.85782747,12.14651295
356.2069948,10.5784398,13.36980054,13.41
357.3396415,10.78618298,8.666780762,14.52616152
358.4720807,11.20374031,4.74876815,15.49115234
359.6043126,11.83111178,1.6157627,16.30625419
360.736337,12.6682974,-0.73,16.97146707
361.8681541,13.71529717,-2.30,17.48679097
362.999764,14.97211108,-3.07,17.8522259
364.1311666,16.43873914,-3.07,18.06777185
365.2623621,18.11518135,-2.27,18.13342884
366.3933504,20.0014377,-0.70,18.04919684
367.5241317,20.93958294,-0.22,18.77639069
368.654706,22.06605783,0.870673723,21.89377345
369.7850733,23.65765074,3.38411452,8.633849992
370.9152337,26.02304372,8.437176236,5.705356686
372.0451872,29.44829631,16.91,9.17
373.1749339,34.14491171,28.26411678,13.36190596
374.3044739,40.21157175,40.83638599,9.928417273
375.4338072,47.61287792,53.52813055,7.303055669
376.5629338,56.17392132,66.59,18.00768291
377.6918537,65.58988459,80.42864458,19.64249822
378.8205672,75.44939961,94.5025883,20.40
379.9490741,85.26760453,107.8207871,26.3413873
381.0773746,94.52286983,120.1288173,26.23256931
382.2054687,102.6914676,131.932328,23.08502591
383.3333564,109.2777991,143.2554326,24.16569765
384.4610378,113.8440698,152.6404058,33.93128341
385.588513,116.0464933,157.6763777,46.68386555
386.7157819,115.6782659,156.8070707,49.61693424
387.8428447,112.7080906,150.6117855,47.31898695
388.9697015,107.3000189,141.0869657,37.29791922
390.0963521,99.80722671,129.7781558,28.13220145
391.2227968,90.73947023,117.0044316,21.94597223
392.3490355,80.7075448,102.7290995,5.459289161
393.4750684,70.35179014,87.54604174,3.549367247
394.6008954,60.26674655,72.71578281,6.156460632
395.7265166,50.93691792,59.65588799,-6.50
396.851932,42.69600226,49.49216693,-11.45
397.9771418,35.71462073,42.78109172,1.649500016
399.1021459,30.01306266,39.43337473,6.028473127
400.2269444,25.48990041,38.94096781,8.208724041
401.3515374,21.95727109,40.72662805,13.63695641
402.4759249,19.17797439,44.07683387,2.31933597
403.6001069,16.90376507,47.65564241,9.932878765
404.7240836,14.91479177,49.67198252,17.12003668
405.8478549,13.05647847,49.20645388,8.03
406.9714209,11.26532302,47.26772006,17.21934616
408.0947817,9.575272305,46.01899004,17.83939694
409.2179373,8.103475623,46.8726562,20.27419357
410.3408878,7.023128155,49.47107616,31.36834143
411.4636332,6.535279243,52.40356064,27.61448214
412.5861735,6.847691297,54.67192563,31.47827494
413.7085089,8.159897044,56.41257848,29.69731032
414.8306393,10.64751867,58.33642671,25.35634075
415.9525649,14.44035356,60.74703548,24.4472613
417.0742856,19.59426092,63.38340758,14.84873075
418.1958015,26.06176196,66.23659373,18.91562852
419.3171127,33.66975305,70.18471505,18.46903552
420.4382192,42.11442094,76.56016204,20.14077338
421.559121,50.98117553,86.04,22.31460822
422.6798183,59.79078521,97.89870935,12.85047557
423.8003111,68.06382107,110.3186712,23.76406326
424.9205993,75.38677812,121.3824688,24.02660589
426.0406832,81.46089048,129.81,15.36777524
427.1605626,86.12395272,134.9544094,25.33213117
428.2802377,89.34982556,136.6084277,23.59414565
429.3997085,91.23660595,134.8796391,22.94724255
430.5189751,91.9903181,130.03,30.42950504
431.6380376,91.90364633,122.6009873,26.66080641
432.7568959,91.32491108,113.6535186,26.57312261
433.8755501,90.61528122,104.586891,28.6317893
434.9940002,90.10046838,96.48,23.4110884
436.1122464,90.02793998,89.57,20.55737548
437.2302887,90.5381911,83.06821037,19.85324168
438.348127,91.65306653,75.66,25.85973349
439.4657616,93.27868636,66.50525194,27.52478239
440.5831923,95.21715723,55.98305205,14.60563483
441.7004194,97.18272248,45.36825217,12.22942364
442.8174427,98.82314913,35.91212311,5.797688626
443.9342624,99.75096309,28.2787338,2.029944903
445.0508786,99.58809735,22.66342169,8.096977425
446.1672912,98.02157772,19.01177689,-3.86
447.2835003,94.86079932,16.79447951,-0.29
448.399506,90.08353615,14.89171481,2.269928642
449.5153083,83.85875067,12.22775119,-8.56
450.6309072,76.53828287,8.60080529,-3.61
451.7463029,68.61708906,5.022554452,-9.17
452.8614954,60.67130152,3.499382776,-7.21
453.9764846,53.29001323,6.162887393,1.754047858
455.0912707,47.01617312,13.87058243,-1.55
456.2058538,42.30462083,25.290992,1.480949438
457.3202338,39.49636268,37.62047898,-2.54
458.4344108,38.80334238,48.46869389,-6.05
459.5483849,40.29924599,56.95307446,-10.92
460.6621561,43.91689471,63.25087174,-12.31
461.7757245,49.45544064,67.69259554,-2.57
462.8890901,56.59783066,70.31186829,1.977795036
464.0022529,64.93526497,71.03264171,13.85988361
465.1152131,73.9949964,70.27708721,20.49389607
466.2279706,83.26915283,69.15582185,13.18715317
467.3405255,92.24353094,68.61291957,0.293779271
468.4528779,100.4274511,68.36482005,2.768539187
469.5650278,107.386717,66.90648828,8.54199007
470.6769753,112.7780099,62.68508145,5.94
471.7887204,116.3779371,55.45927167,21.44421634
472.9002631,118.0999047,46.86277288,33.21268642
474.0116036,117.9962543,39.67507434,43.35688827
475.1227418,116.2465995,35.98153129,55.54270927
476.2336778,113.1352707,35.52681071,64.80291705
477.3444117,109.0215951,36.17118907,70.7447539
478.4549434,104.3044725,36.36154231,67.43806598
479.5652732,99.38024568,36.61889599,70.11
480.6754009,94.59648288,38.19848396,66.21611897
481.7853267,90.21123287,41.09840773,61.83073539
482.8950506,86.36832215,44.02924878,59.25719207
484.0045727,83.09318657,45.81147615,46.95794532
485.1138929,80.30728242,46.30058519,41.77874736
486.2230114,77.85659546,46.22,37.55271634
487.3319282,75.54993743,46.39,38.93
488.4406434,73.20209631,46.93644612,45.30549065
489.549157,70.67421693,47.17716009,40.46
490.657469,67.90200081,46.47063839,32.22936572
491.7655795,64.90512825,44.97932612,22.62892984
492.8734885,61.77790378,43.42383613,8.719255452
493.9811962,58.66732079,42.06159533,-3.61
495.0887025,55.74817374,40.06827731,8.10
496.1960075,53.2040356,36.25049329,8.005177023
497.3031112,51.21702449,30.62039066,-6.50
498.4100137,49.96375584,24.95047457,11.43689307
499.5167151,49.61500009,21.33026575,17.13491518
500.6232154,50.33740606,20.24056486,13.47713371
501.7295146,52.29316701,20.29779605,19.87989076
502.8356128,55.63243597,19.83461196,15.47196699
503.94151,60.47552851,18.43157468,9.237693682
505.0472063,66.88535744,16.80046912,10.32447064
506.1527018,74.83576571,15.65939223,17.12982731
507.2579964,84.18624447,15.34809453,15.37015456
508.3630903,94.67226385,16.39241396,12.58689451
509.4679835,105.9141707,19.58253229,10.01718881
510.572676,117.4428379,25.05622091,8.488640381
511.6771678,128.7386628,31.57209239,16.21190223
512.7814591,139.2789833,36.93,16.97676207
513.8855499,148.5866804,39.24623844,19.315682
514.9894402,156.271531,38.40975514,18.29497377
516.0931301,162.0566855,36.49012649,3.81
517.1966197,165.786485,36.23830273,5.423271433
518.2999088,167.4191435,38.66232934,11.52108354
519.4029978,167.0129338,42.19239646,5.783667688
520.5058864,164.7113878,44.18453973,14.86784656
521.6085749,160.7261495,43.08514015,15.58368228
522.7110633,155.3137163,39.41583543,-0.87
523.8133516,148.7458187,35.07244469,5.850493889
524.9154399,141.279517,31.85077987,12.4409341
526.0173282,133.1366037,30.73343878,8.658528606
527.1190165,124.4979565,32.28484292,8.154964575
528.2205049,115.5114782,36.84403545,5.57
529.3217936,106.3094413,43.65612968,13.65839699
530.4228824,97.03118695,50.23178798,22.78494276
531.5237715,87.84537428,53.61818989,23.14125637
532.6244609,78.9635497,52.70151398,26.04876662
533.7249506,70.63798246,49.03413383,23.9561069
534.8252408,63.14215048,45.36199375,11.62012101
535.9253314,56.73937105,43.40907338,9.54
537.0252225,51.64956331,42.9013751,11.3899843
538.1249141,48.02231667,42.43291235,5.945163048
539.2244064,45.91882628,41.19442217,7.318039658
540.3236993,45.30205926,40.13800744,2.489418067
541.4227929,46.03468562,41.61505486,-10.80
542.5216873,47.88538225,47.49949715,-1.91
543.6203824,50.54589814,57.38490866,12.17609492
544.7188784,53.66169737,68.63864628,17.55164011
545.8171752,56.8746587,78.01524344,24.28808915
546.915273,59.8705372,83.24131044,29.76609248
548.0131718,62.42205193,83.83359125,31.24912681
549.1108717,64.41984763,81.13119777,21.28308394
550.2083726,65.88675139,77.52193666,25.02513282
551.3056746,66.97537737,75.26541783,13.45232005
552.4027778,67.95171453,75.62447208,-1.92
553.4996823,69.16718989,78.40292013,13.03899561
554.596388,71.02324133,81.89,11.09674705
555.6928951,73.93502382,83.76055836,19.36217431
556.7892035,78.29952633,82.6111819,22.85533532
557.8853133,84.4687503,78.87114806,12.26035543
558.9812246,92.72513818,74.32765816,27.15106456
560.0769375,103.2560221,71.42742541,25.30893388
561.1724519,116.126996,72.94386641,16.73914837
562.2677679,131.2592701,81.27,26.92832888
563.3628856,148.4175137,97.02490983,23.64648805
564.4578049,167.2109659,118.1142763,23.48950263
565.5525261,187.108006,140.3057975,39.69094906
566.647049,207.4643368,159.6550584,39.25689923
567.7413738,227.562567,175.2677484,35.3590958
568.8355005,246.657374,189.8515077,49.06568774
569.9294292,264.0207902,206.80,52.90433347
571.0231598,278.9864353,226.2269626,62.15582532
572.1166925,290.9945246,244.1588956,75.12
573.2100273,299.6362059,255.9810169,66.11702209
574.3031643,304.6882849,259.95,59.62187234
575.3961034,306.1273783,257.2028075,42.63913811
576.4888447,304.1201919,249.4606609,34.83277008
577.5813884,298.9953967,237.6684338,32.34
578.6737344,291.20462,222.4444295,23.71230717
579.7658827,281.279151,204.4844828,36.99901795
580.8578335,269.7891125,184.1781356,29.61346957
581.9495868,257.3092598,161.5134497,18.49
583.0411426,244.3901959,136.7764937,16.7438871
584.132501,231.5314848,111.2716025,6.408252593
585.223662,219.1547354,87.4670168,6.579494546
586.3146257,207.5777885,68.31785165,-3.50
587.405392,196.9951057,55.58831705,-12.84
588.4959612,187.4712508,48.17036674,-4.51
589.5863331,178.9501366,42.39158499,-8.89
590.676508,171.2753835,34.57789204,-9.60
591.7664857,164.2137565,23.74565764,-5.77
592.8562664,157.4766403,12.43113686,-17.23
593.9458501,150.7405332,5.097790276,-5.95
595.0352368,143.6712914,4.862552084,7.596087436
596.1244266,135.9549253,10.732068,1.634363354
597.2134196,127.3329675,18.06229949,17.4496368
598.3022158,117.637921,22.43722202,24.27243083
599.3908152,106.8237015,23.06810884,10.7992066
600.4792179,94.98648669,21.96305455,15.2291479
601.567424,82.37404043,20.60445053,22.82795807
602.6554334,69.3834931,18.75420702,31.55162266
603.7432463,56.54621415,16.00982074,40.43480376
604.8308626,44.49794354,12.68382534,38.10703511
605.9182825,33.93571155,8.746501381,41.68125401
607.005506,25.56553075,3.376343605,42.6915585
608.092533,20.04253896,-3.41,33.46
609.1793638,17.9034973,-9.27,29.29072003
610.2659982,19.4969672,-10.42,20.95668856
611.3524364,24.92586555,-4.29,20.77153885
612.4386785,34.0197278,8.927452681,20.73600837
613.5247244,46.34470142,26.60477798,13.64709204
614.6105742,61.24567883,45.65308091,28.64107282
615.6962279,77.9079016,64.31835756,28.75698767
616.7816857,95.42643056,82.56064443,20.83423607
617.8669475,112.8768613,100.8584528,22.85940758
618.9520134,129.3856422,118.8494339,19.54
620.0368834,144.1979558,135.1399424,26.70698683
621.1215577,156.7339705,148.2062117,15.52847435
622.2060361,166.6199511,157.4200533,1.320659149
623.2903189,173.6885358,163.6476597,6.477184942
624.374406,177.9564083,169.2596411,-6.48
625.4582975,179.5934799,176.9538524,-11.23
626.5419934,178.8922137,187.4732229,2.662274815
627.6254937,176.2377463,198.3468841,5.845052588
628.7087986,172.0764766,205.3460637,10.13837771
629.7919081,166.882431,205.1078125,9.672071585
630.8748222,161.123346,196.5752095,4.945073695
631.9575409,155.2288536,181.3816961,9.119071942
633.0400644,149.5606295,163.8036378,3.07
634.1223926,144.3827958,149.1055727,-7.40
635.2045256,139.8356379,140.1858955,1.823461411
636.2864635,135.9241258,135.7212845,9.995705606
637.3682063,132.5329743,132.1453469,16.63957339
638.449754,129.4666217,127.0977154,14.5326574
639.5311067,126.4985724,120.4653226,10.78843274
640.6122644,123.4150207,112.773729,34.73571984
641.6932273,120.0476045,103.790993,28.18310228
642.7739952,116.2948939,92.88161616,18.40767381
643.8545684,112.1308319,79.99876413,28.68404704
644.9349467,107.5997561,66.00262968,26.08295138
646.0151304,102.8022356,52.21852199,35.64649082
647.0951194,97.87784957,39.77036806,39.95609615
648.1749137,92.98996342,29.33905915,38.51652346
649.2545135,88.3159259,21.48905158,34.1779449
650.3339187,84.04292776,16.92960257,32.39537583
651.4131294,80.36478923,16.00089964,44.94720805
652.4921457,77.47268479,17.7260121,52.29247109
653.5709676,75.53734816,19.75,57.16
654.6495951,74.68757611,19.66864179,63.1266528
655.7280284,74.99177792,16.38321761,53.57393553
656.8062674,76.44550544,10.60329873,45.40046158
657.8843121,78.96483127,4.613217601,47.75830351
658.9621627,82.3863582,1.425332424,31.58371137
660.0398192,86.47727702,2.78404973,33.48885369
661.1172816,90.95917287,7.450323576,54.91705664
662.19455,95.54371664,12.19773715,45.77751336
663.2716245,99.96899609,14.65725766,36.39
664.348505,104.0225462,14.51590861,30.47487796
665.4251916,107.5470844,12.49,23.06254886
666.5016843,110.436582,9.666350084,23.72314854
667.5779833,112.6309742,7.894719467,16.98301617
668.6540886,114.1116139,9.552003683,18.25207135
669.7300001,114.8973466,16.03443106,18.29052464
670.805718,115.0434995,26.39176529,23.8701695
671.8812423,114.6461011,37.71446883,26.62342774
672.956573,113.8488678,47.37,15.00601724
674.0317103,112.8467129,55.10229701,13.74568676
675.106654,111.881783,62.84001541,12.70378844
676.1814044,111.2324941,72.63524019,26.40640326
677.2559614,111.1970568,84.79058552,40.19505081
678.330325,112.0723563,97.59062721,48.19419161
679.4044954,114.1298889,108.4719191,57.74311262
680.4784725,117.5900023,115.3737871,53.3842174
681.5522565,122.5939432,117.1928395,47.26510342
682.6258473,129.1753371,113.9286411,42.00187027
683.6992451,137.2371079,107.4525667,39.53936802
684.7724497,146.5399995,101.562761,33.07954388
685.8454614,156.7054837,99.48528044,35.00144524
686.9182802,167.233622,100.6973638,40.33289608
687.990906,177.5355195,101.1938997,39.70893251
689.063339,186.978382,97.6119819,40.31100847
690.1355791,194.9391287,90.78772308,28.37652341
691.2076265,200.86015,84.9228147,22.10154539
692.2794812,204.298832,83.43582609,34.01167583
693.3511432,204.9638075,85.85125041,45.83606527
694.4226125,202.7345968,88.56760052,35.75894658
695.4938893,197.6634637,88.18305106,26.335866
696.5649736,189.9595562,84.16316118,25.019162
697.6358653,179.9581533,79.0582775,7.953375535
698.7065646,168.0814895,76.43481469,8.38
699.7770715,154.8006642,77.93130165,27.95626731
700.8473861,140.6080824,81.78234721,36.14541236
701.9175084,126.004376,84.21954307,38.08285474
702.9874384,111.4953351,82.35555598,31.45137084
704.0571762,97.58878366,75.92378021,21.21139043
705.1267218,84.78185058,66.7852845,20.71492756
706.1960753,73.5356447,57.12600154,16.15935165
707.2652367,64.24344966,47.97018531,13.35107487
708.3342061,57.20233271,39.36119743,16.57
709.4029835,52.59196025,31.85569115,10.37854143
710.471569,50.45743233,26.89744951,4.580575441
711.5399626,50.69655878,25.02,3.213725887
712.6081643,53.06012671,24.60,8.533504037
713.6761743,57.17244653,23.71321874,13.31288734
714.7439925,62.57057856,22.74178883,9.582563995
715.811619,68.75520213,23.62909547,17.84929578
716.8790538,75.2455829,26.60962896,29.38575062
717.946297,81.63111651,29.10405893,37.71953082
719.0133487,87.61094729,28.66578364,28.00688029
720.0802088,93.01230982,26.24941159,7.784276588
721.1468774,97.78198288,25.6990294,8.09
722.2133546,101.95501,30.02403011,-2.19
723.2796405,105.6140038,38.21706327,0.627019195
724.345735,108.85527,45.66196653,12.66597005
725.4116381,111.7734174,47.9741505,5.986369333
726.4773501,114.4653983,44.87612443,7.776051605
727.5428708,117.0447679,40.44483993,7.327539418
728.6082004,119.6536792,39.69350678,6.13003668
729.6733389,122.4630579,44.82453801,20.56022885
730.7382863,125.6580558,54.11335258,41.53123776
731.8030427,129.413497,63.61572226,43.94089208
732.8676081,133.8666671,69.91860148,51.57979624
733.9319826,139.0904461,72.07763427,60.5153373
734.9961663,145.0660113,71.51487221,52.95445604
736.060159,151.6585202,69.99268243,63.95356907
737.123961,158.6064052,67.84669519,69.72084656
738.1875723,165.5340079,64.42868141,67.88502132
739.2509928,171.98867,59.67172263,73.25806905
740.3142227,177.4971427,54.45690067,74.8036366
741.377262,181.633459,49.79273671,81.02701742
742.4401107,184.0855883,46.31834996,68.93582709
743.5027689,184.7043589,44.28255371,51.44888255
744.5652366,183.5227832,43.23812798,44.01569249
745.6275139,180.7450095,41.72248834,35.85917621
746.6896009,176.7124152,37.8197406,33.21
747.7514974,171.855493,30.44531725,18.74278841
748.8132038,166.6380701,20.30154878,18.21587515
749.8747198,161.4994561,10.06438682,14.14468408
750.9360457,156.7996968,3.704528042,-2.10
751.9971814,152.7728624,4.649992849,7.094495896
753.058127,149.4952107,13.53012543,0.537246906
754.1188825,146.8764468,27.58495932,-5.38
755.179448,144.6777409,42.59407013,4.760842842
756.2398236,142.5515349,55.63399716,-2.10
757.3000092,140.0931564,66.21274797,-2.54
758.3600049,136.8956778,75.09,11.48100387
759.4198108,132.6022762,82.33597576,15.33100443
760.479427,126.9508094,86.57511168,20.85554863
761.5388533,119.805928,86.30661593,25.63372831
762.59809,111.1760977,81.87987335,11.21809064
763.657137,101.2146025,75.92560829,12.15822838
764.7159944,90.20641532,71.60120587,16.84999548
765.7746623,78.54595549,70.503383,4.15
766.8331406,66.71051603,72.14749907,8.788555339
767.8914295,55.23102663,74.90853527,5.434397526
768.9495289,44.65992002,76.95183139,1.405718515
770.0074389,35.53736746,76.46086205,16.80894848
771.0651596,28.35871487,71.99,13.39788264
772.122691,23.54282152,63.58681245,15.50231849
773.1800332,21.39692056,53.72054072,24.95628238
774.2371862,22.07616566,46.40411269,20.03989247
775.29415,25.54498693,44.47869325,16.22994364
776.3509247,31.55616689,47.27947126,27.41057019
777.4075103,39.6635579,51.18,36.53695725
778.4639069,49.27120958,52.86199114,32.67252001
779.5201145,59.70442249,52.32,35.88352803
780.5761332,70.28203933,52.51920405,40.15
781.6319631,80.37771318,55.89078228,49.72543328
782.687604,89.46976297,61.28317791,60.73
783.7430562,97.1813656,64.48198243,62.96838724
784.7983196,103.3055805,61.88472038,56.35061159
785.8533943,107.8062921,53.87757924,52.50125386
786.9082804,110.7931134,45.00,38.38958564
787.9629778,112.4777525,40.63329934,24.77
789.0174867,113.1245477,42.72777635,47.87746053
790.071807,113.009536,48.46941509,45.32520033
791.1259389,112.3983073,53.26336349,29.35317956
792.1798823,111.5428096,54.99330547,29.6700668
793.2336373,110.6894044,54.99276382,20.63695987
794.287204,110.0909526,55.04987883,33.80844652
795.3405824,110.0193467,54.58417597,43.66
796.3937725,110.7727267,51.70351242,40.16528924
797.4467744,112.665938,46.47483971,51.20802155
798.4995882,115.9965871,41.89309775,57.48507643
799.5522138,120.9948349,41.37743184,59.08553851
800.6046513,127.7780533,45.94204696,66.92
801.6569008,136.3286665,54.0550643,76.76074325
802.7089623,146.4977852,63.69067652,75.14279228
803.7608359,158.023575,74.08382398,73.25020183
804.8125216,170.553719,85.70114091,72.35130412
805.8640194,183.6712819,98.93802347,70.48805982
806.9153294,196.9275632,113.2716449,78.22533258
807.9664516,209.8783318,127.9224415,64.1049604
809.0173861,222.1124998,142.8665884,53.96027738
810.068133,233.2672301,158.5904524,63.02280946
811.1186922,243.0351947,175.0412615,59.9186006
812.1690638,251.1733788,191.0723396,53.85277471
813.2192479,257.5163936,204.5469746,54.16841235
814.2692445,261.9900909,213.0735969,54.73568806
815.3190536,264.6182445,215.6789003,35.53011485
816.3686753,265.5146182,214.445264,11.4996189
817.4181097,264.8554441,213.7540026,-2.99
818.4673567,262.8363839,216.7071839,0.30
819.5164165,259.6292748,222.09,14.87490513
820.565289,255.3554092,225.3140078,23.32454293
821.6139743,250.0807919,222.367318,40.38834867
822.6624725,243.8267933,212.872559,51.58508054
823.7107836,236.5869689,199.7297317,67.66
824.7589077,228.3445404,186.6722364,74.38020545
825.8068447,219.0876433,176.0219589,63.00896827
826.8545948,208.8195196,167.651247,71.52432041
827.902158,197.5620459,159.4590228,77.055134
828.9495342,185.3546646,149.2100027,79.93
829.9967237,172.2534059,136.4462729,79.14320695
831.0437263,158.333118,123.0472415,75.75456298
832.0905423,143.6923072,112.0765797,73.69371119
833.1371715,128.4595652,105.4422271,66.62078499
834.1836141,112.8046983,101.9117058,88.15063113
835.22987,96.95843131,97.58879773,105.0956035
836.2759394,81.23481519,88.89806654,92.32835657
837.3218223,66.03908815,75.24953714,81.58
838.3675187,51.84538535,59.18652248,68.13576975
839.4130286,39.14339528,44.67016204,52.73556198
840.4583522,28.36755838,35.14469376,34.86032899
841.5034894,19.82863661,32.18901896,28.65503664
842.5484404,13.66647468,34.89711005,47.19851607
843.593205,9.836629973,40.09052667,52.24984496
844.6377835,8.133168886,43.43,58.74232149
845.6821758,8.238169833,41.46407058,82.21288253
846.726382,9.780179816,33.91451651,81.29574242
847.770402,12.38309113,24.3655329,72.97694095
848.8142361,15.69464027,17.76388823,86.7116109
849.8578842,19.39587807,16.81713428,85.51491359
850.9013463,23.2016458,20.84518985,82.94388088
851.9446225,26.86208578,27.55954389,89.13731771
852.9877128,30.16896107,35.0312321,83.65830117
854.0306174,32.96532318,41.98948791,97.42265706
855.0733362,35.1557475,47.468948,96.07246257
856.1158692,36.71390148,51.17115132,88.67210747
857.1582166,37.68431782,53.76405194,89.94577424
858.2003783,38.17782357,55.91890877,91.65872406
859.2423544,38.36219407,57.00,118.0283685
860.284145,38.4481447,55.31,112.5611866
861.32575,38.66892309,49.94911238,101.8484496
862.3671696,39.25472339,42.15352118,110.8215682
863.4084038,40.40870567,34.80025168,99.35876053
864.4494526,42.2922175,30.46705522,95.99882435
865.4903161,45.02093453,29.79320608,96.66484538
866.5309943,48.66765774,31.3157608,103.0040796
867.5714872,53.26608946,32.60,112.0974872
868.611795,58.81206552,31.6839157,96.22629459
869.6519176,65.26182372,28.09503787,91.76308292
870.691855,72.52938945,23.00358349,87.89027211
871.7316074,80.48689901,18.52975859,75.47232952
872.7711748,88.97201398,16.28430017,82.0350331
873.8105572,97.80368285,16.07104219,86.63777789
874.8497547,106.8024303,16.03427277,79.01739359
875.8887672,115.8088393,14.32861957,63.89829781
876.9275949,124.6958646,10.79897238,61.36531316
877.9662379,133.3735889,7.248677407,65.29214683
879.004696,141.7854784,6.280841233,61.71921532
880.0429694,149.8949911,9.669519055,60.8057498
881.0810582,157.6650642,17.3711976,63.10161971
882.1189623,165.0387945,27.56532988,60.95292703
883.1566818,171.9302414,37.41,64.23615905
884.1942168,178.2274632,44.49870192,73.48035247
885.2315673,183.8018579,48.58344097,52.65064138
886.2687333,188.5163404,51.90530582,41.84712453
887.305715,192.230991,57.03439223,58.2231846
888.3425122,194.8106153,64.51,62.05220792
889.3791251,196.1357826,72.88,69.86582263
890.4155537,196.1115241,80.5732374,69.94475249
891.4517981,194.6677171,87.03848955,62.08107267
892.4878583,191.7532258,92.48404658,64.5027399
893.5237344,187.3315621,97.15273564,63.10224241
894.5594263,181.3827179,100.8847035,62.81426223
895.5949342,173.9092317,102.7465201,64.50305499
896.630258,164.942516,101.0751805,73.83581005
897.6653979,154.5477295,94.53059716,85.16743161
898.7003538,142.8277222,83.40,81.32627338
899.7351259,129.9285527,69.75381502,76.8593576
900.7697141,116.0502502,56.55354215,74.7404152
901.8041185,101.4630505,46.58172675,75.44571239
902.8383391,86.5220628,41.41482132,65.15239782
903.872376,71.66988893,40.28776278,56.97155062
904.9062292,57.42181836,40.06258073,68.01354609
905.9398988,44.3365405,37.40,47.94491572
906.9733848,32.97794304,31.43184311,26.05172813
908.0066873,23.87050242,24.37384418,27.95072511
909.0398063,17.44940039,19.85970411,6.884561883
910.0727418,14.01035632,20.49825269,-7.18
911.1054938,13.67010069,25.86919538,9.010855607
912.1380626,16.34954811,32.69366828,30.52
913.1704479,21.78326947,37.82479369,41.75266262
914.20265,29.54668625,41.34230649,35.92301267
915.2346689,39.08937066,46.33978436,38.92543084
916.2665045,49.77099673,55.63662281,49.07729547
917.298157,60.90297596,68.73327373,55.26605651
918.3296264,71.79486538,81.69,70.9234675
919.3609127,81.79678968,89.85912007,75.78
920.392016,90.32784465,91.15926677,73.79
921.4229363,96.88843016,87.25479377,80.54948911
922.4536737,101.0657687,82.04189655,80.20
923.4842282,102.547043,78.88,61.42
924.5145998,101.1488515,78.68509254,57.27248547
925.5447886,96.85860458,80.18616205,64.1167456
926.5747946,89.87142904,81.41668353,46.77972911
927.6046179,80.60437116,80.73452363,40.80400614
928.6342585,69.67884853,77.10858472,41.14776535
929.6637165,57.87393154,70.87513714,31.43985081
930.6929919,46.05918896,64.22001731,14.8129387
931.7220847,35.11824323,59.69308586,7.473970415
932.750995,25.87520552,57.93060157,11.52058559
933.7797229,19.0332571,57.29437529,-15.63
934.8082683,15.12780353,55.48711408,-19.80
935.8366314,14.49198891,51.18789207,-0.49
936.8648121,17.23320598,44.97129013,-7.33
937.8928105,23.22138233,39.34,4.185962043
938.9206266,32.09054314,37.12952881,24.16529965
939.9482606,43.25648565,39.09314489,43.98193854
940.9757123,55.95408857,42.95543362,64.30137573
942.002982,69.29320497,45.26112412,58.48105728
943.0300696,82.32477083,44.12154154,62.9579121
944.0569751,94.10848642,40.29516343,80.62627512
945.0836986,103.7811784,36.01250366,86.80
946.1102402,110.6292976,33.02582822,97.67107302
947.1365999,114.1634656,31.57337513,105.0974739
948.1627777,114.1828635,30.85890473,102.840422
949.1887736,110.811352,30.17960994,112.0662031
950.2145878,104.4914329,29.67633266,114.9848026
951.2402203,95.9347482,30.26478166,107.1535252
952.265671,86.04089093,32.52938572,104.9159064
953.2909401,75.80303504,35.56111334,95.56903726
954.3160276,66.21831414,37.50155183,91.94942624
955.3409335,58.2133514,37.44472934,79.17
956.3656579,52.58533081,36.52381202,49.78353045
957.3902008,49.95280774,37.20366193,32.03
958.4145623,50.71215275,41.45433931,12.12
959.4387423,55.00385123,49.12270563,15.85303635
960.462741,62.69930929,58.24351849,38.90543874
961.4865584,73.41407661,67.27219918,33.67526032
962.5101945,86.54288885,76.03838563,44.60223803
963.5336494,101.3106578,83.92722842,74.72572274
964.5569231,116.8392054,88.85780493,84.24
965.5800157,132.2256966,89.59,77.17839048
966.6029272,146.6176145,87.99094773,68.53
967.6256576,159.2696324,87.36932027,85.08831025
968.6482069,169.5818986,88.91789368,112.7847308
969.6705754,177.1289382,90.57,137.2702537
970.6927628,181.6830985,89.05,156.6422901
971.7147694,183.2252754,82.3727622,165.1734469
972.7365952,181.9319708,71.22635229,172.106177
973.7582401,178.1354362,58.66582406,173.2520202
974.7797043,172.2672207,48.50860015,173.6440465
975.8009877,164.8042591,42.93438379,166.4423542
976.8220905,156.2329783,40.84807789,159.5234145
977.8430127,147.03432,38.74702724,163.2188866
978.8637542,137.6811243,34.01310649,155.0076577
979.8843152,128.6349111,27.80968589,134.0819504
980.9046957,120.3324723,24.68361813,104.3877544
981.9248957,113.1618237,29.09087603,95.27323691
982.9449153,107.435979,41.76556448,86.74
983.9647546,103.3744393,58.85085912,73.90835237
984.9844134,101.0944817,74.531212,84.60734906
986.003892,100.6057999,84.76135669,61.59296784
987.0231904,101.8042728,88.71326934,56.78897513
988.0423085,104.4704999,87.9435638,90.88621327
989.0612464,108.2796599,85.80,84.95218403
990.0800042,112.8193316,86.75141225,67.9380455
991.098582,117.6100094,93.72218127,87.25773841
992.1169797,122.1346841,105.1959917,117.4318362
993.1351974,125.8893654,115.9182078,135.192619
994.1532351,128.4544332,120.639772,153.9853257
995.1710929,129.570079,117.3974888,153.2426695
996.1887708,129.1929659,108.2302543,153.4793009
997.2062689,127.517304,97.38658525,151.0637641
998.2235873,124.9555602,88.39240357,136.7675991
999.2407258,122.0858402,81.95713538,137.1775292
1000.257685,119.5804268,76.29356994,122.6266818
1001.274464,118.1303435,69.68,120.6291074
1002.291063,118.375836,63.06970509,111.7659173
1003.307483,120.8481263,60.28100855,83.66
1004.323724,125.9261678,65.25257181,71.17320718
1005.339785,133.8106327,78.65,49.80970991
1006.355666,144.5135283,96.73195332,40.604417
1007.371368,157.8573476,113.3918857,17.16907775
1008.386891,173.4773655,124.0712764,-0.37
1009.402235,190.8263774,128.752284,-0.58
1010.417399,209.188362,131.8562697,-30.50
1011.432383,227.7109457,138.914997,-19.44
1012.447189,245.4630902,152.8396615,3.166862481
1013.461816,261.5140631,172.4615762,-4.33
1014.476263,275.0204873,193.1425747,6.92
1015.490531,285.3084747,208.6473838,30.08505452
1016.504621,291.9408601,214.2750278,35.0992527
1017.518531,294.7569198,209.3882331,24.98611992
1018.532262,293.8726652,196.9636265,18.95849616
1019.545814,289.6415188,181.3564993,16.70672703
1020.559188,282.5867342,166.7860523,17.1087294
1021.572383,273.3189067,156.2067504,12.16253462
1022.585399,262.4508585,149.8126904,25.37694741
1023.598236,250.5237866,144.9727603,39.86328958
1024.610894,237.958039,138.8475767,37.4685284
1025.623374,225.0351394,131.2268527,50.2757528
1026.635675,211.9079597,124.3392689,48.93593003
1027.647798,198.6287257,119.8021575,45.14094808
1028.659742,185.1837528,115.916375,57.38040726
1029.671508,171.5280818,108.4506299,57.11644837
1030.683095,157.6157277,94.70227415,44.96838695
1031.694503,143.4211246,76.85726687,19.84783262
1032.705734,128.9512657,61.10877273,8.190732854
1033.716786,114.2553025,53.14285127,3.530243138
1034.72766,99.43993486,53.84143414,1.674146154
1035.738355,84.69143387,58.85430237,22.748724
1036.748872,70.29387049,62.18440515,18.66128434
1037.759211,56.62735877,60.03513797,7.596499193
1038.769372,44.13735284,51.86008127,17.16325212
1039.779355,33.28039755,39.50869436,15.77609771
1040.78916,24.45936595,26.22562398,4.861254559
1041.798787,17.96179417,15.36,2.019615663
1042.808236,13.91570461,8.956120937,17.55974827
1043.817507,12.27448094,7.630027501,37.02105166
1044.8266,12.83170526,11.15830965,47.29801075
1045.835516,15.25687593,17.94433322,59.25636053
1046.844253,19.14116817,24.47855996,73.3382669
1047.852813,24.04440308,27.46657374,74.26469721
1048.861195,29.53547089,26.76657278,68.27557312
1049.8694,35.2220847,24.83878865,71.6192796
1050.877426,40.77321827,23.31416432,77.98116348
1051.885276,45.9427598,21.26660042,80.67244749
1052.892947,50.60104859,16.75666155,78.52264063
1053.900442,54.77319849,9.224426656,64.05
1054.907758,58.67448985,0.310769785,52.84796412
1055.914898,62.73019305,-7.30,43.88843561
1056.92186,67.57133326,-11.90,37.67351451
1057.928644,74.00330629,-13.77,43.22863508
1058.935251,82.94688005,-13.90,29.65875495
1059.941682,95.35277612,-11.50,-6.81
1060.947934,112.095436,-3.18,-33.29
1061.95401,133.8600506,15.12499728,-27.79
1062.959909,161.0435112,45.46250609,-14.59
1063.96563,193.686338,87.1373274,-3.93
1064.971175,231.44127,138.0017871,6.91
1065.976542,273.5752471,196.0361673,33.94750807
1066.981733,318.9993602,259.8591994,76.81216273
1067.986746,366.3232178,328.1043992,96.45443138
1068.991583,413.9320125,398.5274558,136.5065495
1069.996243,460.083533,467.8177685,177.8393491
1071.000726,503.018232,532.4358897,210.7065589
1072.005032,541.0716141,589.5478116,270.2422672
1073.009161,572.7785088,636.8153892,304.1792554
1074.013114,596.9624957,671.5168052,326.2123998
1075.016891,612.80741,690.8001621,349.5692396
1076.02049,619.9088055,693.3217813,362.8346902
1077.023913,618.3013393,680.0135509,366.2033814
1078.02716,608.4571709,652.6033958,371.5732879
1079.03023,591.2527046,611.9746875,378.339073
1080.033124,567.9031077,558.7056828,347.8697838
1081.035841,539.8659582,494.7828949,322.4953453
1082.038382,508.7222268,424.36,307.3002261
1083.040747,476.0529525,353.082566,266.99
1084.042935,443.3322946,286.2831237,235.3109144
1085.044947,411.8481109,227.1268935,216.048892
1086.046783,382.6488313,176.1701972,180.0857483
1087.048443,356.5083271,132.7842629,147.8379123
1088.049927,333.9007691,96.81175265,138.1328079
1089.051235,314.98366,69.0222982,108.153043
1090.052366,299.5944101,50.34623389,89.72035255
1091.053322,287.2701208,40.7496749,87.57930952
1092.054102,277.2992822,38.76621776,73.42767124
1093.054706,268.8060297,42.02,94.02445383
1094.055134,260.8561173,48.33459043,93.81882872
1095.055386,252.5662362,56.68897034,100.1015386
1096.055462,243.1994939,67.4101197,120.5289875
1097.055363,232.2379108,80.91324562,95.40426307
1098.055088,219.4297958,95.77456959,101.5146906
1099.054637,204.811859,108.2634438,111.7727977
1100.054011,188.7051164,114.5525176,108.6194254
1101.053209,171.6814066,113.4795444,93.38808167
1102.052232,154.4961918,107.0405292,81.67492111
1103.051079,137.9881306,98.83645842,90.46847953
1104.049751,122.9570204,92.33028602,73.68468145
1105.048247,110.0436161,89.51402551,95.28334434
1106.046568,99.64028356,90.18252247,116.604355
1107.044714,91.85384678,92.48000342,115.2352096
1108.042684,86.52238734,94.53590961,130.7084683
1109.040479,83.26940762,95.89449069,117.9954427
1110.038099,81.57343618,97.58576488,115.068931
1111.035544,80.83685185,100.8353064,125.7286126
1112.032813,80.44648662,105.6668262,128.3092278
1113.029908,79.82553153,110.8058656,126.4512373
1114.026827,78.47926751,114.9275841,119.2299484
1115.023571,76.03557285,117.6700373,113.1162661
1116.020141,72.27774786,119.0309002,100.2567315
1117.016536,67.16690559,118.142955,101.8044827
1118.012755,60.85435141,113.6541914,93.24473396
1119.0088,53.6853688,105.4674903,81.73351814
1120.00467,46.19358313,95.08351332,76.39971779
1121.000365,39.08344211,83.81548366,56.88642089
1121.995886,33.19819114,71.52447885,47.13881559
1122.991232,29.47217848,58.03890872,25.0301093
1123.986403,28.86835543,45.72581556,10.51885235
1124.9814,32.30106038,39.64884168,-7.93
1125.976222,40.54559656,44.4554227,-19.84
1126.970869,54.14714233,61.29500424,-12.98
1127.965342,73.35232948,87.97508958,-36.43
1128.959641,98.08190522,121.6438756,-30.34
1129.953765,127.9456893,161.311464,-30.40
1130.947715,162.2870007,208.6536423,-35.93
1131.941491,200.2406026,266.7837963,-7.17
1132.935092,240.7925896,337.686975,-1.87
1133.928519,282.8353599,420.2869043,12.79364141
1134.921772,325.2133076,510.830727,25.8328222
1135.914851,366.758302,605.0452475,36.42873574
1136.907756,406.3194293,699.8577488,54.28596208
1137.900486,442.7937802,793.0462492,49.26682356
1138.893043,475.1608637,881.23,51.94395102
1139.885425,502.518283,958.4334181,66.26614114
1140.877634,524.1167706,1017.441322,87.79676543
1141.869668,539.3940642,1053.450358,92.78708167
1142.861529,548.0028675,1067.20,82.6963697
1143.853216,549.8237237,1064.5688,79.95065211
1144.844729,544.9590084,1052.355441,71.95881389
1145.836069,533.7172349,1033.386075,79.98915979
1146.827234,516.6033963,1005.252333,99.0455941
1147.818227,494.3213103,963.9840531,94.73209179
1148.809045,467.7767367,908.5228286,64.63783492
1149.79969,438.0661237,841.2304533,54.61404613
1150.790161,406.4476986,765.2314707,56.28508419
1151.780459,374.2980727,683.0629684,50.82736666
1152.770583,343.0501947,598.09,52.81849643
1153.760534,314.1046561,515.9120099,45.21867344
1154.750311,288.7174223,443.0811877,63.45600034
1155.739915,267.8827444,384.0548606,77.15526217
1156.729346,252.2367805,339.1481438,76.91959437
1157.718604,242.0028389,305.4781787,87.32141551
1158.707688,236.9882094,280.0122938,86.38560965
1159.696599,236.6317044,261.8439056,112.9505225
1160.685337,240.0936612,251.4198583,130.25
1161.673902,246.3744902,247.4723318,135.26
1162.662294,254.4429164,245.0698461,159.7212947
1163.650512,263.3534932,237.4795029,172.9359464
1164.638558,272.3346151,220.7179505,169.9168726
1165.626431,280.8319152,196.9405838,153.7829795
1166.614131,288.5008458,173.7230497,142.0248827
1167.601658,295.1580253,159.0389935,135.2622244
1168.589012,300.7169966,155.0297714,135.5735695
1169.576193,305.1382794,156.1169291,139.9018754
1170.563202,308.4097235,154.23,132.8942412
1171.550038,310.55085,146.4729066,101.7186988
1172.536701,311.6216739,137.0795797,60.14796415
1173.523192,311.7206211,131.7845066,48.35474397
1174.50951,310.9699613,131.6293207,51.60789008
1175.495655,309.4954092,133.5568005,39.96084199
1176.481628,307.4039588,135.9641689,24.30127122
1177.467429,304.7606757,141.599623,30.42639702
1178.453057,301.5677467,154.7285415,24.03705526
1179.438512,297.7525205,176.2572893,3.479734131
1180.423796,293.1723972,201.5991859,28.14228624
1181.408906,287.6422608,223.2915778,49.29860962
1182.393845,280.9804721,236.5333615,58.629003
1183.378612,273.0574746,242.7471892,77.02004134
1184.363206,263.8296288,247.7442099,67.77008736
1185.347628,253.3506981,256.3991298,79.01
1186.331878,241.7638584,268.8176491,105.2127715
1187.315956,229.2802457,280.9776765,127.0268196
1188.299862,216.1467904,288.6618282,149.6858787
1189.283596,202.6045044,290.9845042,150.2185443
1190.267158,188.8434525,290.4294133,160.4875503
1191.250547,174.9684748,289.6765576,172.7744225
1192.233766,160.9924118,288.8653045,183.3170565
1193.216812,146.8646602,286.17661,200.5275793
1194.199686,132.5261055,280.30,204.9222103
1195.182389,117.9703095,271.2937272,202.7094849
1196.16492,103.2919685,258.9585816,204.0077416
1197.147279,88.71203136,241.6920671,203.0828161
1198.129467,74.57828183,218.193155,193.9005366
1199.111483,61.34614901,190.3328727,179.0268985
1200.093328,49.54584603,163.3904776,176.6763419
1201.075,39.74055777,142.8572252,167.49
1202.056502,32.47756742,130.7516545,133.0981734
1203.037832,28.23323713,124.445519,142.29
1204.018991,27.35730451,118.8255748,158.3319625
1204.999978,30.02539652,110.7192479,151.5907526
1205.980794,36.20372542,102.5568599,150.978184
1206.961438,45.62520969,101.554664,139.6860593
1207.941912,57.78170655,113.9922501,151.0148907
1208.922214,71.94567878,139.1102951,168.074754
1209.902345,87.23219998,168.2037885,190.4436969
1210.882305,102.695297,190.2942162,203.6504454
1211.862094,117.4337634,199.8628082,178.8967752
1212.841711,130.677876,199.8148398,162.5951294
1213.821158,141.8438324,197.4031116,169.1814723
1214.800434,150.5625276,197.7639892,173.4515749
1215.779539,156.6949346,200.7682835,165.4355097
1216.758473,160.3360913,202.3016023,158.4719837
1217.737236,161.7993901,197.4724046,137.3250826
1218.715828,161.5749586,183.2561469,122.4855023
1219.694249,160.2665946,159.9852881,114.0970483
1220.6725,158.5195082,131.9949909,86.71
1221.65058,156.951485,106.6001049,62.97624995
1222.628489,156.0973308,90.74619156,47.43349141
1223.606228,156.37383,87.49009103,47.77912526
1224.583796,158.0662965,95.01774083,38.01161034
1225.561194,161.3287359,108.3172759,36.09019387
1226.538421,166.186594,122.0236851,62.68000022
1227.515478,172.5374029,133.1918261,59.56963828
1228.492364,180.1530515,142.6266864,68.10198842
1229.46908,188.6923275,153.5460055,90.40462404
1230.445625,197.7328326,168.3634894,94.32194951
1231.422,206.825084,186.177739,103.174122
1232.398205,215.5599843,202.7429408,97.67511031
1233.37424,223.6312989,212.706944,109.503332
1234.350104,230.872777,212.7254942,117.3938399
1235.325799,237.2566942,203.5447383,98.31081812
1236.301323,242.8556758,189.5118711,96.91822997
1237.276677,247.7846106,175.8505655,97.29
1238.251861,252.1437073,165.8012027,90.60764092
1239.226875,255.9773555,159.3338071,88.13877635
1240.20172,259.2553665,153.72,98.1708977
1241.176394,261.8778749,145.4073182,117.8159029
1242.150898,263.7011582,132.2973025,130.6244015
1243.125233,264.57752,115.4781314,135.1501538
1244.099397,264.3982892,99.30607411,133.8712879
1245.073392,263.1275524,89.22057249,119.4317126
1246.047217,260.8189737,88.28,123.9804592
1247.020873,257.616007,95.06461988,134.1615745
1247.994359,253.7390674,104.7742797,128.5138716
1248.967675,249.4615986,112.6564829,149.229809
1249.940822,245.0777565,117.3206481,151.6191009
1250.913799,240.8681342,121.4634703,130.7396054
1251.886607,237.0712144,128.9435504,132.6699704
1252.859245,233.8663967,140.7133677,136.1344929
1253.831714,231.3694664,154.0746581,134.9174278
1254.804013,229.6334267,165.70,126.6461669
1255.776143,228.6447516,174.1826923,120.0941004
1256.748104,228.3133907,179.5142463,136.9040753
1257.719896,228.465707,181.6054011,144.3492501
1258.691518,228.8512249,180.1080202,132.4711114
1259.662971,229.1673008,175.4974783,146.0690962
1260.634255,229.0974493,169.8810756,143.6863307
1261.60537,228.3523017,166.0067074,121.1667852
1262.576316,226.7020436,164.4196855,143.2311957
1263.547092,223.9984739,161.7280708,167.0131046
1264.5177,220.19186,152.8488966,170.8886171
1265.488139,215.3416484,135.5673863,161.1157934
1266.458409,209.6108081,112.9442409,148.2533781
1267.42851,203.2366489,91.51,142.5938569
1268.398442,196.4852789,76.85,128.9927732
1269.368206,189.6085684,69.92924749,124.5989771
1270.3378,182.8207654,67.08831341,113.5247581
1271.307226,176.2983475,63.76408458,120.1261738
1272.276484,170.1927954,58.43047845,121.8463027
1273.245572,164.6415152,52.97605751,87.93287443
1274.214492,159.7674258,49.34910692,72.98
1275.183244,155.6667177,46.3489119,62.86571322
1276.151827,152.3900596,40.64550879,62.49955234
1277.120241,149.9225173,31.50766572,56.05738408
1278.088487,148.166409,23.70037759,28.76616294
1279.056565,146.9344573,24.25163717,19.62225704
1280.024474,145.9649601,35.67256455,36.07198324
1280.992215,144.9672164,52.65437938,49.73808999
1281.959787,143.6904366,66.06620553,47.45485948
1282.927192,141.9928491,70.72750559,42.89954515
1283.894428,139.8836163,69.13666081,7.318200533
1284.861496,137.5222035,67.32,1.686927311
1285.828396,135.1812973,67.96151008,35.53883642
1286.795127,133.1944477,69.10776541,38.02610501
1287.761691,131.9040453,68.56655418,30.43818989
1288.728086,131.6102289,67.68,26.4956103
1289.694314,132.5211366,70.92433519,47.53447846
1290.660374,134.7179042,82.92487396,59.1835437
1291.626265,138.1521188,105.1859615,72.35981387
1292.591989,142.6819384,134.5945923,111.2991316
1293.557545,148.1362426,165.4896463,137.2907017
1294.522934,154.3840389,193.3859027,162.4100316
1295.488154,161.3842497,216.284805,162.2008119
1296.453207,169.20104,233.4146357,169.6484711
1297.418092,177.9847336,245.0022441,176.9926104
1298.382809,187.9252214,253.9541345,164.3454432
1299.347359,199.1841153,266.2752328,170.7647285
1300.311741,211.816678,288.2286496,155.0431084
1301.275956,225.7051831,322.0990185,151.4634926
1302.240003,240.5273482,364.1028885,160.1682228
1303.203883,255.7710244,406.1616287,155.082209
1304.167595,270.789309,440.1737907,151.3061681
1305.13114,284.8788585,462.1095509,141.38
1306.094518,297.3600623,473.5590301,118.9271045
1307.057728,307.6402035,479.3367331,79.82
1308.020771,315.2501824,482.9902724,79.21804725
1308.983647,319.8572551,484.8511789,82.92229204
1309.946356,321.2613657,484.1389698,70.06138604
1310.908897,319.3813164,481.0618102,62.75949527
1311.871271,314.2392605,476.0984195,60.11873354
1312.833479,305.9561778,468.8132004,66.63858417
1313.795519,294.7647807,458.2787639,46.76908921
1314.757392,281.0320904,443.7284405,55.97472166
1315.719099,265.2764117,424.545578,77.20983907
1316.680638,248.1655732,400.63,60.32101168
1317.64201,230.4876929,373.2464749,54.95854107
1318.603216,213.0917257,345.2730272,53.51496693
1319.564255,196.8049219,320.6052807,43.74959786
1320.525127,182.3427455,302.5387745,35.07978345
1321.485832,170.2294698,291.2859856,40.41129237
1322.446371,160.7462727,282.7872234,53.48588048
1323.406743,153.9166473,271.3765226,41.82954807
1324.366948,149.5261127,254.6928023,29.12330401
1325.326987,147.164682,235.8366566,26.09661048
1326.286859,146.2837438,220.3231714,17.43088508
1327.246565,146.265981,210.8296432,31.4316169
1328.206104,146.5063323,205.067766,49.77637627
1329.165477,146.4936715,198.5861407,38.0677873
1330.124684,145.8757966,188.9727599,37.67031963
1331.083724,144.492282,177.4252733,49.90924914
1332.042598,142.3699088,167.21,33.99657058
1333.001305,139.6871018,160.7343402,32.52360299
1333.959846,136.7223138,157.427734,46.78879607
1334.918222,133.8025533,154.0273495,39.87
1335.87643,131.2599803,147.1064396,41.38596456
1336.834473,129.3936831,135.7134207,51.10348732
1337.79235,128.4296396,122.4744641,52.65
1338.75006,128.4754811,112.6571306,46.98265074
1339.707605,129.4750337,111.4554769,42.33635104
1340.664984,131.1772217,120.7353745,55.2858501
1341.622196,133.1385281,137.3554136,72.06508256
1342.579243,134.7714436,154.4926454,82.18226715
1343.536124,135.4341115,165.0948082,97.95669031
1344.492839,134.5389171,165.0729546,102.0161922
1345.449389,131.6498453,154.7799117,93.26
1346.405772,126.5430621,138.6844936,81.02
1347.36199,119.2215375,123.2478901,78.48
1348.318042,109.8949642,113.5474116,91.91444644
1349.273929,98.94602571,110.5770794,86.31757117
1350.22965,86.8965103,111.1804321,83.50416265
1351.185205,74.37301394,110.6961119,80.97140605
1352.140595,62.06494687,106.3064943,61.90417101
1353.095819,50.66901718,98.62374318,47.42784988
1354.050878,40.82138809,90.64497935,19.18175776
1355.005772,33.02840569,85.15024059,1.341852818
1355.9605,27.61384774,82.57131704,22.69590392
1356.915063,24.69827237,80.91716903,34.94448551
1357.86946,24.21259078,77.48951086,25.08976052
1358.823692,25.93319512,70.78107186,31.95
1359.777759,29.52151829,61.65500537,30.42688778
1360.731661,34.5562808,53.40,12.15074285
1361.685398,40.55634527,49.75847918,5.345207233
1362.638969,47.00348892,51.51214478,17.2818795
1363.592376,53.37985749,55.11,39.81997678
1364.545617,59.225621,55.47534202,51.3393941
1365.498694,64.20468325,50.53777949,59.20639768
1366.451605,68.15673251,42.7026492,53.98093008
1367.404352,71.11938482,36.28659561,49.4248352
1368.356933,73.31879343,34.23982329,54.31314282
1369.30935,75.14115504,37.36214981,56.27508032
1370.261602,77.10145774,45.19636408,58.85916451
1371.213689,79.81728854,56.54986119,51.31667001
1372.165612,83.98314407,69.99711289,38.77040402
1373.117369,90.33336775,85.01880539,17.09853742
1374.068962,99.58413686,102.364054,9.440177758
1375.020391,112.3564725,123.2874896,9.396684058
1375.971655,129.0944927,149.7543528,-9.41
1376.922754,149.9961176,185.5186292,-27.78
1377.873689,174.9691039,234.8804302,-15.12
1378.824459,203.6205676,299.0468287,30.86567248
1379.775065,235.280727,374.4285435,54.30033129
1380.725506,269.0497792,454.9272868,63.31247739
1381.675784,303.8513721,535.2120684,77.01550717
1382.625896,338.4844008,611.8044031,91.83
1383.575845,371.6773675,682.0870566,117.8782225
1384.525629,402.1535242,743.0682301,152.7167423
1385.475249,428.7082732,791.2240408,196.5661375
1386.424705,450.2896317,823.4689896,240.6280298
1387.373996,466.0666228,838.4668662,274.9665898
1388.323124,475.4724229,837.5743489,275.9476786
1389.272088,478.2161499,824.5283958,276.4634604
1390.220887,474.267501,803.21022,292.9294365
1391.169522,463.8300865,774.8615402,300.6107883
1392.117994,447.3228778,737.2459951,316.2720277
1393.066301,425.3763223,686.5620072,323.1177245
1394.014445,398.8293624,620.987877,312.0814111
1394.962425,368.7048818,543.58,298.547777
1395.910241,336.151261,461.859116,277.8745063
1396.857893,302.3570533,383.8694957,267.6484432
1397.805382,268.4587538,314.4059207,259.109994
1398.752707,235.4597679,254.6729891,218.3885583
1399.699868,204.1685502,204.2570273,191.2148153
1400.646865,175.1592005,162.5637573,191.9134946
1401.593699,148.7600024,129.2939952,171.2736557
1402.54037,125.0742835,104.4299621,131.6165096
1403.486876,104.031421,87.34802006,103.1493914
1404.43322,85.46016093,75.72671528,87.35
1405.3794,69.17287196,66.03286792,74.94069069
1406.325416,55.04608528,55.67680108,66.57681591
1407.271269,43.08146648,44.78627362,47.70855878
1408.216959,33.43430727,35.81,28.41232011
1409.162486,26.40375578,31.33434276,27.44778395
1410.107849,22.38868943,32.50451238,15.35252886
1411.053049,21.82101553,39.6154515,-13.23
1411.998086,25.09198408,53.56977814,-13.89
1412.94296,32.48845513,75.85420192,-0.36
1413.88767,44.15274763,107.2160341,3.363945965
1414.832218,60.06925113,146.6956867,15.6872416
1415.776602,80.07008913,191.8356828,35.68187495
1416.720824,103.8483198,240.1338576,40.50052483
1417.664882,130.9697623,291.1138481,40.83939993
1418.608778,160.879383,347.161219,46.12455557
1419.55251,192.9021336,411.4013018,39.79905272
1420.49608,226.2411802,483.7926467,56.58427862
1421.439487,259.9812484,559.5815717,80.17977253
1422.382732,293.1090672,632.3790352,103.7210115
1423.325813,324.5590434,698.4976859,119.4543575
1424.268732,353.2811015,757.7028401,111.3199812
1425.211488,378.3195149,810.29,128.7348321
1426.154081,398.8900375,854.550027,140.693202
1427.096512,414.4424432,887.1083702,147.8442739
1428.038781,424.6967279,905.1347575,157.459755
1428.980886,429.6466138,907.8031074,148.5737847
1429.92283,429.5304913,895.98,138.4241982
1430.864611,424.7751883,870.8188188,135.5464061
1431.806229,415.9242273,832.875167,151.3800128
1432.747685,403.5671502,782.5877894,144.8165101
1433.688979,388.2830685,721.9986613,121.2127747
1434.63011,370.6015181,655.996828,112.9190448
1435.571079,350.9775372,591.0750718,87.13
1436.511886,329.7803872,531.5446781,73.44872007
1437.452531,307.3005729,476.6055086,88.31
1438.393014,283.7778914,422.1604301,94.96
1439.333334,259.4412754,366.213093,72.54279188
1440.273492,234.5416413,311.8533856,49.87915345
1441.213489,209.3655673,264.4299914,71.70103284
1442.153323,184.2336978,226.3207062,83.01627043
1443.092995,159.4959464,194.9922196,101.6392768
1444.032506,135.5318816,166.01,132.67
1444.971854,112.7559382,137.4876794,124.1619673
1445.911041,91.61909154,111.5426286,119.3601867
1446.850065,72.59822591,92.21851004,123.472708
1447.788928,56.17186045,82.39,139.0261541
1448.72763,42.7859366,81.61109346,142.9643628
1449.666169,32.81366871,85.5415078,148.1338122
1450.604547,26.51493801,88.09569388,162.5212304
1451.542763,24.00122384,85.50542192,148.0497957
1452.480818,25.20963507,78.63853361,136.8659421
1453.418711,29.89059953,71.27993122,128.3465811
1454.356442,37.61606471,66.81,120.4100257
1455.294012,47.80874318,66.67603952,95.06829229
1456.23142,59.783776,70.70,77.009783
1457.168667,72.79639444,77.60,75.36157137
1458.105753,86.09783941,85.12623737,57.94561966
1459.042677,99.00166998,90.66486204,63.48487244
1459.97944,110.9533414,92.54332714,58.73351192
1460.916042,121.5877886,91.51343803,33.29
1461.852482,130.7591648,90.46202916,7.931653062
1462.788761,138.5355115,91.64559842,5.415640056
1463.724879,145.1638893,94.23440221,38.50480817
1464.660836,151.016852,95.70729321,35.87712269
1465.596632,156.5256167,95.96825572,25.29460339
1466.532266,162.1010161,98.94231273,27.37960849
1467.46774,168.0505908,109.2797337,24.98848847
1468.403053,174.5115342,127.9368499,52.66706415
1469.338204,181.4198738,151.3159256,83.31089491
1470.273195,188.522632,173.9144977,105.9869094
1471.208025,195.4241882,191.0158711,122.4311715
1472.142694,201.6527547,199.7420468,138.4490492
1473.077202,206.7335388,199.5328477,153.4583442
1474.011549,210.2540212,192.342337,141.0903295
1474.945736,211.90851,181.52,125.0345206
1475.879762,211.5184233,169.8724855,120.364927
1476.813627,209.0342216,158.9553647,121.8602247
1477.747332,204.5274477,149.813033,123.1931267
1478.680876,198.1804796,143.2239177,120.4810671
1479.614259,190.2814464,138.8738687,135.9945457
1480.547482,181.2278276,135.2687167,148.335165
1481.480545,171.5310578,131.0433482,125.5882095
1482.413447,161.8047737,125.8530267,105.5735295
1483.346188,152.7232501,119.8653437,92.49117655
1484.278769,144.9513457,113.270315,83.38510443
1485.21119,139.0592563,106.7816731,90.93834327
1486.143451,135.4389677,102.2043146,91.21345057
1487.075551,134.2381612,102.0211897,77.36752841
1488.007491,135.3240664,107.8268941,65.42925891
1488.939271,138.2858143,118.4460356,72.14130258
1489.87089,142.4799547,129.6963364,85.18780353
1490.80235,147.1163984,136.800732,91.93773302
1491.733649,151.3699265,137.4169503,85.96060128
1492.664788,154.4939404,132.330848,78.40
1493.595768,155.9154081,123.6259591,68.7583249
1494.526587,155.2977623,112.8572491,44.11885075
1495.457246,152.5637069,100.9281948,15.10295994
1496.387746,147.8749676,88.64,-4.38
1497.318085,141.5773005,76.69212361,2.818106798
1498.248265,134.1308076,65.61370565,3.034759937
1499.178285,126.0454465,56.26715905,1.394642646
1500.108145,117.8304616,49.89,3.518449784
1501.037845,109.9568204,47.16,-1.17
1501.967386,102.828871,47.20398957,21.81001732
1502.896767,96.76098712,47.54640407,19.79372302
1503.825988,91.95464861,45.59340245,7.410795905
1504.75505,88.47496074,40.60897453,24.64529401
1505.683952,86.23418121,34.69760006,22.66982426
1506.612694,84.99518725,31.71477291,32.2639873
1507.541278,84.40256776,34.51768424,52.29904002
1508.469701,84.03786843,42.60385354,57.52464613
1509.397965,83.48717125,52.28355981,64.45685852
1510.32607,82.40562902,59.32996011,66.33383816
1511.254016,80.56399647,61.87893835,65.44797564
1512.181802,77.86852915,61.33813656,62.25118623
1513.109429,74.35602312,60.84929433,53.88726442
1514.036897,70.17275598,62.64114206,49.9087588
1514.964205,65.54728394,66.29827563,59.15160611
1515.891354,60.76500139,69.17267653,58.81641202
1516.818345,56.14676673,68.42115257,51.17225705
1517.745176,52.02691881,62.87549105,49.96605604
1518.671848,48.72514758,53.43213136,63.18
1519.598361,46.51298821,42.39638646,74.93344366
1520.524715,45.58090409,32.65348685,50.65098226
1521.45091,46.0121556,26.6129099,40.53267906
1522.376946,47.76874481,25.29322396,38.96681581
1523.302823,50.69324834,28.35358254,35.60598194
1524.228541,54.52681625,34.51102867,53.40200639
1525.154101,58.94109219,41.82429666,53.51494133
1526.079502,63.58145656,48.65236506,59.30864126
1527.004744,68.11769313,54.97,67.15894746
1527.929827,72.29514399,62.17051556,49.97649315
1528.854751,75.97604906,71.14797223,49.20699666
1529.779517,79.15892149,81.15389174,43.38072692
1530.704125,81.96705161,90.77,19.72540573
1531.628574,84.60719955,99.34963556,16.08934268
1532.552864,87.3104199,107.0908373,7.632413044
1533.476996,90.27015048,114.6624444,-3.05
1534.400969,93.58834184,123.4639263,-9.20
1535.324784,97.23581515,135.4717235,-21.42
1536.24844,101.0322513,151.6539325,-7.83
1537.171938,104.652912,170.3341304,10.33898117
1538.095278,107.6677711,187.6132883,18.38638372
1539.01846,109.6092152,199.85,27.66
1539.941483,110.0514645,205.9842059,25.65926024
1540.864348,108.6792433,207.7876095,27.96787286
1541.787055,105.3298436,207.9385561,23.73632002
1542.709604,100.0060365,207.9566294,14.05214819
1543.631994,92.86779996,207.8192827,26.58213431
1544.554227,84.21327622,207.2407384,37.39
1545.476301,74.45604313,206.5587988,46.56230286
1546.398218,64.10068564,205.9379684,58.39933846
1547.319976,53.71443165,204.1566056,51.70963854
1548.241577,43.89183708,198.7641264,55.12342927
1549.163019,35.21305479,187.7090474,61.25
1550.084304,28.19936898,171.1632272,37.39
1551.005431,23.26906697,151.9577443,27.46407662
1551.9264,20.69727073,134.037462,27.72336555
1552.847212,20.58783261,120.3569816,27.26725826
1553.767866,22.86720562,111.948861,38.49207952
1554.688362,27.30449091,108.3651628,31.84734428
1555.6087,33.55293511,108.5896064,31.03559963
1556.528881,41.20250046,111.3695538,33.1258909
1557.448904,49.83272659,114.7753573,37.20233279
1558.368769,59.05802949,116.1260463,54.22748966
1559.288477,68.56090036,113.3159983,50.580628
1560.208028,78.10998248,106.6302862,39.05056363
1561.127421,87.56016733,98.95,22.38863453
1562.046657,96.83413424,93.51746519,17.77605892
1562.965735,105.8913252,91.24268734,31.88194014
1563.884656,114.6959059,90.73316163,40.33767476
1564.80342,123.1922987,91.1035784,48.32124093
1565.722027,131.2895389,94.10174779,45.39523723
1566.640476,138.8545493,102.580259,55.6210271
1567.558768,145.7186671,116.6818526,77.98075956
1568.476903,151.7010102,131.9157411,89.27855544
1569.394881,156.6442531,141.4902422,105.2787226
1570.312701,160.450038,141.0645805,109.6603295
1571.230365,163.0991522,131.8960819,101.6204665
1572.147871,164.6478777,119.9711319,95.86515578
1573.065221,165.204073,112.171665,101.5052239
1573.982414,164.8968984,112.4269952,109.8812726
1574.899449,163.8552117,120.1533514,115.1436252
1575.816328,162.2024217,131.2275043,119.8327259
1576.73305,160.0666732,140.3564318,109.7591766
1577.649615,157.5977394,143.5701197,107.2297216
1578.566024,154.976394,139.9020985,94.79099039
1579.482275,152.4032065,131.6135705,65.56
1580.39837,150.0650377,122.8212353,59.33776441
1581.314308,148.0910975,117.385315,50.22494143
1582.23009,146.5149549,117.2898839,28.28375818
1583.145715,145.2541257,122.0235643,21.70691548
1584.061183,144.1125435,128.9279481,27.13198591
1584.976495,142.8059435,134.8586401,31.67070672
1585.89165,141.0033431,138.6472027,27.75
1586.806649,138.3721131,141.833346,16.19315342
1587.721492,134.6168047,146.0964793,23.00128608
1588.636178,129.5108441,150.2264989,42.10507651
1589.550708,122.9235139,150.641431,40.88360592
1590.465081,114.8393781,144.884886,43.91803301
1591.379298,105.3639627,133.8588062,42.38569718
1592.293359,94.71389382,120.4041843,29.57867117
1593.207263,83.19676661,106.2759992,46.64497519
1594.121012,71.18831508,91.48858981,45.74433733
1595.034604,59.10955892,76.51819696,27.85867985
1595.94804,47.40133819,63.46138357,33.60528212
1596.86132,36.4968976,54.07044337,32.66180868
1597.774444,26.79925793,47.57101398,30.49497276
1598.687412,18.66830783,41.47527061,32.56227493
1599.600224,12.41418414,34.52694741,33.19839867
1600.51288,8.288353563,28.24244803,21.61255681
1601.42538,6.468460592,25.39139251,7.427620867
1602.337724,7.04332971,27.59504566,25.67239282
1603.249913,10.00831351,34.72697192,34.37624984
1604.161945,15.27356579,45.73,22.12381919
1605.073822,22.67858809,59.09652586,27.9237273
1605.985543,32.00564526,73.10179275,30.12906783
1606.897109,42.98933188,86.46,32.51760546
1607.808518,55.32210513,98.80396339,34.3935614
1608.719772,68.65590743,109.9278511,26.71179335
1609.630871,82.60167225,118.7790204,34.31364501
1610.541814,96.73053689,124.251659,34.40263112
1611.452601,110.5802298,127.2815681,22.05983074
1612.363233,123.6706395,131.0294389,29.77285119
1613.273709,135.5362131,137.9532782,39.19968633
1614.18403,145.7808999,146.7044126,49.99668213
1615.094196,154.1480945,152.4875534,76.78780865
1616.004206,160.5826672,151.1736569,68.73370901
1616.914061,165.2578881,143.1311952,60.22499935
1617.82376,168.5518687,132.7150964,76.74657596
1618.733304,170.9794037,124.3681288,69.411562
1619.642693,173.1002837,119.640419,77.4338377
1620.551927,175.4273297,117.2595439,90.00
1621.461006,178.3516897,115.0678399,91.29510327
1622.36993,182.0956211,112.0359922,98.61961151
1623.278698,186.6973085,109.5126493,89.44729615
1624.187311,192.0282191,110.7819287,94.71798778
1625.09577,197.8392968,118.1796411,113.7358997
1626.004073,203.8268957,129.8057969,118.0356369
1626.912222,209.7028779,139.768769,126.2936284
1627.820215,215.2495601,142.6373515,124.7814229
1628.728054,220.3445207,137.7591361,112.3641508
1629.635738,224.9517192,129.1185664,105.0998027
1630.543267,229.0869545,121.682084,91.46729288
1631.450641,232.7722569,118.7334068,94.16028172
1632.357861,235.9951833,122.0701076,96.83594398
1633.264925,238.6861598,132.4624589,91.23441612
1634.171835,240.7217525,148.3753652,128.2140993
1635.078591,241.9551184,165.2430485,154.7589476
1635.985192,242.2633089,177.7273943,148.0165134
1636.891638,241.5879244,183.1369803,161.8221702
1637.79793,239.9456038,182.7729235,157.6089732
1638.704067,237.4016562,180.3474191,145.8131647
1639.61005,234.02111,178.8552679,162.3201248
1640.515878,229.8241686,178.4108929,162.9182074
1641.421552,224.7700129,176.8159895,163.2852843
1642.327071,218.7763887,171.9307408,173.8986914
1643.232436,211.7668399,163.6015878,181.849528
1644.137647,203.7318275,153.953119,185.832175
1645.042704,194.7899821,145.8119384,172.4907028
1645.947606,185.2359047,139.8970082,169.4920367
1646.852354,175.5610879,133.1165669,169.3057825
1647.756948,166.435691,120.4236377,152.7588423
1648.661388,158.6425864,99.44,129.9962009
1649.565674,152.9653736,73.88880305,102.1417325
1650.469806,150.0490438,52.53532438,71.36397663
1651.373783,150.2666203,43.95631049,45.30124396
1652.277607,153.6282526,51.20195895,47.0002022
1653.181277,159.7592334,70.54050275,72.24750723
1654.084793,167.9526519,94.64923005,83.42
1654.988154,177.2776444,116.7739658,84.0431068
1655.891362,186.7082908,133.0415783,89.50146998
1656.794417,195.2399382,142.9221704,79.0906553
1657.697317,201.9740855,148.3216411,68.59381352
1658.600064,206.1694328,151.5076874,83.51547611
1659.502657,207.2693429,153.2534997,88.16670335
1660.405096,204.9206906,152.7038909,78.43755641
1661.307381,198.9938106,148.8266709,88.66
1662.209513,189.6019872,142.0910624,83.49326625
1663.111492,177.1101168,134.5523811,70.80
1664.013316,162.1235082,127.7859906,84.63639264
1664.914988,145.4565631,120.975801,84.05536814
1665.816505,128.0849549,111.6922714,70.38
1666.71787,111.0813873,98.49,54.44317004
1667.619081,95.53300549,82.50199073,27.23413116
1668.520138,82.44134129,66.76431497,6.729051358
1669.421042,72.61148255,54.49825755,-9.10
1670.321793,66.54479799,48.20846872,-28.19
1671.222391,64.35585765,49.63676374,-37.08
1672.122835,65.7358743,59.36806839,-39.32
1673.023126,69.98018037,75.97260053,-26.40
1673.923264,76.08436155,95.72,4.631629541
1674.823249,82.89444971,113.5955484,26.98152389
1675.72308,89.27870437,125.1736394,32.73131899
1676.622759,94.28151377,128.1258488,28.56004779
1677.522284,97.22782861,122.5177844,33.86093637
1678.421657,97.76464763,110.6809424,41.9542713
1679.320876,95.844291,97.11186641,30.97043237
1680.219943,91.66556954,87.33681155,21.25599404
1681.118856,85.59455933,85.22354548,22.40293812
1682.017617,78.08732441,90.87500888,32.01759486
1682.916225,69.62952579,101.6303701,57.56646145
1683.81468,60.69624928,115.0874251,68.54554483
1684.712982,51.72942586,130.269289,67.80410974
1685.611132,43.13098804,145.7118784,86.77125677
1686.509128,35.26948238,157.7907049,111.5699128
1687.406972,28.49278222,162.446321,119.44695
1688.304664,23.13463179,159.0083968,108.427359
1689.202203,19.50311587,151.8804676,96.84
1690.099589,17.84622433,147.6715598,90.57718916
1690.996823,18.30256042,150.2756247,105.3344202
1691.893904,20.85742212,158.9188243,125.3073544
1692.790833,25.32548241,170.5220822,121.523654
1693.687609,31.36986121,182.6829772,128.449168
1694.584233,38.55338286,194.1066938,148.930175
1695.480704,46.40773816,203.4357892,158.7829641
1696.377023,54.5004874,208.85957,158.3797816
1697.27319,62.48090124,209.0172028,151.7862325
1698.169205,70.09458569,204.0954166,146.1750562
1699.065067,77.16798806,196.202981,144.4978807
1699.960777,83.57168058,188.8905657,132.8859168
1700.856335,89.17529736,185.7999111,116.0990838
1701.751741,93.8088378,188.7234312,137.8805359
1702.646994,97.2442836,196.526173,167.152018
1703.542096,99.20535114,206.3082658,174.112676
1704.437046,99.40375599,215.5749102,193.8546119
1705.331843,97.59418957,222.8541842,199.1674349
1706.226489,93.63744777,226.4892853,190.762358
1707.120982,87.55782312,223.6392785,191.30
1708.015324,79.57934268,211.2781616,193.5339443
1708.909514,70.1298548,188.9785969,179.1478126
1709.803551,59.81121463,160.7942425,157.0225502
1710.697438,49.34368052,133.4424436,155.3625427
1711.591172,39.49882619,111.8069938,145.430083
1712.484755,31.03403321,96.50781154,150.3091824
1713.378185,24.63371695,86.1122419,132.9762181
1714.271465,20.855198,80.34332133,77.76398819
1715.164592,20.07855726,79.55745835,73.92106081
1716.057568,22.4675592,82.04983937,79.8200571
1716.950392,27.95054001,84.16785794,65.37
1717.843065,36.22358178,83.48426923,52.38872765
1718.735586,46.77459467,80.86202491,48.74
1719.627956,58.92781395,79.20806062,52.49798249
1720.520175,71.90456634,80.55649165,49.9733463
1721.412242,84.88965404,84.24794567,54.15300089
1722.304157,97.09249389,87.61558857,62.57385937
1723.195921,107.7978581,88.47006987,77.62552626
1724.087534,116.4057118,87.36,74.40658801
1724.978996,122.4606977,87.45,50.25345362
1725.870306,125.672809,91.37,53.09582973
1726.761465,125.9333611,98.00441408,57.3235313
1727.652473,123.3288576,102.7950315,44.41215137
1728.54333,118.1481144,101.186178,46.41236137
1729.434036,110.8750781,91.75587229,64.14447605
1730.32459,102.1650323,77.08022165,65.86832039
1731.214994,92.80515457,62.33867522,51.2909193
1732.105247,83.65814995,52.33794044,53.31209345
1732.995348,75.58873104,49.14,47.99747836
1733.885299,69.37869415,52.39221852,36.93637639
1734.775098,65.64136542,60.99932026,22.06343305
1735.664747,64.74934502,73.54273056,9.371761388
1736.554245,66.79013601,87.60260492,28.39002016
1737.443592,71.55754588,100.6437492,27.94
1738.332789,78.57455443,112.4125823,14.55591663
1739.221834,87.13825427,125.4349421,11.06592762
1740.110729,96.38490399,141.8549362,27.91158506
1740.999473,105.3790857,159.7411186,57.35656747
1741.888067,113.2219819,173.3449039,66.68684711
1742.77651,119.1583499,177.6626505,68.44951072
1743.664802,122.6575806,172.8755316,49.46628486
1744.552944,123.4549721,164.1944005,48.22823124
1745.440935,121.5545748,157.4108308,54.40
1746.328776,117.2043575,154.3541179,35.41730554
1747.216466,110.8553168,151.8392643,49.37256294
1748.104006,103.1117603,144.7643391,65.44429292
1748.991395,94.67512462,131.1597171,71.09795062
1749.878634,86.2829898,114.8026342,92.44747399
1750.765723,78.64918348,102.3558711,102.2819164
1751.652661,72.413283,97.5424281,123.690288
1752.53945,68.1033463,98.52,158.9609069
1753.426088,66.1086126,101.0999062,178.5239375
1754.312575,66.65653043,103.6396911,181.9832752
1755.198913,69.79384408,107.7005365,202.0527192
1756.085101,75.37879754,114.8206791,236.1213288
1756.971138,83.09057186,124.2005513,243.6959832
1757.857025,92.45364247,133.590039,248.8542289
1758.742763,102.8699117,141.3017038,253.3331394
1759.62835,113.6544243,146.9463856,248.8931319
1760.513787,124.0763581,150.4041975,248.0092202
1761.399075,133.4101344,150.5156473,253.3360352
1762.284212,140.9968734,145.5688797,239.2977223
1763.1692,146.3056828,135.4647013,204.2033198
1764.054037,148.979466,122.8052218,170.4383744
1764.938725,148.8573369,110.9816036,139.4283749
1765.823264,145.9762558,101.1225714,135.5637798
1766.707652,140.5580629,91.5524894,107.6400151
1767.591891,132.9846347,80.10855952,67.01126982
1768.47598,123.7607775,66.2742925,62.92503193
1769.359919,113.4674394,51.70499214,50.52136223
1770.243709,102.713273,39.89688746,33.92215722
1771.12735,92.0934942,34.46747599,12.62925951
1772.01084,82.16068747,35.86757124,-3.05
1772.894182,73.40678073,40.12003804,11.12492896
1773.777373,66.25139252,42.59,15.14761385
1774.660416,61.02883986,42.90029211,-5.25
1775.543308,57.96798905,44.58214495,-8.69
1776.426052,57.16851875,50.36023824,8.197260463
1777.308646,58.58326304,59.57814357,8.65033582
1778.191091,62.0115068,70.04448647,-2.45
1779.073387,67.10276941,80.45433386,0.860957854
1779.955533,73.37155335,90.52153832,0.725880579
1780.83753,80.22472561,99.80173104,-8.71
1781.719378,87.0022468,107.1701777,7.436608628
1782.601077,93.03026384,111.7362203,12.10814308
1783.482626,97.68156354,114.0451406,-4.73
1784.364027,100.4351917,115.6064696,9.881971702
1785.245278,100.9291316,116.8694417,24.39771557
1786.126381,99.002151,115.9770672,31.20973756
1787.007334,94.71912716,110.0405767,32.95429577
1787.888139,88.37301025,97.99686756,24.04020562
1788.768794,80.45906463,82.04563985,30.99386531
1789.649301,71.62247857,66.30835366,40.05190058
1790.529659,62.58722807,54.66108752,36.75805021
1791.409868,54.07850767,49.37244384,27.52141013
1792.289928,46.75157741,50.01925907,34.40665305
1793.16984,41.13712315,53.21856713,46.87923441
1794.049602,37.60719901,55.05422961,55.18008016
1794.929216,36.35873789,54.96941439,60.0040444
1795.808682,37.40728787,56.59425753,47.03893657
1796.687999,40.58507163,63.91096775,40.15084457
1797.567167,45.54443756,77.01432194,48.26712265
1798.446186,51.77407309,92.06554819,49.93032742
1799.325057,58.63478673,104.7867283,49.26908956
1800.20378,65.41483341,113.4839689,49.08
1801.082354,71.39737457,119.2868056,39.68131517
1801.960779,75.93053187,124.4004746,47.55297992
1802.839057,78.49285663,130.2561648,56.31478594
1803.717185,78.74795632,136.5118381,47.78829113
1804.595166,76.58150172,140.9306057,56.3798765
1805.472998,72.11551789,140.4089668,59.82
1806.350682,65.69618128,133.0887861,45.31416614
1807.228218,57.8512312,120.0012419,27.22910229
1808.105605,49.21797233,104.7568406,7.642708346
1808.982844,40.45358259,91.68857885,9.231669416
1809.859935,32.14792041,83.89517981,18.14040484
1810.736878,24.75884043,82.26008526,22.17100705
1811.613673,18.58219331,85.52,29.43713631
1812.49032,13.7580139,90.85219285,37.7219858
1813.366819,10.30450681,94.77983041,55.95
1814.24317,8.164773527,94.72,53.02063356
1815.119372,7.250446875,90.29344105,46.26173446
1815.995427,7.471649803,82.94,57.22
1816.871334,8.74967674,74.22,38.91
1817.747094,11.01331652,65.04,33.49
1818.622705,14.18288373,56.56,51.66
1819.498169,18.14961652,51.18,37.92
1820.373484,22.75977117,51.66,42.30
1821.248652,27.81149998,58.95,69.22
1822.123673,33.06972492,71.01,83.02
1822.998545,38.29801869,83.88,99.29
1823.87327,43.29699078,93.66,104.02
1824.747848,47.93298003,98.13,117.97
1825.622278,52.14508199,97.35,117.52
1826.49656,55.92912217,93.21,101.37
1827.370695,59.30688612,88.22,123.91
1828.244682,62.29440873,84.26,132.57
1829.118522,64.88267751,81.95,117.14
1829.992215,67.03765766,80.82,132.49
1830.86576,68.71795904,80.17,152.89
1831.739157,69.90053375,80.12,145.59
1832.612408,70.60111416,81.02,153.97
1833.485511,70.88091207,81.94,175.92
1834.358467,70.83962354,80.76,178.26
1835.231275,70.59844478,76.34,172.05
1836.103937,70.27628224,70.02,169.47
1836.976451,69.96310443,65.21,165.59
1837.848818,69.6971645,65.40,152.46
1838.721038,69.45426288,72.35,160.41
1839.593111,69.15448021,84.99,169.67
1840.465037,68.68521226,99.69,154.22
1841.336816,67.93274605,111.93,154.26
1842.208448,66.8121861,118.59,151.17
1843.079934,65.28697774,119.04,129.61
1843.951272,63.37198566,114.66,111.64
1844.822463,61.11840758,107.76,100.29
1845.693508,58.58590844,100.89,95.53
1846.564405,55.81423591,96.26,77.46
1847.435156,52.80745472,95.12,60.07
1848.30576,49.5375804,97.15,63.47
1849.176218,45.96549977,100.37,57.32
1850.046528,42.0700944,102.26,37.38
1850.916692,37.87398824,101.46,41.91
1851.78671,33.45676995,98.85,35.48
1852.656581,28.95127871,96.60,6.29
1853.526305,24.52482325,95.49,30.66
1854.395883,20.35459916,93.82,49.85
1855.265314,16.60744131,89.67,30.85
1856.134599,13.42643798,83.62,31.36
1857.003738,10.92114563,78.06,34.48
1857.87273,9.159934808,74.40,49.04
1858.741575,8.166225764,71.66,70.43
1859.610275,7.918982212,67.78,75.08
1860.478828,8.354164284,61.82,74.85
1861.347234,9.364951635,54.50,65.91
1862.215495,10.80439835,47.22,62.55
1863.083609,12.49636494,41.00,74.17
1863.951577,14.25611068,36.11,85.68
1864.819399,15.91616752,32.73,86.50
1865.687075,17.35037245,31.64,79.03
1866.554605,18.49038199,33.74,82.44
1867.421989,19.3331947,38.84,74.70
1868.289226,19.94104831,45.11,59.53
1869.156318,20.43522074,49.56,61.67
1870.023264,20.98490289,49.65,63.82
1870.890064,21.79161551,45.31,49.81
1871.756718,23.06837169,39.70,25.79
1872.623226,25.01332387,37.31,17.92
1873.489588,27.78120238,40.56,17.99
1874.355805,31.45973072,47.73,34.18
1875.221875,36.05847432,54.47,44.84
1876.0878,41.51198159,57.35,35.28
1876.95358,47.69106741,56.05,37.83
1877.819213,54.41267782,52.92,36.19
1878.684701,61.44347255,51.42,40.27
1879.550043,68.50091366,54.22,40.12
1880.41524,75.26097948,61.67,40.67
1881.280291,81.37972058,71.71,54.10
1882.145197,86.52882223,81.60,53.15
1883.009957,90.43798381,89.31,58.09
1883.874572,92.93321378,93.45,69.01
1884.739041,93.961475,92.76,73.80
1885.603365,93.59585629,86.94,59.14
1886.467544,92.01857432,77.93,34.45
1887.331577,89.48318481,69.38,33.35
1888.195465,86.26446448,64.25,33.21
1889.059208,82.6107396,62.92,29.57
1889.922805,78.71262312,63.74,40.78
1890.786258,74.6937192,64.98,48.69
1891.649565,70.61932532,66.14,35.55
1892.512727,66.51485204,67.82,30.33
1893.375744,62.38720448,70.37,38.75
1894.238615,58.2454037,72.97,36.10
1895.101342,54.11772191,74.12,34.69
1895.963924,50.06243809,73.27,23.04
1896.826361,46.1705761,71.94,12.43
1897.688652,42.56216984,72.64,14.66
1898.550799,39.38020368,76.36,18.01
1899.412801,36.78559768,81.31,38.26
1900.274658,34.95271143,84.23,46.09
1901.136371,34.06035907,83.53,51.38
1901.997938,34.27233776,80.79,51.68
1902.859361,35.70735243,78.65,31.64
1903.720639,38.40718167,77.07,47.63
1904.581772,42.31519408,72.81,59.40
1905.442761,47.27087212,63.59,46.09
1906.303605,53.01556343,52.15,31.88
1907.164304,59.20210431,45.13,24.85
1908.024859,65.40981192,47.46,40.21
1908.885269,71.17494865,57.97,44.81
1909.745535,76.04326691,70.01,56.66
1910.605656,79.63729952,76.09,55.94
1911.465633,81.71858297,72.86,25.92
1912.325465,82.2247845,62.96,18.08
1913.185153,81.27318954,52.98,19.89
1914.044696,79.13502147,49.07,17.77
1914.904096,76.19225588,53.11,25.22
1915.763351,72.8897349,62.08,42.20
1916.622461,69.69189541,71.04,49.19
1917.481428,67.04720718,77.03,57.74
1918.34025,65.35824868,80.15,69.48
1919.198928,64.9547602,81.64,75.14
1920.057462,66.07122783,81.90,98.10
1920.915852,68.8335647,81.07,98.58
1921.774098,73.25538923,80.15,92.09
1922.632199,79.23933716,80.06,105.46
1923.490157,86.5808469,80.11,104.76
1924.347971,94.97548484,78.73,113.56
1925.20564,104.0299526,75.86,105.29
1926.063166,113.276385,73.83,101.68
1926.920548,122.1937439,75.34,120.53
1927.777786,130.2442526,80.43,124.98
1928.63488,136.9289642,85.18,148.65
1929.49183,141.8546124,84.15,163.36
1930.348637,144.793131,75.24,149.42
1931.2053,145.7141593,62.68,133.83
1932.061819,144.7815203,54.69,131.28
1932.918195,142.3208002,57.66,147.46
1933.774426,138.7745665,71.53,182.16
1934.630514,134.6586743,89.67,212.04
1935.486459,130.5227477,103.14,221.33
1936.34226,126.9086339,106.74,223.29
1937.197918,124.2988509,102.54,203.77
1938.053432,123.0545928,97.67,201.03
1938.908802,123.3554563,97.76,217.16
1939.764029,125.1620759,102.21,222.88
1940.619113,128.2185339,106.41,231.00
1941.474053,132.0925153,107.65,205.48
1942.32885,136.2335261,107.63,184.43
1943.183504,140.0306918,109.75,189.86
1944.038014,142.8660868,115.31,166.64
1944.892381,144.1673716,122.52,157.91
1945.746605,143.4604424,127.78,160.28
1946.600686,140.418261,127.80,150.66
1947.454624,134.8989635,121.43,149.52
1948.308418,126.9641059,109.79,131.19
1949.162069,116.8698726,95.28,121.46
1950.015578,105.0320021,81.15,103.05
1950.868943,91.97343415,71.15,57.61
1951.722165,78.26774937,67.85,59.21
1952.575244,64.49149605,70.54,62.38
1953.428181,51.19343497,75.78,41.93
1954.280974,38.87902359,79.98,55.46
1955.133625,28.00167783,81.22,49.93
1955.986132,18.95343159,79.21,31.94
1956.838497,12.05235714,74.84,34.35
1957.690719,7.527740028,69.82,38.71
1958.542798,5.505849015,65.68,53.13
1959.394735,5.999923322,63.21,50.32
1960.246529,8.907726514,62.90,36.99
1961.09818,14.01861731,65.75,34.70
1961.949688,21.031262,72.41,42.84
1962.801054,29.58331539,81.56,47.28
1963.652278,39.29189624,89.56,53.46
1964.503359,49.79744865,92.26,68.96
1965.354297,60.79850651,87.84,68.43
1966.205093,72.06477558,78.73,68.38
1967.055746,83.42195845,70.69,67.80
1967.906257,94.71287576,69.51,79.88
1968.756625,105.7506095,77.44,105.92
1969.606851,116.2845701,91.84,134.15
1970.456935,125.9960534,107.29,172.27
1971.306877,134.5258348,119.54,180.29
1972.156676,141.5213264,127.87,187.24
1973.006333,146.6855041,134.01,199.95
1973.855848,149.8151834,139.57,198.68
1974.70522,150.8243704,144.38,218.83
1975.554451,149.7529888,146.55,215.94
1976.403539,146.7614488,143.92,197.56
1977.252485,142.1098117,135.80,196.22
1978.101289,136.1211297,124.38,182.72
1978.949951,129.1337564,114.36,165.70
1979.798472,121.4538937,110.30,134.19
1980.64685,113.3235955,112.76,123.40
1981.495086,104.9170892,117.42,142.19
1982.34318,96.36562846,118.48,114.75
1983.191133,87.79394343,113.05,66.90
1984.038943,79.34590672,102.39,58.25
1984.886612,71.18844204,90.65,54.11
1985.734139,63.49748762,83.17,34.97
1986.581524,56.43716403,84.26,45.37
1987.428768,50.14403525,94.69,58.80
1988.275869,44.72397681,110.73,71.06
1989.122829,40.2618783,125.85,101.26
1989.969648,36.83887168,133.89,112.00
1990.816325,34.54786479,132.37,116.72
1991.66286,33.4957071,123.63,101.53
1992.509254,33.78465568,112.60,86.52
1993.355506,35.47704575,103.13,97.72
1994.201617,38.55597884,96.70,81.21
1995.047586,42.8945614,93.62,59.26
1995.893414,48.24072088,94.16,48.96
1996.7391,54.22196978,98.11,50.22
1997.584645,60.37402222,104.38,65.94
1998.430049,66.19192808,111.72,60.03
1999.275311,71.19339088,119.06,47.69
2000.120432,74.97996739,124.88,43.94
2000.965412,77.28454408,127.26,54.26
2001.810251,77.99551564,126.01,43.15
2002.654948,77.14991224,123.83,11.05
2003.499505,74.89876104,124.09,30.02
2004.34392,71.46297655,127.52,47.43
2005.188194,67.0987796,131.90,50.05
2006.032327,62.07902171,134.30,60.52
2006.876319,56.68757564,132.69,62.84
2007.72017,51.22116096,126.20,76.56
2008.56388,45.99186006,115.15,81.40
2009.407449,41.3253422,101.21,75.84
2010.250877,37.55346256,87.15,68.32
2011.094165,35.00165286,75.68,62.91
2011.937311,33.97058418,67.89,52.76
2012.780317,34.71022639,62.93,47.57
2013.623181,37.38642351,59.74,50.63
2014.465905,42.04468203,59.03,32.27
2015.308489,48.5787305,62.73,23.00
2016.150931,56.71380041,71.02,36.81
2016.993233,66.01661124,81.07,50.33
2017.835394,75.93672167,89.41,45.00
2018.677415,85.86758296,94.88,24.70
2019.519295,95.20842149,98.69,13.67
2020.361035,103.416834,102.15,25.88
2021.202634,110.0503639,105.46,26.68
2022.044092,114.7937859,108.04,5.02
2022.88541,117.4685096,108.84,12.45
2023.726588,118.0280114,106.31,21.92
2024.567625,116.5473209,99.35,17.50
2025.408521,113.2094116,89.32,21.91
2026.249278,108.2876374,80.41,22.19
2027.089894,102.1267484,76.96,26.43
2027.93037,95.12771756,79.72,37.19
2028.770705,87.73868025,85.12,43.83
2029.610901,80.44847416,88.45,41.39
2030.450956,73.77380844,88.15,38.84
2031.290871,68.22909916,86.94,36.98
2032.130646,64.27274934,88.87,28.46
2032.97028,62.23563699,95.80,32.38
2033.809775,62.25068342,106.85,36.52
2034.649129,64.20560213,120.24,21.74
2035.488344,67.7325981,134.69,12.78
2036.327418,72.24006488,149.94,19.98
2037.166353,76.98548628,167.07,23.22
2038.005148,81.17866617,187.68,12.88
2038.843802,84.09494998,210.90,13.46
2039.682317,85.17926125,231.26,30.35
2040.520692,84.12584392,241.36,46.19
2041.358928,80.91589131,237.96,27.98
2042.197023,75.79684595,224.90,-5.43
2043.034979,69.20705965,209.71,0.97
2043.872795,61.67472832,198.04,8.50
2044.710471,53.72570027,191.67,7.95
2045.548008,45.81945796,189.97,16.37
2046.385405,38.31658207,191.01,29.50
2047.222662,31.47332644,191.41,39.67
2048.05978,25.45403711,187.10,51.05
2048.896758,20.34981079,175.79,69.38
2049.733597,16.19529413,159.17,66.97
2050.570296,12.98108626,142.05,71.66
2051.406856,10.66254563,128.55,77.31
2052.243276,9.167203432,118.74,71.76
2053.079557,8.40215697,109.28,72.47
2053.915698,8.260529484,97.15,60.94
2054.751701,8.625670469,82.84,48.38
2055.587564,9.374161071,70.38,43.54
2056.423287,10.38238871,64.38,37.73
2057.258872,11.54353355,66.17,42.82
2058.094317,12.79794353,71.58,49.67
2058.929623,14.17007791,73.10,47.38
2059.764789,15.7963678,65.44,48.45
2060.599817,17.92740887,49.75,32.49
2061.434706,20.89646879,33.12,4.97
2062.269455,25.06105744,23.66,-12.14
2063.104066,30.73700556,25.41,-18.77
2063.938537,38.14514246,37.21,-20.32
2064.772869,47.38071643,55.54,-12.62
2065.607063,58.40500597,77.63,8.41
2066.441117,71.05254858,102.37,13.77
2067.275033,85.04584556,128.97,15.05
2068.10881,100.0128901,155.33,32.01
2068.942448,115.5092006,177.54,51.73
2069.775947,131.0475122,191.53,66.96
2070.609307,146.1312154,196.10,72.58
2071.442529,160.2792981,194.80,63.60
2072.275612,173.0314835,194.58,54.69
2073.108556,183.9351028,201.53,63.07
2073.941361,192.5313058,216.66,72.68
2074.774028,198.3633455,235.28,84.33
2075.606556,201.0180107,250.12,97.53
2076.438946,200.19227,255.67,96.41
2077.271197,195.763906,250.67,96.11
2078.10331,187.8424199,237.97,88.61
2078.935284,176.7848793,222.22,81.44
2079.76712,163.1769969,207.09,89.49
2080.598817,147.7914706,193.99,82.97
2081.430376,131.5350437,183.04,75.48
2082.261796,115.3884893,174.42,63.23
2083.093078,100.3398495,168.10,40.79
2083.924222,87.31327694,162.90,42.84
2084.755228,77.10011362,156.79,45.29
2085.586095,70.29957458,148.22,31.98
2086.416824,67.27257014,136.81,24.21
2087.247415,68.11007958,122.52,25.48
2088.077868,72.61974653,105.08,38.87
2088.908182,80.33528838,85.27,49.61
2089.738359,90.54935745,66.70,37.65
2090.568397,102.3669586,55.28,33.40
2091.398297,114.7777177,55.56,39.93
2092.22806,126.7466412,67.14,50.71
2093.057684,137.3200585,83.83,75.20
2093.88717,145.7366726,96.51,78.02
2094.716519,151.5239667,98.61,75.18
2095.545729,154.5526405,90.74,59.31
2096.374802,155.0269248,80.39,37.09
2097.203736,153.4111212,75.98,48.56
2098.032533,150.320266,80.04,54.19
2098.861193,146.4131262,88.35,72.96
2099.689714,142.3110126,95.27,77.88
2100.518098,138.5436071,99.29,54.97
2101.346344,135.5137414,102.87,56.92
2102.174452,133.4774438,108.16,60.68
2103.002422,132.5397978,114.05,69.13
2103.830255,132.6646749,117.31,76.19
2104.657951,133.6933657,115.61,82.90
2105.485509,135.3673085,108.93,87.78
2106.312929,137.350189,98.99,84.78
2107.140212,139.2453872,88.60,93.07
2107.967357,140.610462,81.64,92.13
2108.794365,140.9785127,82.31,91.67
2109.621236,139.8992238,92.24,104.94
2110.447969,137.0063877,107.65,125.87
2111.274565,132.1041516,120.17,140.37
2112.101023,125.2474465,122.07,146.44
2112.927344,116.7857274,111.66,139.96
2113.753528,107.349534,94.75,104.54
2114.579575,97.77952642,80.69,89.10
2115.405484,89.01712263,76.25,83.36
2116.231257,81.98631264,81.92,85.18
2117.056892,77.49242406,92.80,107.81
2117.88239,76.14819229,103.11,102.21
2118.707751,78.32151164,111.10,97.75
2119.532975,84.0956384,119.95,86.35
2120.358061,93.24379097,133.83,85.78
2121.183011,105.2320595,153.03,115.56
2122.007824,119.2621243,173.33,121.39
2122.8325,134.3493111,189.69,118.62
2123.657039,149.4165202,200.06,110.56
2124.481441,163.3828216,205.68,116.06
2125.305706,175.2347688,208.87,115.99
2126.129834,184.0788278,211.64,96.81
2126.953826,189.1809756,215.48,109.23
2127.777681,190.0045849,220.94,119.83
2128.601399,186.2562559,226.43,128.02
2129.42498,177.9386538,227.68,144.14
2130.248425,165.3956802,219.41,133.53
2131.071732,149.3276334,198.82,118.50
2131.894904,130.7578648,168.48,98.76
2132.717938,110.9470184,135.94,64.97
2133.540837,91.27082106,109.25,60.25
2134.363598,73.09185889,91.97,73.35
2135.186223,57.65258845,82.38,70.03
2136.008712,45.99608466,77.14,65.01
2136.831064,38.90238338,74.68,71.95
2137.653279,36.82959596,75.62,73.46
2138.475359,39.86389675,81.30,68.29
2139.297302,47.69318858,91.98,79.94
2140.119108,59.61860625,105.79,99.81
2140.940778,74.60896202,119.96,110.35
2141.762312,91.39104171,133.61,101.19
2142.58371,108.5601628,148.61,94.73
2143.404971,124.6961768,167.31,106.76
2144.226097,138.4771967,189.60,121.99
2145.047086,148.7871792,212.14,128.62
2145.867938,154.8110109,229.66,118.92
2146.688655,156.1073944,237.32,126.93
2147.509236,152.6486828,233.32,128.61
2148.329681,144.817299,220.22,96.24
2149.149989,133.353557,203.30,87.48
2149.970162,119.262143,186.93,76.65
2150.790198,103.6960083,172.39,51.53
2151.610099,87.83796943,158.76,50.12
2152.429864,72.79569038,145.36,44.52
2153.249493,59.52197681,133.51,41.28
2154.068986,48.7667168,126.66,21.45
2154.888343,41.05735721,128.52,3.03
2155.707564,36.69875633,139.94,20.07
2156.52665,35.78597906,157.20,28.34
2157.345599,38.22812466,174.16,45.29
2158.164414,43.77909937,186.41,55.65
2158.983092,52.06683702,193.47,65.15
2159.801635,62.61482305,198.13,77.03
2160.620042,74.85763649,204.51,73.78
2161.438313,88.15829722,215.89,85.39
2162.256449,101.8361109,232.66,93.19
2163.07445,115.2089832,251.82,104.27
2163.892314,127.6453719,268.61,113.29
2164.710044,138.6146828,278.46,116.84
2165.527638,147.7256824,278.62,116.52
2166.345096,154.7467456,269.47,114.54
2167.162419,159.6055823,254.21,115.02
2167.979607,162.3700415,236.35,102.48
2168.796659,163.2152742,217.35,103.36
2169.613576,162.3837276,196.75,89.04
2170.430358,160.1426707,174.34,65.85
2171.247004,156.7424604,151.75,62.73
2172.063516,152.3810671,132.18,43.74
2172.879892,147.184152,118.70,29.11
2173.696132,141.209629,112.14,24.18
2174.512238,134.4791981,109.90,23.08
2175.328208,127.029637,106.89,27.96
2176.144044,118.9685597,98.52,17.97
2176.959744,110.5158621,83.79,7.68
2177.77531,102.0146491,65.73,-4.41
2178.59074,93.90599986,48.78,-6.32
2179.406035,86.67621302,36.13,-1.11
2180.221196,80.7926188,29.12,-10.28
2181.036221,76.64267314,27.96,-6.82
2181.851112,74.48797667,32.16,-3.82
2182.665867,74.4409155,40.12,-5.56
2183.480488,76.46475566,48.76,7.79
2184.294974,80.39284694,54.25,25.36
2185.109325,85.96091459,54.42,25.23
2185.923542,92.84444237,50.45,15.21
2186.737623,100.6923154,45.40,15.73
2187.55157,109.150953,41.30,26.59
2188.365383,117.8771023,38.22,35.96
2189.179061,126.5406061,35.58,33.63
2189.992604,134.8215407,33.57,38.66
2190.806012,142.4071895,33.26,47.35
2191.619286,148.9930976,35.93,48.95
2192.432425,154.2917516,42.24,47.78
2193.24543,158.0513288,51.26,54.82
2194.058301,160.0825612,59.88,72.07
2194.871037,160.2858459,63.98,82.72
2195.683638,158.6678583,61.78,72.59
2196.496105,155.3398279,55.81,58.87
2197.308438,150.4975583,50.90,66.09
2198.120637,144.3912767,50.21,77.08
2198.932701,137.295423,53.66,77.59
2199.744631,129.4845723,59.41,64.97
2200.556426,121.2185895,65.47,78.77
2201.368088,112.7397809,69.83,93.57
2202.179615,104.2808648,70.77,82.23
2202.991008,96.0752316,67.89,92.50
2203.802267,88.36017041,63.18,87.00
2204.613392,81.3714068,60.38,69.06
2205.424382,75.33418278,62.24,61.56
2206.235239,70.45666073,67.73,64.37
2207.045961,66.92716064,72.50,71.55
2207.85655,64.91102065,72.61,43.17
2208.667005,64.54026162,67.49,30.19
2209.477325,65.89279429,59.76,42.16
2210.287512,68.96467503,52.94,38.69
2211.097565,73.64343511,49.77,34.36
2211.907484,79.69084897,51.16,35.46
2212.717269,86.74073032,55.52,57.47
2213.52692,94.3136704,59.58,80.40
2214.336438,101.8479147,60.98,83.73
2215.145822,108.7438305,60.29,97.56
2215.955072,114.4178892,59.88,119.11
2216.764188,118.3597819,61.17,130.09
2217.573171,120.1837928,63.79,138.62
2218.38202,119.6659107,67.04,136.92
2219.190736,116.7627905,70.84,148.69
2219.999318,111.6151028,75.06,174.15
2220.807766,104.5408324,79.02,172.33
2221.616081,96.02089169,82.15,174.63
2222.424262,86.67500279,84.41,179.30
2223.23231,77.22605438,85.69,174.54
2224.040224,68.45409938,85.05,172.73
2224.848005,61.14240633,81.24,164.22
2225.655653,56.01752957,74.23,156.53
2226.463167,53.68581872,66.26,129.61
2227.270548,54.57168882,60.88,97.36
2228.077796,58.86771668,60.56,105.70
2228.88491,66.50940051,65.65,107.44
2229.691891,77.1825391,75.84,91.80
2230.498739,90.36003435,91.26,92.83
2231.305454,105.3574691,111.26,86.12
2232.112035,121.3973823,132.64,87.79
2232.918484,137.6748937,150.36,88.67
2233.724799,153.4174669,160.47,86.90
2234.530981,167.9303458,162.63,89.26
2235.33703,180.6199622,160.72,62.88
2236.142946,190.9934491,160.83,53.40
2236.948729,198.6428214,167.73,47.72
2237.754379,203.2305298,181.65,44.08
2238.559896,204.4926602,197.74,70.24
2239.365281,202.2672353,209.24,74.81
2240.170532,196.5407678,211.83,72.85
2240.97565,187.4936152,205.35,69.50
2241.780636,175.5243092,191.57,77.09
2242.585489,161.2448245,171.99,89.07
2243.390209,145.4507454,148.34,76.70
2244.194796,129.0743394,124.05,82.84
2244.999251,113.1267652,103.49,84.11
2245.803573,98.63263049,89.30,73.05
2246.607762,86.55852773,80.50,73.86
2247.411818,77.73794123,73.43,81.08
2248.215742,72.79585264,65.16,82.63
2249.019534,72.07648536,56.37,68.47
2249.823192,75.58142783,51.20,59.45
2250.626719,82.93293655,54.35,57.28
2251.430112,93.37714265,68.41,62.23
2252.233374,105.8286796,92.64,76.14
2253.036502,106.3822838,100.04,75.21
2253.839499,107.0835319,109.35,74.31
2254.642363,107.932424,120.56,73.45
2255.445094,108.92896,133.68,72.62
2256.247694,110.07314,148.70,71.83
2257.050161,111.364964,165.62,71.07
2257.852495,112.8044319,184.45,70.35
2258.654698,114.3915438,205.18,69.66
2259.456768,116.1262996,227.82,69.01
2260.258706,118.0086993,252.36,68.39
2261.060512,120.0387431,278.80,67.80
2261.862186,122.2164307,307.15,67.26
