Wavelength,AAB_AS_S1_I17
2261.862186,35.9603459
2261.060512,40.88023422
2260.258706,45.29430081
2259.456768,49.20254568
2258.654698,52.60496883
2257.852495,55.50157026
2257.050161,57.89234997
2256.247694,59.77730795
2255.445094,61.15644421
2254.642363,62.02975875
2253.839499,62.39725157
2253.036502,62.25892266
2252.233374,61.61477204
2251.430112,59.35586593
2250.626719,50.87802915
2249.823192,43.91743644
2249.019534,37.65986391
2248.215742,34.18732724
2247.411818,42.63196459
2246.607762,53.01001802
2245.803573,54.28334506
2244.999251,52.45798667
2244.194796,53.51190479
2243.390209,53.05129589
2242.585489,51.32631816
2241.780636,58.58105674
2240.97565,62.6586161
2240.170532,48.2995684
2239.365281,37.98583361
2238.559896,44.45977518
2237.754379,47.99492662
2236.948729,44.57603752
2236.142946,47.07517832
2235.33703,53.20454031
2234.530981,55.67456916
2233.724799,59.14056974
2232.918484,61.39848301
2232.112035,56.53565163
2231.305454,54.7503666
2230.498739,58.93168192
2229.691891,58.38833938
2228.88491,54.0024641
2228.077796,51.14401997
2227.270548,47.35804232
2226.463167,42.79673319
2225.655653,42.24961453
2224.848005,39.55494185
2224.040224,29.52492869
2223.23231,25.81808046
2222.424262,27.78143547
2221.616081,21.26872032
2220.807766,14.2468553
2219.999318,19.97548111
2219.190736,39.77784083
2218.38202,59.42072191
2217.573171,63.44306176
2216.764188,64.0170239
2215.955072,73.5645442
2215.145822,87.2422268
2214.336438,103.0860426
2213.52692,116.4109787
2212.717269,123.6295705
2211.907484,130.6046976
2211.097565,140.3845363
2210.287512,145.4032432
2209.477325,137.5978048
2208.667005,129.3496609
2207.85655,132.1773068
2207.045961,131.4579412
2206.235239,122.9225304
2205.424382,115.8180482
2204.613392,108.0785939
2203.802267,103.2956109
2202.991008,100.7172957
2202.179615,89.34863972
2201.368088,75.21648212
2200.556426,70.74311984
2199.744631,74.28460688
2198.932701,71.22005347
2198.120637,56.50401722
2197.308438,45.34465741
2196.496105,41.66273945
2195.683638,37.42098764
2194.871037,33.7288273
2194.058301,30.06778849
2193.24543,26.1059594
2192.432425,24.33089023
2191.619286,17.08437676
2190.806012,4.976810797
2189.992604,1.202843829
2189.179061,7.139599598
2188.365383,15.72082688
2187.55157,17.24930759
2186.737623,9.872014597
2185.923542,5.322684297
2185.109325,9.861657429
2184.294974,22.36065189
2183.480488,31.55712053
2182.665867,29.10127891
2181.851112,30.23002647
2181.036221,40.49552725
2180.221196,46.14892509
2179.406035,49.1747493
2178.59074,61.44998953
2177.77531,78.88997797
2176.959744,89.87255269
2176.144044,94.02955695
2175.328208,98.05990022
2174.512238,104.471328
2173.696132,111.3633985
2172.879892,115.6128226
2172.063516,120.9944333
2171.247004,135.6026545
2170.430358,148.086531
2169.613576,146.2903214
2168.796659,141.2890462
2167.979607,136.0963752
2167.162419,130.0177364
2166.345096,131.1681162
2165.527638,132.0840932
2164.710044,124.3545439
2163.892314,112.3683992
2163.07445,96.16869949
2162.256449,80.82285511
2161.438313,75.7606373
2160.620042,69.99643935
2159.801635,61.62552028
2158.983092,65.53246075
2158.164414,66.12739833
2157.345599,52.61963373
2156.52665,43.95380995
2155.707564,41.88894729
2154.888343,41.85638898
2154.068986,46.53140633
2153.249493,49.08365171
2152.429864,47.67638444
2151.610099,46.35110104
2150.790198,43.23939475
2149.970162,39.89243463
2149.149989,38.98163177
2148.329681,41.17033159
2147.509236,46.02180787
2146.688655,46.94228079
2145.867938,45.3716211
2145.047086,45.37025747
2144.226097,40.51954252
2143.404971,34.4627389
2142.58371,42.22896585
2141.762312,62.18169791
2140.940778,69.82947388
2140.119108,63.28537416
2139.297302,66.16280085
2138.475359,74.01422665
2137.653279,79.9680314
2136.831064,92.05073972
2136.008712,100.9602899
2135.186223,103.1472199
2134.363598,102.5235509
2133.540837,99.71637031
2132.717938,104.0665058
2131.894904,108.6227362
2131.071732,103.9489145
2130.248425,102.8349648
2129.42498,105.8541239
2128.601399,105.3077856
2127.777681,103.5057247
2126.953826,98.26969179
2126.129834,91.24380858
2125.305706,87.33908335
2124.481441,84.07679106
2123.657039,86.25306974
2122.8325,94.64691883
2122.007824,90.36953268
2121.183011,70.6359401
2120.358061,57.80887294
2119.532975,56.71804192
2118.707751,56.60303563
2117.88239,58.28351389
2117.056892,58.68668134
2116.231257,49.68249214
2115.405484,41.1630814
2114.579575,42.98607621
2113.753528,47.59498838
2112.927344,46.88359437
2112.101023,40.19279385
2111.274565,33.38388864
2110.447969,30.7253439
2109.621236,27.00668391
2108.794365,19.29797548
2107.967357,13.48582304
2107.140212,16.35759266
2106.312929,27.59636098
2105.485509,35.11426049
2104.657951,32.28225314
2103.830255,31.86074475
2103.002422,34.52522706
2102.174452,31.96768093
2101.346344,37.20505141
2100.518098,49.68095824
2099.689714,53.74881155
2098.861193,55.20362576
2098.032533,59.88981543
2097.203736,62.55958166
2096.374802,64.03055909
2095.545729,68.27589213
2094.716519,70.36700016
2093.88717,64.11588659
2093.057684,56.52549589
2092.22806,50.27685611
2091.398297,40.23851333
2090.568397,36.3654714
2089.738359,40.96224214
2088.908182,38.02660781
2088.077868,33.78609185
2087.247415,39.47481611
2086.416824,41.99257257
2085.586095,38.60506386
2084.755228,39.77883367
2083.924222,41.71171155
2083.093078,38.50344658
2082.261796,39.84206251
2081.430376,48.76808231
2080.598817,49.52444511
2079.76712,40.76144724
2078.935284,37.84419752
2078.10331,43.17555843
2077.271197,45.78943464
2076.438946,42.91361192
2075.606556,42.26050058
2074.774028,40.83998705
2073.941361,36.25390416
2073.108556,37.0609029
2072.275612,41.32707194
2071.442529,45.08914925
2070.609307,49.6354816
2069.775947,48.10140743
2068.942448,39.60132339
2068.10881,34.40524478
2067.275033,32.74144459
2066.441117,32.99486077
2065.607063,35.10735322
2064.772869,29.14123622
2063.938537,21.84103197
2063.104066,24.02677153
2062.269455,25.48295444
2061.434706,25.86700942
2060.599817,26.35887081
2059.764789,25.81374332
2058.929623,34.38032084
2058.094317,41.01935479
2057.258872,33.6592995
2056.423287,26.64361549
2055.587564,26.64756741
2054.751701,30.96627718
2053.915698,36.95037448
2053.079557,41.71466807
2052.243276,49.50233173
2051.406856,55.78103874
2050.570296,55.67396476
2049.733597,58.45392368
2048.896758,63.44489607
2048.05978,67.13312437
2047.222662,73.41646973
2046.385405,76.83093699
2045.548008,74.36073729
2044.710471,72.28945052
2043.872795,74.14276701
2043.034979,75.58251467
2042.197023,71.77271077
2041.358928,69.43802079
2040.520692,68.73222905
2039.682317,61.72675483
2038.843802,52.82049788
2038.005148,44.04119971
2037.166353,32.03769696
2036.327418,22.17174947
2035.488344,21.20102692
2034.649129,21.8054235
2033.809775,13.56557315
2032.97028,9.310614966
2032.130646,13.91203033
2031.290871,11.4753629
2030.450956,7.817693579
2029.610901,9.78594415
2028.770705,10.2706154
2027.93037,8.236752057
2027.089894,2.302429151
2026.249278,0.510654806
2025.408521,4.375381537
2024.567625,2.382604681
2023.726588,4.457618839
2022.88541,10.54802905
2022.044092,5.102956506
2021.202634,1.73059433
2020.361035,8.288808337
2019.519295,13.37425505
2018.677415,18.81130378
2017.835394,25.93359503
2016.993233,36.01588222
2016.150931,50.04974939
2015.308489,62.60055872
2014.465905,77.10689141
2013.623181,89.80785596
2012.780317,97.21215647
2011.937311,105.1072961
2011.094165,107.5599521
2010.250877,107.2669127
2009.407449,112.7656595
2008.56388,119.8230874
2007.72017,121.4098813
2006.876319,119.2650567
2006.032327,122.9922738
2005.188194,120.8331617
2004.34392,108.2869811
2003.499505,100.4851689
2002.654948,84.19176371
2001.810251,66.18826929
2000.965412,69.11580533
2000.120432,69.69349734
1999.275311,59.55905893
1998.430049,54.29261231
1997.584645,54.34291209
1996.7391,62.53311362
1995.893414,69.90833503
1995.047586,69.61291406
1994.201617,68.14258234
1993.355506,59.19339476
1992.509254,50.88851275
1991.66286,51.38497168
1990.816325,49.15609242
1989.969648,53.39064489
1989.122829,68.7144589
1988.275869,77.18824669
1987.428768,70.83972692
1986.581524,60.19266622
1985.734139,62.2734666
1984.886612,67.2586766
1984.038943,64.17515072
1983.191133,67.13016716
1982.34318,73.6384323
1981.495086,80.28524431
1980.64685,90.24070012
1979.798472,94.63516046
1978.949951,98.63508283
1978.101289,110.7123925
1977.252485,128.7179375
1976.403539,146.0856282
1975.554451,154.4007456
1974.70522,160.421506
1973.855848,169.560805
1973.006333,180.3565276
1972.156676,197.8002916
1971.306877,216.480437
1970.456935,227.8699689
1969.606851,227.6986975
1968.756625,216.7358645
1967.906257,206.235619
1967.055746,196.6758691
1966.205093,190.1931941
1965.354297,195.2940956
1964.503359,196.8921327
1963.652278,188.7465279
1962.801054,186.3250536
1961.949688,186.4930078
1961.09818,183.1842924
1960.246529,178.1407748
1959.394735,166.505972
1958.542798,155.1243885
1957.690719,149.8203707
1956.838497,143.3059063
1955.986132,136.2905868
1955.133625,131.5858598
1954.280974,129.7890536
1953.428181,127.3365311
1952.575244,120.3600866
1951.722165,113.3304516
1950.868943,101.7458576
1950.015578,79.96881558
1949.162069,55.57118663
1948.308418,40.86043966
1947.454624,38.19429909
1946.600686,32.86957312
1945.746605,23.5203122
1944.892381,19.86958397
1944.038014,16.54081836
1943.183504,16.89427859
1942.32885,26.57691223
1941.474053,30.41264145
1940.619113,24.18789891
1939.764029,20.91467015
1938.908802,25.68202474
1938.053432,33.9787085
1937.197918,37.72771386
1936.34226,41.01959255
1935.486459,49.77663408
1934.630514,53.9969525
1933.774426,52.66878014
1932.918195,52.88660375
1932.061819,52.4054106
1931.2053,48.92081637
1930.348637,44.78857736
1929.49183,39.96451816
1928.63488,32.92910921
1927.777786,27.64164528
1926.920548,21.36167207
1926.063166,11.84852244
1925.20564,8.803710545
1924.347971,10.91588058
1923.490157,12.40685652
1922.632199,14.69057959
1921.774098,13.00065106
1920.915852,6.143843497
1920.057462,4.842526711
1919.198928,10.85408641
1918.34025,11.6152015
1917.481428,4.904282085
1916.622461,1.59928902
1915.763351,3.689621063
1914.904096,4.273754979
1914.044696,5.306438006
1913.185153,12.47760361
1912.325465,20.85390657
1911.465633,24.90752921
1910.605656,24.98044316
1909.745535,22.41820502
1908.885269,22.13400581
1908.024859,29.31327475
1907.164304,36.62059341
1906.303605,37.57241507
1905.442761,44.3252608
1904.581772,52.67639061
1903.720639,48.12506536
1902.859361,43.16042462
1901.997938,42.78199712
1901.136371,40.26680038
1900.274658,39.04461418
1899.412801,41.45759462
1898.550799,43.63635449
1897.688652,38.54201222
1896.826361,36.75153388
1895.963924,43.57034524
1895.101342,44.67039444
1894.238615,49.00614761
1893.375744,58.86945731
1892.512727,59.75083616
1891.649565,58.39483723
1890.786258,55.62613987
1889.922805,49.40453651
1889.059208,49.47320058
1888.195465,55.80178966
1887.331577,62.91935095
1886.467544,61.25379413
1885.603365,52.00641747
1884.739041,48.08426839
1883.874572,42.30578884
1883.009957,35.40327404
1882.145197,37.14102326
1881.280291,34.3913009
1880.41524,30.54481703
1879.550043,36.06794297
1878.684701,37.42506256
1877.819213,34.21057978
1876.95358,35.96601269
1876.0878,38.82510511
1875.221875,37.94271383
1874.355805,40.59882766
1873.489588,49.15062529
1872.623226,47.08661403
1871.756718,41.69233024
1870.890064,49.6048778
1870.023264,53.11784472
1869.156318,51.6370423
1868.289226,59.94617957
1867.421989,66.68882433
1866.554605,66.47996904
1865.687075,66.32177822
1864.819399,70.32135129
1863.951577,76.6043342
1863.083609,78.4783465
1862.215495,80.35985508
1861.347234,84.70133096
1860.478828,89.5829963
1859.610275,97.86442896
1858.741575,97.12658243
1857.87273,84.06151848
1857.003738,81.98559899
1856.134599,87.33205743
1855.265314,76.0409733
1854.395883,66.79896631
1853.526305,79.09371556
1852.656581,81.47241387
1851.78671,69.47565591
1850.916692,74.99103758
1850.046528,84.84119693
1849.176218,79.28175683
1848.30576,75.51358131
1847.435156,78.65408759
1846.564405,76.96583387
1845.693508,71.08463505
1844.822463,68.77452543
1843.951272,70.742131
1843.079934,68.95461093
1842.208448,63.46020632
1841.336816,63.28154221
1840.465037,61.61690919
1839.593111,50.95546165
1838.721038,40.24464963
1837.848818,29.83306226
1836.976451,18.67258402
1836.103937,15.29911699
1835.231275,12.82165429
1834.358467,5.145893255
1833.485511,8.379806548
1832.612408,19.78964464
1831.739157,20.53977154
1830.86576,21.7956498
1829.992215,30.0975265
1829.118522,27.69052756
1828.244682,20.20246518
1827.370695,22.54654129
1826.49656,26.28164426
1825.622278,26.26024067
1824.747848,28.99235354
1823.87327,32.6722771
1822.998545,33.12163132
1822.123673,29.2410387
1821.248652,25.08064805
1820.373484,27.4281683
1819.498169,28.70649267
1818.622705,26.00228525
1817.747094,26.56135569
1816.871334,23.43318858
1815.995427,16.3683203
1815.119372,15.31875463
1814.24317,17.7116369
1813.366819,19.27269029
1812.49032,19.96009824
1811.613673,21.13981909
1810.736878,21.25519488
1809.859935,14.2173484
1808.982844,6.652708111
1808.105605,6.272383085
1807.228218,7.810503154
1806.350682,11.18507829
1805.472998,14.85852109
1804.595166,13.77730035
1803.717185,9.367203095
1802.839057,1.29860687
1801.960779,-2.095817281
1801.082354,4.702503998
1800.20378,8.313713438
1799.325057,8.242782159
1798.446186,10.72087115
1797.567167,12.00166893
1796.687999,19.34845185
1795.808682,34.3047768
1794.929216,42.78434854
1794.049602,46.78071978
1793.16984,55.98202646
1792.289928,62.94825665
1791.409868,66.11111223
1790.529659,74.6482895
1789.649301,78.88309246
1788.768794,73.70290213
1787.888139,73.53552996
1787.007334,76.13090513
1786.126381,72.11926328
1785.245278,68.12261217
1784.364027,67.15236489
1783.482626,59.69825351
1782.601077,46.28651854
1781.719378,40.88582283
1780.83753,44.56666615
1779.955533,43.6188822
1779.073387,35.20474163
1778.191091,31.6683336
1777.308646,35.2577052
1776.426052,38.60520357
1775.543308,38.43425348
1774.660416,31.79377293
1773.777373,27.86288544
1772.894182,34.1323512
1772.01084,40.93703904
1771.12735,45.44927748
1770.243709,50.04534569
1769.359919,52.77981959
1768.47598,49.83791663
1767.591891,41.0302483
1766.707652,37.41817445
1765.823264,43.07766766
1764.938725,45.57991823
1764.054037,40.5363332
1763.1692,39.42439525
1762.284212,44.34181229
1761.399075,47.74927165
1760.513787,52.21052711
1759.62835,56.15477997
1758.742763,52.11386818
1757.857025,48.54212724
1756.971138,51.24896594
1756.085101,50.57150913
1755.198913,47.08479408
1754.312575,45.25482673
1753.426088,47.1082283
1752.53945,58.74271533
1751.652661,69.3383081
1750.765723,74.12510884
1749.878634,86.1271462
1748.991395,97.99045658
1748.104006,102.08568
1747.216466,103.7308409
1746.328776,101.0491129
1745.440935,99.41668284
1744.552944,103.6554358
1743.664802,101.0092521
1742.77651,90.61674709
1741.888067,89.07347913
1740.999473,90.02582913
1740.110729,78.42991797
1739.221834,66.88835162
1738.332789,59.15082469
1737.443592,46.85600864
1736.554245,41.6269911
1735.664747,36.83626158
1734.775098,20.24095704
1733.885299,8.898356773
1732.995348,1.249026058
1732.105247,-5.300129582
1731.214994,1.187192204
1730.32459,7.175967206
1729.434036,12.13103074
1728.54333,24.2692736
1727.652473,32.09167055
1726.761465,39.51076039
1725.870306,46.86946854
1724.978996,48.81277502
1724.087534,58.61194639
1723.195921,70.5127474
1722.304157,71.36990641
1721.412242,73.39229633
1720.520175,76.48513308
1719.627956,71.68696412
1718.735586,72.26653511
1717.843065,79.67601241
1716.950392,76.2392614
1716.057568,66.49946905
1715.164592,62.60904733
1714.271465,56.45321403
1713.378185,48.45621493
1712.484755,44.62951365
1711.591172,42.45689591
1710.697438,51.64508071
1709.803551,63.94017933
1708.909514,65.01117032
1708.015324,69.76883933
1707.120982,76.80236772
1706.226489,82.25975477
1705.331843,89.35596258
1704.437046,85.69418522
1703.542096,84.35072586
1702.646994,91.44900478
1701.751741,84.64121473
1700.856335,72.76173291
1699.960777,66.00343209
1699.065067,53.68271851
1698.169205,46.56373789
1697.27319,52.43826474
1696.377023,52.84686292
1695.480704,42.04990026
1694.584233,35.69260062
1693.687609,35.19987919
1692.790833,29.44229824
1691.893904,30.52190702
1690.996823,46.48469523
1690.099589,57.8216096
1689.202203,64.01627881
1688.304664,72.58240448
1687.406972,76.37479944
1686.509128,80.37625585
1685.611132,89.50543483
1684.712982,96.42450689
1683.81468,95.76912775
1682.916225,95.8783145
1682.017617,101.1889813
1681.118856,97.6523768
1680.219943,91.67295024
1679.320876,90.89724271
1678.421657,83.83992561
1677.522284,78.68012741
1676.622759,74.44337922
1675.72308,63.38131688
1674.823249,57.81695715
1673.923264,53.84676164
1673.023126,47.23311158
1672.122835,44.44689738
1671.222391,40.27560713
1670.321793,40.99034722
1669.421042,49.71734047
1668.520138,51.55771155
1667.619081,57.11952154
1666.71787,73.7383192
1665.816505,78.70367501
1664.914988,76.57943029
1664.013316,80.78155952
1663.111492,81.08342946
1662.209513,84.12690946
1661.307381,98.72282436
1660.405096,106.053558
1659.502657,103.1154344
1658.600064,107.9025539
1657.697317,109.752831
1656.794417,100.1398367
1655.891362,95.41700453
1654.988154,90.31676529
1654.084793,83.55856888
1653.181277,85.99662737
1652.277607,81.75247183
1651.373783,69.73208984
1650.469806,66.10356376
1649.565674,63.06214766
1648.661388,62.30275943
1647.756948,71.2886634
1646.852354,73.76802488
1645.947606,67.15355426
1645.042704,57.63005472
1644.137647,42.64759426
1643.232436,35.43649166
1642.327071,37.34340829
1641.421552,32.1222451
1640.515878,26.21548272
1639.61005,29.23328781
1638.704067,31.16926316
1637.79793,32.27153507
1636.891638,45.18663856
1635.985192,56.95647906
1635.078591,54.64771497
1634.171835,54.40318919
1633.264925,55.91750702
1632.357861,56.16092651
1631.450641,68.31069414
1630.543267,75.45319348
1629.635738,72.52560176
1628.728054,84.4277036
1627.820215,98.03707584
1626.912222,98.5018913
1626.004073,98.72107581
1625.09577,99.11764392
1624.187311,99.78401813
1623.278698,100.9243276
1622.36993,100.25809
1621.461006,102.825595
1620.551927,101.799847
1619.642693,95.85209968
1618.733304,99.15115433
1617.82376,114.9558788
1616.914061,135.8377069
1616.004206,154.9455013
1615.094196,168.2843651
1614.18403,168.9457674
1613.273709,162.1670361
1612.363233,163.8516089
1611.452601,168.8077139
1610.541814,172.7463462
1609.630871,174.2306157
1608.719772,160.9154855
1607.808518,146.7348104
1606.897109,142.0101755
1605.985543,127.7137253
1605.073822,104.9917241
1604.161945,83.93042489
1603.249913,64.12118385
1602.337724,52.6174708
1601.42538,42.55165127
1600.51288,21.84478483
1599.600224,4.706357829
1598.687412,-0.379280567
1597.774444,-0.755042866
1596.86132,7.58443023
1595.94804,28.94261509
1595.034604,54.12765028
1594.121012,69.83398936
1593.207263,77.06186505
1592.293359,88.09722587
1591.379298,100.6960476
1590.465081,108.3847307
1589.550708,116.7623552
1588.636178,129.0167588
1587.721492,138.0077722
1586.806649,136.7208588
1585.89165,130.5249477
1584.976495,126.6375498
1584.061183,120.2341345
1583.145715,103.2586922
1582.23009,81.68359809
1581.314308,75.05641561
1580.39837,81.93973405
1579.482275,75.00881371
1578.566024,57.27468716
1577.649615,55.81144517
1576.73305,58.24497819
1575.816328,50.85416392
1574.899449,54.95514253
1573.982414,69.4463875
1573.065221,77.01731414
1572.147871,77.59314498
1571.230365,78.84063172
1570.312701,88.06123789
1569.394881,94.71369937
1568.476903,96.73048648
1567.558768,110.2384273
1566.640476,121.4462941
1565.722027,112.6640543
1564.80342,99.83807065
1563.884656,97.53327732
1562.965735,98.41565496
1562.046657,95.77185769
1561.127421,92.09613269
1560.208028,89.93012974
1559.288477,94.63167248
1558.368769,99.59682335
1557.448904,92.68813124
1556.528881,87.26821273
1555.6087,86.40698013
1554.688362,77.27048835
1553.767866,73.54906781
1552.847212,79.61098354
1551.9264,80.10446443
1551.005431,74.55791459
1550.084304,65.87738606
1549.163019,62.37021969
1548.241577,66.92665853
1547.319976,64.95290687
1546.398218,58.92400836
1545.476301,51.94926553
1544.554227,34.7304358
1543.631994,20.85125472
1542.709604,20.58231658
1541.787055,22.71736858
1540.864348,26.1066428
1539.941483,29.54304557
1539.01846,26.21179231
1538.095278,22.14299684
1537.171938,22.11017719
1536.24844,22.99066557
1535.324784,27.45038726
1534.400969,35.38024309
1533.476996,38.9199464
1532.552864,39.0635262
1531.628574,38.42641518
1530.704125,34.23266236
1529.779517,31.48266605
1528.854751,30.63821418
1527.929827,29.02903224
1527.004744,29.55345194
1526.079502,27.94616559
1525.154101,23.23758932
1524.228541,19.45037501
1523.302823,15.98004529
1522.376946,13.27939614
1521.45091,13.65284863
1520.524715,18.24007199
1519.598361,21.58127471
1518.671848,17.14192731
1517.745176,10.09081522
1516.818345,12.00202672
1515.891354,19.26341011
1514.964205,19.02901205
1514.036897,18.22173448
1513.109429,24.46816939
1512.181802,29.50386961
1511.254016,30.61750201
1510.32607,28.9650083
1509.397965,26.69991115
1508.469701,27.51668936
1507.541278,28.61440437
1506.612694,29.5689659
1505.683952,31.89158476
1504.75505,29.32720634
1503.825988,22.97173309
1502.896767,21.60756046
1501.967386,20.78322365
1501.037845,15.04190703
1500.108145,12.09526348
1499.178285,18.25240341
1498.248265,24.26334202
1497.318085,14.67381645
1496.387746,2.117345268
1495.457246,9.704119556
1494.526587,22.24917774
1493.595768,24.92976066
1492.664788,31.30867133
1491.733649,39.97437066
1490.80235,44.17337252
1489.87089,51.07314111
1488.939271,55.86309594
1488.007491,55.13972885
1487.075551,61.24620214
1486.143451,72.0883932
1485.21119,78.50127176
1484.278769,82.00733546
1483.346188,80.59863736
1482.413447,76.72385678
1481.480545,75.51750767
1480.547482,74.03183585
1479.614259,70.12592091
1478.680876,64.85155018
1477.747332,61.96871773
1476.813627,55.50133006
1475.879762,41.53344494
1474.945736,29.89719997
1474.011549,24.71456364
1473.077202,29.67877242
1472.142694,36.97279612
1471.208025,33.6351319
1470.273195,30.91116525
1469.338204,38.66301728
1468.403053,50.56773274
1467.46774,56.69236142
1466.532266,57.59904483
1465.596632,65.73882533
1464.660836,78.80637309
1463.724879,87.81596363
1462.788761,98.24811875
1461.852482,109.7610822
1460.916042,117.549455
1459.97944,125.7031843
1459.042677,131.0366592
1458.105753,131.7770084
1457.168667,129.9201428
1456.23142,122.2618225
1455.294012,114.2232357
1454.356442,105.9007715
1453.418711,92.99282796
1452.480818,78.82050086
1451.542763,65.02974006
1450.604547,57.91443309
1449.666169,50.88360663
1448.72763,32.931132
1447.788928,25.37285081
1446.850065,37.15767119
1445.911041,41.05875525
1444.971854,37.72723513
1444.032506,51.93652457
1443.092995,73.57857888
1442.153323,89.11513853
1441.213489,117.0785092
1440.273492,162.3360479
1439.333334,206.3674031
1438.393014,250.3885353
1437.452531,309.2711198
1436.511886,377.8323434
1435.571079,446.0706841
1434.63011,517.0947651
1433.688979,589.0450928
1432.747685,652.4774068
1431.806229,704.9840092
1430.864611,745.3923205
1429.92283,769.4587638
1428.980886,786.6747432
1428.038781,804.6972355
1427.096512,808.6054288
1426.154081,793.228069
1425.211488,769.9803077
1424.268732,738.7030503
1423.325813,698.5781935
1422.382732,653.3327727
1421.439487,591.998021
1420.49608,515.501469
1419.55251,446.9445346
1418.608778,385.1668499
1417.664882,322.0245386
1416.720824,271.5137646
1415.776602,235.0351918
1414.832218,204.0897486
1413.88767,179.8846008
1412.94296,163.0891727
1411.998086,150.3561455
1411.053049,140.3668329
1410.107849,133.7643484
1409.162486,122.6520521
1408.216959,105.3272988
1407.271269,96.22865693
1406.325416,99.06124744
1405.3794,105.0070648
1404.43322,109.9675052
1403.486876,110.6292253
1402.54037,102.1483781
1401.593699,88.88533399
1400.646865,82.72645193
1399.699868,84.53275929
1398.752707,84.58356085
1397.805382,87.31493914
1396.857893,98.62611054
1395.910241,107.8196767
1394.962425,120.2208603
1394.014445,143.8357663
1393.066301,164.1640822
1392.117994,180.0841693
1391.169522,196.8669024
1390.220887,206.1297229
1389.272088,210.4091883
1388.323124,218.2255769
1387.373996,218.4675464
1386.424705,203.4455294
1385.475249,191.6184457
1384.525629,182.4446677
1383.575845,158.6806649
1382.625896,136.9480911
1381.675784,124.4418178
1380.725506,99.41211731
1379.775065,69.45486443
1378.824459,49.9514242
1377.873689,35.82499281
1376.922754,28.10812877
1375.971655,20.84826566
1375.020391,12.29298229
1374.068962,14.17291433
1373.117369,17.63576226
1372.165612,19.77616299
1371.213689,27.74634628
1370.261602,34.85920182
1369.30935,41.81098975
1368.356933,43.98613081
1367.404352,40.63263326
1366.451605,46.87849258
1365.498694,50.73475197
1364.545617,42.06717471
1363.592376,38.90077933
1362.638969,41.83200164
1361.685398,41.10920709
1360.731661,39.98708766
1359.777759,42.78520329
1358.823692,48.45096135
1357.86946,48.93508703
1356.915063,41.57932212
1355.9605,32.82191733
1355.005772,24.80520945
1354.050878,22.96732836
1353.095819,29.5372363
1352.140595,34.87481216
1351.185205,37.00526979
1350.22965,38.08681714
1349.273929,38.41890194
1348.318042,40.58581998
1347.36199,42.23581563
1346.405772,40.84986735
1345.449389,35.92001009
1344.492839,30.33706558
1343.536124,29.00932455
1342.579243,30.61288889
1341.622196,36.24769515
1340.664984,44.55971383
1339.707605,50.53426632
1338.75006,55.89629239
1337.79235,56.08189022
1336.834473,50.22859735
1335.87643,50.63348206
1334.918222,53.78672147
1333.959846,54.423019
1333.001305,63.60783816
1332.042598,72.10475728
1331.083724,70.26380798
1330.124684,73.5067363
1329.165477,79.82789392
1328.206104,80.83144664
1327.246565,80.85062101
1326.286859,77.77059379
1325.326987,72.84261177
1324.366948,65.09641078
1323.406743,54.19421182
1322.446371,49.83259388
1321.485832,45.85527692
1320.525127,41.11496793
1319.564255,45.39207363
1318.603216,43.0408185
1317.64201,29.89329075
1316.680638,24.6941575
1315.719099,21.89696235
1314.757392,11.27074049
1313.795519,2.995947374
1312.833479,3.612152938
1311.871271,10.2767075
1310.908897,20.45473362
1309.946356,28.20843408
1308.983647,27.78803699
1308.020771,25.77926269
1307.057728,32.48905138
1306.094518,42.17998865
1305.13114,44.78058691
1304.167595,48.27660045
1303.203883,55.71858385
1302.240003,54.91475111
1301.275956,52.50886294
1300.311741,59.06777557
1299.347359,62.26293613
1298.382809,57.99790163
1297.418092,54.11379669
1296.453207,45.31313918
1295.488154,31.81200994
1294.522934,26.61278993
1293.557545,29.0308166
1292.591989,26.8682424
1291.626265,19.82661757
1290.660374,17.12899527
1289.694314,15.24057851
1288.728086,15.67742065
1287.761691,29.97851695
1286.795127,40.46207106
1285.828396,36.37708949
1284.861496,39.26207209
1283.894428,51.77782759
1282.927192,61.90954134
1281.959787,67.45501971
1280.992215,73.34426848
1280.024474,81.62945623
1279.056565,85.54403468
1278.088487,89.48547485
1277.120241,96.32707164
1276.151827,91.7675751
1275.183244,77.23751538
1274.214492,67.64346197
1273.245572,64.85818469
1272.276484,64.69603458
1271.307226,63.74309753
1270.3378,58.43887615
1269.368206,52.0936482
1268.398442,52.02457804
1267.42851,50.55693458
1266.458409,42.63126549
1265.488139,50.28678551
1264.5177,66.82835464
1263.547092,60.67588675
1262.576316,50.77855466
1261.60537,54.50049965
1260.634255,54.81887244
1259.662971,56.7035597
1258.691518,64.87439776
1257.719896,74.4368047
1256.748104,87.07975131
1255.776143,92.83100911
1254.804013,91.13510371
1253.831714,88.00189025
1252.859245,79.85427343
1251.886607,76.0981876
1250.913799,79.87351223
1249.940822,78.75411562
1248.967675,73.48774054
1247.994359,71.05176631
1247.020873,72.97462362
1246.047217,78.73422499
1245.073392,80.53092464
1244.099397,71.84662013
1243.125233,63.80529869
1242.150898,59.71836557
1241.176394,45.77917582
1240.20172,32.31907497
1239.226875,30.11063541
1238.251861,23.94569639
1237.276677,20.7248472
1236.301323,28.81926175
1235.325799,32.47911976
1234.350104,35.57508135
1233.37424,39.57478497
1232.398205,33.88481623
1231.422,25.74249917
1230.445625,17.80715324
1229.46908,15.38209847
1228.492364,22.04840393
1227.515478,21.83736697
1226.538421,20.9006408
1225.561194,29.65221072
1224.583796,35.36150438
1223.606228,38.40285464
1222.628489,40.99897555
1221.65058,36.43138685
1220.6725,31.30262356
1219.694249,30.11868691
1218.715828,31.19798895
1217.737236,34.98099724
1216.758473,35.96421828
1215.779539,33.56935807
1214.800434,30.82287673
1213.821158,32.50116831
1212.841711,41.61481111
1211.862094,44.81014848
1210.882305,43.75442577
1209.902345,46.24822227
1208.922214,40.81679156
1207.941912,33.92959108
1206.961438,37.02151532
1205.980794,45.54321563
1204.999978,52.46771959
1204.018991,49.94328321
1203.037832,48.87454446
1202.056502,55.79683455
1201.075,51.04376846
1200.093328,40.28946228
1199.111483,41.4391845
1198.129467,41.95755812
1197.147279,39.51149977
1196.16492,47.89208007
1195.182389,58.06169847
1194.199686,60.99036294
1193.216812,71.05353384
1192.233766,91.10753804
1191.250547,107.1785384
1190.267158,123.1745135
1189.283596,140.2141188
1188.299862,148.0379075
1187.315956,158.3537587
1186.331878,170.8528372
1185.347628,171.0013622
1184.363206,171.1170333
1183.378612,172.0691911
1182.393845,161.9872646
1181.408906,149.1413025
1180.423796,136.6783904
1179.438512,121.6778579
1178.453057,102.5911694
1177.467429,77.15700654
1176.481628,59.08496387
1175.495655,51.97551466
1174.50951,37.30787196
1173.523192,19.92246799
1172.536701,13.80383068
1171.550038,10.87213996
1170.563202,13.2939483
1169.576193,23.24989683
1168.589012,23.20078793
1167.601658,17.26390284
1166.614131,19.03652899
1165.626431,22.7242514
1164.638558,24.32236727
1163.650512,24.07704799
1162.662294,26.10093716
1161.673902,28.44909093
1160.685337,19.61837933
1159.696599,9.710989649
1158.707688,10.47090443
1157.718604,14.87801688
1156.729346,21.31217012
1155.739915,25.86630886
1154.750311,27.39918578
1153.760534,35.8720199
1152.770583,50.73845895
1151.780459,68.3238407
1150.790161,85.69737248
1149.79969,105.0771375
1148.809045,141.056319
1147.818227,192.1568813
1146.827234,247.2422302
1145.836069,301.7450073
1144.844729,348.9676911
1143.853216,395.7645123
1142.861529,450.2317433
1141.869668,500.7785211
1140.877634,540.5006548
1139.885425,573.0004495
1138.893043,592.9479518
1137.900486,593.7180523
1136.907756,586.3729633
1135.914851,578.254566
1134.921772,556.441651
1133.928519,520.3840658
1132.935092,479.7344403
1131.941491,429.1160387
1130.947715,370.6738073
1129.953765,316.1279112
1128.959641,266.2705567
1127.965342,216.7157443
1126.970869,163.0043279
1125.976222,117.5559673
1124.9814,92.8503983
1123.986403,71.70536676
1122.991232,51.71118656
1121.995886,41.85524234
1121.000365,32.19131947
1120.00467,29.32176267
1119.0088,38.79706749
1118.012755,44.45306806
1117.016536,43.64301001
1116.020141,37.91724858
1115.023571,27.30704827
1114.026827,27.34766038
1113.029908,37.49171464
1112.032813,38.19046815
1111.035544,35.52941492
1110.038099,40.54179616
1109.040479,38.76815605
1108.042684,31.26480769
1107.044714,34.45207376
1106.046568,39.74195274
1105.048247,39.93681332
1104.049751,38.90667361
1103.051079,33.45556395
1102.052232,35.47790145
1101.053209,48.03976978
1100.054011,52.35512514
1099.054637,52.23224238
1098.055088,53.16605099
1097.055363,48.97075451
1096.055462,46.03898135
1095.055386,42.34287535
1094.055134,35.67643829
1093.054706,38.67496231
1092.054102,46.65875107
1091.053322,56.53852584
1090.052366,82.86402835
1089.051235,116.0106313
1088.049927,148.4425946
1087.048443,194.2933411
1086.046783,242.1123776
1085.044947,283.771829
1084.042935,340.3169309
1083.040747,409.5089425
1082.038382,466.4079225
1081.035841,509.9795242
1080.033124,558.0443734
1079.03023,610.3488079
1078.02716,655.055391
1077.023913,688.8622923
1076.02049,703.5141318
1075.016891,697.6256676
1074.013114,687.1166815
1073.009161,674.3518639
1072.005032,649.5818543
1071.000726,608.0108801
1069.996243,555.702449
1068.991583,504.8778181
1067.986746,448.391515
1066.981733,388.2490287
1065.976542,341.9945247
1064.971175,300.1465472
1063.96563,263.1356584
1062.959909,234.5252603
1061.95401,194.9937455
1060.947934,160.6997902
1059.941682,147.1552488
1058.935251,127.8064517
1057.928644,98.69687783
1056.92186,81.1109984
1055.914898,78.36830114
1054.907758,77.33858049
1053.900442,73.66310611
1052.892947,73.18651263
1051.885276,73.233042
1050.877426,70.851805
1049.8694,69.2121979
1048.861195,74.68237327
1047.852813,85.70833892
1046.844253,87.559509
1045.835516,86.94292327
1044.8266,93.03231045
1043.817507,94.20604292
1042.808236,101.3933678
1041.798787,119.2160895
1040.78916,125.938575
1039.779355,124.6421573
1038.769372,124.3415163
1037.759211,123.7027733
1036.748872,133.0550455
1035.738355,148.673906
1034.72766,150.1127074
1033.716786,140.6240457
1032.705734,136.5109429
1031.694503,133.6749675
1030.683095,128.9330709
1029.671508,129.9516547
1028.659742,131.2283988
1027.647798,128.7765309
1026.635675,125.3939734
1025.623374,122.9201975
1024.610894,134.4959119
1023.598236,152.9642556
1022.585399,149.9201925
1021.572383,133.1450841
1020.559188,124.5389711
1019.545814,121.1427684
1018.532262,119.9074398
1017.518531,116.8744699
1016.504621,106.1662992
1015.490531,101.5820568
1014.476263,109.7276572
1013.461816,119.5768645
1012.447189,132.0333923
1011.432383,144.5345372
1010.417399,142.7688562
1009.402235,132.8546995
1008.386891,129.7360932
1007.371368,130.6420269
1006.355666,132.142952
1005.339785,133.066922
1004.323724,129.2195195
1003.307483,126.4589277
1002.291063,127.6221502
1001.274464,124.5278085
1000.257685,117.3277827
999.2407258,110.7089186
998.2235873,95.91107232
997.2062689,75.32275931
996.1887708,69.04675331
995.1710929,65.768687
994.1532351,54.25891749
993.1351974,55.52048502
992.1169797,62.22540015
991.098582,60.55409653
990.0800042,66.84230484
989.0612464,78.83533214
988.0423085,82.9635483
987.0231904,85.85629617
986.003892,87.79507587
984.9844134,82.32910367
983.9647546,79.59545412
982.9449153,84.77074507
981.9248957,90.61929441
980.9046957,93.04833415
979.8843152,88.70590129
978.8637542,86.39119363
977.8430127,92.7075846
976.8220905,92.73088196
975.8009877,84.91702238
974.7797043,80.03221678
973.7582401,74.31459951
972.7365952,69.1519766
971.7147694,70.30612244
970.6927628,70.19545237
969.6705754,68.31650151
968.6482069,67.14381053
967.6256576,57.24858539
966.6029272,47.64975143
965.5800157,51.71592222
964.5569231,52.81739717
963.5336494,44.3299448
962.5101945,40.73067301
961.4865584,39.51152865
960.462741,35.00888087
959.4387423,35.82009729
958.4145623,40.99226214
957.3902008,40.3085999
956.3656579,36.02766281
955.3409335,35.93491537
954.3160276,42.38333795
953.2909401,51.25095697
952.265671,53.12748453
951.2402203,46.87313238
950.2145878,39.03899923
949.1887736,35.02679066
948.1627777,35.90299458
947.1365999,35.37556095
946.1102402,32.28740461
945.0836986,27.22079796
944.0569751,19.89320294
943.0300696,23.8231813
942.002982,37.66370431
940.9757123,41.58559949
939.9482606,40.22845156
938.9206266,44.07973683
937.8928105,51.2934116
936.8648121,65.69839474
935.8366314,79.33918056
934.8082683,82.27659998
933.7797229,84.12149606
932.750995,87.23530137
931.7220847,90.82747966
930.6929919,98.72105958
929.6637165,103.1219912
928.6342585,99.84624675
927.6046179,90.98142331
926.5747946,78.11741387
925.5447886,70.18595554
924.5145998,73.26026144
923.4842282,81.30795852
922.4536737,83.03284734
921.4229363,77.58269952
920.392016,74.03636105
919.3609127,74.66644955
918.3296264,77.48498229
917.298157,75.2609493
916.2665045,65.77450038
915.2346689,63.42409198
914.20265,67.68686709
913.1704479,68.1843188
912.1380626,63.68407519
911.1054938,48.92776549
910.0727418,33.40065265
909.0398063,29.16914561
908.0066873,25.71248051
906.9733848,22.73604999
905.9398988,24.62600056
904.9062292,19.57578686
903.872376,8.720015347
902.8383391,5.284410718
901.8041185,9.458751742
900.7697141,18.67665108
899.7351259,31.18336916
898.7003538,37.74880907
897.6653979,40.1144245
896.630258,49.37074368
895.5949342,60.32275704
894.5594263,66.62005833
893.5237344,73.5289864
892.4878583,75.17468506
891.4517981,70.5961574
890.4155537,74.95973815
889.3791251,80.77500069
888.3425122,75.24272057
887.305715,65.39001702
886.2687333,55.60887867
885.2315673,54.00044162
884.1942168,57.72249926
883.1566818,53.92793663
882.1189623,52.87498334
881.0810582,48.20542613
880.0429694,30.91674252
879.004696,26.83655587
877.9662379,30.44378988
876.9275949,24.92165615
875.8887672,27.63934307
874.8497547,33.35800621
873.8105572,33.77641602
872.7711748,43.61037507
871.7316074,55.51080737
870.691855,59.14833292
869.6519176,61.10583847
868.611795,59.97825803
867.5714872,55.83846548
866.5309943,59.1252636
865.4903161,65.44792348
864.4494526,62.19130419
863.4084038,54.83997065
862.3671696,48.59121736
861.32575,45.02524135
860.284145,49.97675483
859.2423544,50.90647745
858.2003783,42.28692111
857.1582166,37.20810866
856.1158692,28.56200256
855.0733362,18.2318969
854.0306174,20.22385768
852.9877128,19.87078238
851.9446225,17.6228204
850.9013463,22.83156672
849.8578842,20.40003825
848.8142361,20.29281478
847.770402,28.40499006
846.726382,24.54936587
845.6821758,20.25823028
844.6377835,28.40992731
843.593205,35.41680295
842.5484404,36.47308759
841.5034894,37.5213627
840.4583522,41.14161151
839.4130286,44.95205506
838.3675187,47.83696986
837.3218223,52.47660322
836.2759394,60.99257226
835.22987,68.23288407
834.1836141,65.85677139
833.1371715,60.31358291
832.0905423,59.52384929
831.0437263,53.99346283
829.9967237,48.94177188
828.9495342,55.77401623
827.902158,55.12582869
826.8545948,43.71903218
825.8068447,38.55026021
824.7589077,35.93105547
823.7107836,35.42747604
822.6624725,34.17905911
821.6139743,28.5564958
820.565289,32.80075944
819.5164165,41.41263714
818.4673567,38.51356422
817.4181097,32.98223853
816.3686753,35.70970504
815.3190536,40.1430643
814.2692445,39.29948198
813.2192479,37.38788767
812.1690638,34.40660251
811.1186922,26.38126283
810.068133,18.85545672
809.0173861,15.40668064
807.9664516,16.45448265
806.9153294,22.40858788
805.8640194,23.87226867
804.8125216,21.64729595
803.7608359,21.76266842
802.7089623,16.72108962
801.6569008,16.49155967
800.6046513,28.63137237
799.5522138,35.68440487
798.4995882,37.25687106
797.4467744,39.36490284
796.3937725,38.73913126
795.3405824,40.80410105
794.287204,43.62022556
793.2336373,40.43561027
792.1798823,35.33048082
791.1259389,29.98050246
790.071807,26.49452312
789.0174867,29.3627275
787.9629778,31.55130151
786.9082804,25.89404692
785.8533943,19.44305594
784.7983196,22.98914818
783.7430562,34.40731361
782.687604,40.02420133
781.6319631,37.15168534
780.5761332,35.57058644
779.5201145,36.34879088
778.4639069,35.7981083
777.4075103,37.81311073
776.3509247,44.77417164
775.29415,52.22047229
774.2371862,57.22292678
773.1800332,59.15978942
772.122691,57.34730555
771.0651596,56.36468871
770.0074389,58.36517698
768.9495289,53.45128393
767.8914295,41.39132721
766.8331406,36.38505253
765.7746623,39.09462308
764.7159944,43.46773703
763.657137,50.02782946
762.59809,50.4302469
761.5388533,39.66613748
760.479427,32.88866589
759.4198108,35.54740071
758.3600049,33.91019915
757.3000092,26.27093982
756.2398236,21.8663064
755.179448,19.73263982
754.1188825,14.11185117
753.058127,7.724321769
751.9971814,7.379152927
750.9360457,12.49136498
749.8747198,16.38095444
748.8132038,16.63538108
747.7514974,14.4661513
746.6896009,10.70856027
745.6275139,9.077479858
744.5652366,7.620439093
743.5027689,-0.774754942
742.4401107,-9.66195487
741.377262,-8.058990328
740.3142227,-1.350189674
739.2509928,3.597655658
738.1875723,9.869763687
737.123961,11.65437928
736.060159,7.460176193
734.9961663,10.64559536
733.9319826,17.28671232
732.8676081,16.99513641
731.8030427,16.10042608
730.7382863,17.82507582
729.6733389,16.60323179
728.6082004,14.41148436
727.5428708,16.40398948
726.4773501,18.47139987
725.4116381,21.76788214
724.345735,27.81803855
723.2796405,29.01678391
722.2133546,27.77289177
721.1468774,29.31063202
720.0802088,35.29044839
719.0133487,40.09321932
717.946297,36.86778798
716.8790538,38.71153897
715.811619,47.39006975
714.7439925,51.87695278
713.6761743,55.59612625
712.6081643,56.29051238
711.5399626,53.12177211
710.471569,55.13732441
709.4029835,60.73291924
708.3342061,60.88801496
707.2652367,52.3607594
706.1960753,44.20334395
705.1267218,42.73730978
704.0571762,38.38895318
702.9874384,31.80870718
701.9175084,31.93692007
700.8473861,31.69046626
699.7770715,28.12873908
698.7065646,24.75455026
697.6358653,21.02392374
696.5649736,22.75303989
695.4938893,28.75885007
694.4226125,28.59722705
693.3511432,20.58627681
692.2794812,17.62703281
691.2076265,23.38354295
690.1355791,22.67580393
689.063339,20.73307806
687.990906,24.17799788
686.9182802,24.89775756
685.8454614,33.92885676
684.7724497,48.82699062
683.6992451,50.73098417
682.6258473,46.03139938
681.5522565,46.3469465
680.4784725,50.46832147
679.4044954,55.46627651
678.330325,56.86171989
677.2559614,52.94388554
676.1814044,53.01798929
675.106654,58.96981438
674.0317103,58.84082714
672.956573,52.21273451
671.8812423,50.45311866
670.805718,55.95777684
669.7300001,58.78736262
668.6540886,54.44971244
667.5779833,55.30702968
666.5016843,63.94031689
665.4251916,65.27528006
664.348505,60.96050036
663.2716245,56.23547935
662.19455,51.32856475
661.1172816,58.19385666
660.0398192,65.67136392
658.9621627,58.88866357
657.8843121,50.83212607
656.8062674,46.94706411
655.7280284,45.76066565
654.6495951,44.79058604
653.5709676,41.70735962
652.4921457,36.56297921
651.4131294,28.77092263
650.3339187,29.35420485
649.2545135,31.03491807
648.1749137,19.75840769
647.0951194,16.38428693
646.0151304,28.67796275
644.9349467,38.09155727
643.8545684,40.05821085
642.7739952,40.00596955
641.6932273,43.48550368
640.6122644,48.15627494
639.5311067,44.94707251
638.449754,37.55851952
637.3682063,34.73602039
636.2864635,38.33444268
635.2045256,42.14076453
634.1223926,40.32269131
633.0400644,40.28876455
631.9575409,41.58504124
630.8748222,41.54458016
629.7919081,45.23092461
628.7087986,45.5636964
627.6254937,42.83936607
626.5419934,39.39170807
625.4582975,33.90513511
624.374406,34.79143402
623.2903189,33.17390173
622.2060361,27.37661937
621.1215577,31.74624018
620.0368834,34.21244131
618.9520134,27.72614361
617.8669475,24.3219969
616.7816857,23.52037794
615.6962279,22.63484274
614.6105742,19.90179542
613.5247244,11.71916128
612.4386785,7.223524769
611.3524364,9.079571902
610.2659982,6.304119462
609.1793638,5.041411411
608.092533,10.05395482
607.005506,8.988008267
605.9182825,7.634617539
604.8308626,12.32387728
603.7432463,10.3153252
602.6554334,6.050882986
601.567424,8.080508693
600.4792179,9.471556465
599.3908152,13.90187818
598.3022158,20.94657703
597.2134196,18.98380103
596.1244266,15.79444907
595.0352368,20.17444967
593.9458501,25.82279188
592.8562664,30.63504888
591.7664857,33.44587777
590.676508,35.40101929
589.5863331,41.72070322
588.4959612,48.44633865
587.405392,53.54625108
586.3146257,60.26871631
585.223662,63.01564771
584.132501,60.1356112
583.0411426,58.2533713
581.9495868,53.83199194
580.8578335,47.430896
579.7658827,47.71004109
578.6737344,45.45217053
577.5813884,37.5753056
576.4888447,36.45643561
575.3961034,39.19430661
574.3031643,42.30969056
573.2100273,46.35670267
572.1166925,45.09759686
571.0231598,39.69432298
569.9294292,36.74696435
568.8355005,40.31381945
567.7413738,44.9991418
566.647049,41.18060767
565.5525261,36.3218978
564.4578049,40.07868689
563.3628856,44.07083678
562.2677679,40.62780347
561.1724519,34.66495027
560.0769375,30.86856975
558.9812246,26.74943546
557.8853133,20.49533729
556.7892035,16.77333532
555.6928951,16.76042387
554.596388,15.64714019
553.4996823,15.60445786
552.4027778,16.73947173
551.3056746,13.95055378
550.2083726,12.59875538
549.1108717,14.3077133
548.0131718,14.32763963
546.915273,15.95325656
545.8171752,19.72094751
544.7188784,23.7320389
543.6203824,28.79246409
542.5216873,31.99997966
541.4227929,29.09172761
540.3236993,22.71427841
539.2244064,23.19707212
538.1249141,30.89501837
537.0252225,32.34204207
535.9253314,25.17657322
534.8252408,22.57413288
533.7249506,27.41604462
532.6244609,32.23091159
531.5237715,38.04045016
530.4228824,43.72235827
529.3217936,45.22586723
528.2205049,46.35849874
527.1190165,50.68176833
526.0173282,55.72935483
524.9154399,53.30663587
523.8133516,47.68746955
522.7110633,51.85117316
521.6085749,60.25362349
520.5058864,66.67900544
519.4029978,71.02210425
518.2999088,67.90047362
517.1966197,60.73600092
516.0931301,55.35235479
514.9894402,51.76590023
513.8855499,49.72642164
512.7814591,46.97631861
511.6771678,41.04210564
510.572676,30.9276536
509.4679835,23.40936789
508.3630903,23.33820515
507.2579964,23.71775225
506.1527018,24.00896842
505.0472063,24.27917787
503.94151,20.85546683
502.8356128,18.37685749
501.7295146,15.4834788
500.6232154,10.87096036
499.5167151,13.05770371
498.4100137,20.92023767
497.3031112,30.48684546
496.1960075,40.10071089
495.0887025,42.26523165
493.9811962,40.64877414
492.8734885,43.47585278
491.7655795,50.51591465
490.657469,59.91963401
489.549157,64.59834599
488.4406434,66.54389353
487.3319282,70.87620034
486.2230114,69.7647
485.1138929,68.88142111
484.0045727,75.46631823
482.8950506,78.02062857
481.7853267,74.01172153
480.6754009,71.20484768
479.5652732,69.11841122
478.4549434,66.22281894
477.3444117,62.34814817
476.2336778,51.14973708
475.1227418,40.99274081
474.0116036,47.35923419
472.9002631,56.77145704
471.7887204,55.58970549
470.6769753,49.31587186
469.5650278,40.97360377
468.4528779,34.12247007
467.3405255,30.90088511
466.2279706,32.03696739
465.1152131,37.37139219
464.0022529,38.56454934
462.8890901,38.64467141
461.7757245,45.91925073
460.6621561,49.91101309
459.5483849,46.36098343
458.4344108,45.62807102
457.3202338,46.03846117
456.2058538,44.06189559
455.0912707,46.11698502
453.9764846,47.40860187
452.8614954,41.4254506
451.7463029,36.6264648
450.6309072,31.78397844
449.5153083,22.95544049
448.399506,22.09932962
447.2835003,26.87821443
446.1672912,23.81828101
445.0508786,16.21522659
443.9342624,11.2810111
442.8174427,10.47596727
441.7004194,10.20125589
440.5831923,8.660877937
439.4657616,12.16935434
438.348127,18.35285032
437.2302887,22.82798319
436.1122464,27.29204157
434.9940002,28.97325189
433.8755501,29.29306431
432.7568959,27.31463585
431.6380376,23.04169277
430.5189751,24.77293337
429.3997085,27.33361477
428.2802377,24.28209632
427.1605626,18.37779341
426.0406832,12.13938077
424.9205993,10.38157544
423.8003111,11.05433037
422.6798183,10.27149507
421.559121,10.56597172
420.4382192,11.82025148
419.3171127,11.22568914
418.1958015,9.506530931
417.0742856,11.03057771
415.9525649,12.46399618
414.8306393,7.648381098
413.7085089,2.664883224
412.5861735,1.099025694
411.4636332,0.394160324
410.3408878,3.561478363
409.2179373,8.438404464
408.0947817,11.70309565
406.9714209,12.40544105
405.8478549,9.337546608
404.7240836,13.09038313
403.6001069,20.07110182
402.4759249,16.39210045
401.3515374,13.32134608
400.2269444,17.60687261
399.1021459,22.69057958
397.9771418,27.33187504
396.851932,30.82428132
395.7265166,33.75018925
394.6008954,37.92452538
393.4750684,48.94781391
392.3490355,64.44602384
391.2227968,71.8511921
390.0963521,72.42510299
388.9697015,73.02134943
387.8428447,73.3527376
386.7157819,74.20769335
385.588513,73.34688958
384.4610378,68.78055428
383.3333564,68.32594826
382.2054687,71.65296884
381.0773746,64.95622323
379.9490741,55.24511768
378.8205672,60.00701538
377.6918537,61.99878637
376.5629338,48.24817504
375.4338072,42.7699482
374.3044739,46.58880331
373.1749339,43.4133464
372.0451872,41.91942481
370.9152337,43.23224929
369.7850733,43.68754919
368.654706,50.97195063
367.5241317,61.65035016
366.3933504,67.54409341
365.2623621,68.48576922
364.1311666,68.48786002
362.999764,67.55036581
361.8681541,65.67328658
360.736337,62.85662235
359.6043126,59.10037311
358.4720807,54.40453885
357.3396415,48.76911958
356.2069948,42.19411531
355.0741405,34.67952602
353.9410787,26.22535172
352.8078093,16.83159241
