Wavelength,AAB_AS_S2_I1,AAB_AS_S2_I2,AAB_AS_S2_I4
352.8078093,11.21409512,32.18890283,9.17
353.9410787,10.79239587,25.13086157,10.7318552
355.0741405,10.58051076,18.85782747,12.14651295
356.2069948,10.5784398,13.36980054,13.41
357.3396415,10.78618298,8.666780762,14.52616152
358.4720807,11.20374031,4.74876815,15.49115234
359.6043126,11.83111178,1.6157627,16.30625419
360.736337,12.6682974,-0.73,16.97146707
361.8681541,13.71529717,-2.30,17.48679097
362.999764,14.97211108,-3.07,17.8522259
364.1311666,16.43873914,-3.07,18.06777185
365.2623621,18.11518135,-2.27,18.13342884
366.3933504,20.0014377,-0.70,18.04919684
367.5241317,20.93958294,-0.22,18.77639069
368.654706,22.06605783,0.870673723,21.89377345
369.7850733,23.65765074,3.38411452,8.633849992
370.9152337,26.02304372,8.437176236,5.705356686
372.0451872,29.44829631,16.91,9.17
373.1749339,34.14491171,28.26411678,13.36190596
374.3044739,40.21157175,40.83638599,9.928417273
375.4338072,47.61287792,53.52813055,7.303055669
376.5629338,56.17392132,66.59,18.00768291
377.6918537,65.58988459,80.42864458,19.64249822
378.8205672,75.44939961,94.5025883,20.40
379.9490741,85.26760453,107.8207871,26.3413873
381.0773746,94.52286983,120.1288173,26.23256931
382.2054687,102.6914676,131.932328,23.08502591
383.3333564,109.2777991,143.2554326,24.16569765
384.4610378,113.8440698,152.6404058,33.93128341
385.588513,116.0464933,157.6763777,46.68386555
386.7157819,115.6782659,156.8070707,49.61693424
387.8428447,112.7080906,150.6117855,47.31898695
388.9697015,107.3000189,141.0869657,37.29791922
390.0963521,99.80722671,129.7781558,28.13220145
391.2227968,90.73947023,117.0044316,21.94597223
392.3490355,80.7075448,102.7290995,5.459289161
393.4750684,70.35179014,87.54604174,3.549367247
394.6008954,60.26674655,72.71578281,6.156460632
395.7265166,50.93691792,59.65588799,-6.50
396.851932,42.69600226,49.49216693,-11.45
397.9771418,35.71462073,42.78109172,1.649500016
399.1021459,30.01306266,39.43337473,6.028473127
400.2269444,25.48990041,38.94096781,8.208724041
401.3515374,21.95727109,40.72662805,13.63695641
402.4759249,19.17797439,44.07683387,2.31933597
403.6001069,16.90376507,47.65564241,9.932878765
404.7240836,14.91479177,49.67198252,17.12003668
405.8478549,13.05647847,49.20645388,8.03
406.9714209,11.26532302,47.26772006,17.21934616
408.0947817,9.575272305,46.01899004,17.83939694
409.2179373,8.103475623,46.8726562,20.27419357
410.3408878,7.023128155,49.47107616,31.36834143
411.4636332,6.535279243,52.40356064,27.61448214
412.5861735,6.847691297,54.67192563,31.47827494
413.7085089,8.159897044,56.41257848,29.69731032
414.8306393,10.64751867,58.33642671,25.35634075
415.9525649,14.44035356,60.74703548,24.4472613
417.0742856,19.59426092,63.38340758,14.84873075
418.1958015,26.06176196,66.23659373,18.91562852
419.3171127,33.66975305,70.18471505,18.46903552
420.4382192,42.11442094,76.56016204,20.14077338
421.559121,50.98117553,86.04,22.31460822
422.6798183,59.79078521,97.89870935,12.85047557
423.8003111,68.06382107,110.3186712,23.76406326
424.9205993,75.38677812,121.3824688,24.02660589
426.0406832,81.46089048,129.81,15.36777524
427.1605626,86.12395272,134.9544094,25.33213117
428.2802377,89.34982556,136.6084277,23.59414565
429.3997085,91.23660595,134.8796391,22.94724255
430.5189751,91.9903181,130.03,30.42950504
431.6380376,91.90364633,122.6009873,26.66080641
432.7568959,91.32491108,113.6535186,26.57312261
433.8755501,90.61528122,104.586891,28.6317893
434.9940002,90.10046838,96.48,23.4110884
436.1122464,90.02793998,89.57,20.55737548
437.2302887,90.5381911,83.06821037,19.85324168
438.348127,91.65306653,75.66,25.85973349
439.4657616,93.27868636,66.50525194,27.52478239
440.5831923,95.21715723,55.98305205,14.60563483
441.7004194,97.18272248,45.36825217,12.22942364
442.8174427,98.82314913,35.91212311,5.797688626
443.9342624,99.75096309,28.2787338,2.029944903
445.0508786,99.58809735,22.66342169,8.096977425
446.1672912,98.02157772,19.01177689,-3.86
447.2835003,94.86079932,16.79447951,-0.29
448.399506,90.08353615,14.89171481,2.269928642
449.5153083,83.85875067,12.22775119,-8.56
450.6309072,76.53828287,8.60080529,-3.61
451.7463029,68.61708906,5.022554452,-9.17
452.8614954,60.67130152,3.499382776,-7.21
453.9764846,53.29001323,6.162887393,1.754047858
455.0912707,47.01617312,13.87058243,-1.55
456.2058538,42.30462083,25.290992,1.480949438
457.3202338,39.49636268,37.62047898,-2.54
458.4344108,38.80334238,48.46869389,-6.05
459.5483849,40.29924599,56.95307446,-10.92
460.6621561,43.91689471,63.25087174,-12.31
461.7757245,49.45544064,67.69259554,-2.57
462.8890901,56.59783066,70.31186829,1.977795036
464.0022529,64.93526497,71.03264171,13.85988361
465.1152131,73.9949964,70.27708721,20.49389607
466.2279706,83.26915283,69.15582185,13.18715317
467.3405255,92.24353094,68.61291957,0.293779271
468.4528779,100.4274511,68.36482005,2.768539187
469.5650278,107.386717,66.90648828,8.54199007
470.6769753,112.7780099,62.68508145,5.94
471.7887204,116.3779371,55.45927167,21.44421634
472.9002631,118.0999047,46.86277288,33.21268642
474.0116036,117.9962543,39.67507434,43.35688827
475.1227418,116.2465995,35.98153129,55.54270927
476.2336778,113.1352707,35.52681071,64.80291705
477.3444117,109.0215951,36.17118907,70.7447539
478.4549434,104.3044725,36.36154231,67.43806598
479.5652732,99.38024568,36.61889599,70.11
480.6754009,94.59648288,38.19848396,66.21611897
481.7853267,90.21123287,41.09840773,61.83073539
482.8950506,86.36832215,44.02924878,59.25719207
484.0045727,83.09318657,45.81147615,46.95794532
485.1138929,80.30728242,46.30058519,41.77874736
486.2230114,77.85659546,46.22,37.55271634
487.3319282,75.54993743,46.39,38.93
488.4406434,73.20209631,46.93644612,45.30549065
489.549157,70.67421693,47.17716009,40.46
490.657469,67.90200081,46.47063839,32.22936572
491.7655795,64.90512825,44.97932612,22.62892984
492.8734885,61.77790378,43.42383613,8.719255452
493.9811962,58.66732079,42.06159533,-3.61
495.0887025,55.74817374,40.06827731,8.10
496.1960075,53.2040356,36.25049329,8.005177023
497.3031112,51.21702449,30.62039066,-6.50
498.4100137,49.96375584,24.95047457,11.43689307
499.5167151,49.61500009,21.33026575,17.13491518
500.6232154,50.33740606,20.24056486,13.47713371
501.7295146,52.29316701,20.29779605,19.87989076
502.8356128,55.63243597,19.83461196,15.47196699
503.94151,60.47552851,18.43157468,9.237693682
505.0472063,66.88535744,16.80046912,10.32447064
506.1527018,74.83576571,15.65939223,17.12982731
507.2579964,84.18624447,15.34809453,15.37015456
508.3630903,94.67226385,16.39241396,12.58689451
509.4679835,105.9141707,19.58253229,10.01718881
510.572676,117.4428379,25.05622091,8.488640381
511.6771678,128.7386628,31.57209239,16.21190223
512.7814591,139.2789833,36.93,16.97676207
513.8855499,148.5866804,39.24623844,19.315682
514.9894402,156.271531,38.40975514,18.29497377
516.0931301,162.0566855,36.49012649,3.81
517.1966197,165.786485,36.23830273,5.423271433
518.2999088,167.4191435,38.66232934,11.52108354
519.4029978,167.0129338,42.19239646,5.783667688
520.5058864,164.7113878,44.18453973,14.86784656
521.6085749,160.7261495,43.08514015,15.58368228
522.7110633,155.3137163,39.41583543,-0.87
523.8133516,148.7458187,35.07244469,5.850493889
524.9154399,141.279517,31.85077987,12.4409341
526.0173282,133.1366037,30.73343878,8.658528606
527.1190165,124.4979565,32.28484292,8.154964575
528.2205049,115.5114782,36.84403545,5.57
529.3217936,106.3094413,43.65612968,13.65839699
530.4228824,97.03118695,50.23178798,22.78494276
531.5237715,87.84537428,53.61818989,23.14125637
532.6244609,78.9635497,52.70151398,26.04876662
533.7249506,70.63798246,49.03413383,23.9561069
534.8252408,63.14215048,45.36199375,11.62012101
535.9253314,56.73937105,43.40907338,9.54
537.0252225,51.64956331,42.9013751,11.3899843
538.1249141,48.02231667,42.43291235,5.945163048
539.2244064,45.91882628,41.19442217,7.318039658
540.3236993,45.30205926,40.13800744,2.489418067
541.4227929,46.03468562,41.61505486,-10.80
542.5216873,47.88538225,47.49949715,-1.91
543.6203824,50.54589814,57.38490866,12.17609492
544.7188784,53.66169737,68.63864628,17.55164011
545.8171752,56.8746587,78.01524344,24.28808915
546.915273,59.8705372,83.24131044,29.76609248
548.0131718,62.42205193,83.83359125,31.24912681
549.1108717,64.41984763,81.13119777,21.28308394
550.2083726,65.88675139,77.52193666,25.02513282
551.3056746,66.97537737,75.26541783,13.45232005
552.4027778,67.95171453,75.62447208,-1.92
553.4996823,69.16718989,78.40292013,13.03899561
554.596388,71.02324133,81.89,11.09674705
555.6928951,73.93502382,83.76055836,19.36217431
556.7892035,78.29952633,82.6111819,22.85533532
557.8853133,84.4687503,78.87114806,12.26035543
558.9812246,92.72513818,74.32765816,27.15106456
560.0769375,103.2560221,71.42742541,25.30893388
561.1724519,116.126996,72.94386641,16.73914837
562.2677679,131.2592701,81.27,26.92832888
563.3628856,148.4175137,97.02490983,23.64648805
564.4578049,167.2109659,118.1142763,23.48950263
565.5525261,187.108006,140.3057975,39.69094906
566.647049,207.4643368,159.6550584,39.25689923
567.7413738,227.562567,175.2677484,35.3590958
568.8355005,246.657374,189.8515077,49.06568774
569.9294292,264.0207902,206.80,52.90433347
571.0231598,278.9864353,226.2269626,62.15582532
572.1166925,290.9945246,244.1588956,75.12
573.2100273,299.6362059,255.9810169,66.11702209
574.3031643,304.6882849,259.95,59.62187234
575.3961034,306.1273783,257.2028075,42.63913811
576.4888447,304.1201919,249.4606609,34.83277008
577.5813884,298.9953967,237.6684338,32.34
578.6737344,291.20462,222.4444295,23.71230717
579.7658827,281.279151,204.4844828,36.99901795
580.8578335,269.7891125,184.1781356,29.61346957
581.9495868,257.3092598,161.5134497,18.49
583.0411426,244.3901959,136.7764937,16.7438871
584.132501,231.5314848,111.2716025,6.408252593
585.223662,219.1547354,87.4670168,6.579494546
586.3146257,207.5777885,68.31785165,-3.50
587.405392,196.9951057,55.58831705,-12.84
588.4959612,187.4712508,48.17036674,-4.51
589.5863331,178.9501366,42.39158499,-8.89
590.676508,171.2753835,34.57789204,-9.60
591.7664857,164.2137565,23.74565764,-5.77
592.8562664,157.4766403,12.43113686,-17.23
593.9458501,150.7405332,5.097790276,-5.95
595.0352368,143.6712914,4.862552084,7.596087436
596.1244266,135.9549253,10.732068,1.634363354
597.2134196,127.3329675,18.06229949,17.4496368
598.3022158,117.637921,22.43722202,24.27243083
599.3908152,106.8237015,23.06810884,10.7992066
600.4792179,94.98648669,21.96305455,15.2291479
601.567424,82.37404043,20.60445053,22.82795807
602.6554334,69.3834931,18.75420702,31.55162266
603.7432463,56.54621415,16.00982074,40.43480376
604.8308626,44.49794354,12.68382534,38.10703511
605.9182825,33.93571155,8.746501381,41.68125401
607.005506,25.56553075,3.376343605,42.6915585
608.092533,20.04253896,-3.41,33.46
609.1793638,17.9034973,-9.27,29.29072003
610.2659982,19.4969672,-10.42,20.95668856
611.3524364,24.92586555,-4.29,20.77153885
612.4386785,34.0197278,8.927452681,20.73600837
613.5247244,46.34470142,26.60477798,13.64709204
614.6105742,61.24567883,45.65308091,28.64107282
615.6962279,77.9079016,64.31835756,28.75698767
616.7816857,95.42643056,82.56064443,20.83423607
617.8669475,112.8768613,100.8584528,22.85940758
618.9520134,129.3856422,118.8494339,19.54
620.0368834,144.1979558,135.1399424,26.70698683
621.1215577,156.7339705,148.2062117,15.52847435
622.2060361,166.6199511,157.4200533,1.320659149
623.2903189,173.6885358,163.6476597,6.477184942
624.374406,177.9564083,169.2596411,-6.48
625.4582975,179.5934799,176.9538524,-11.23
626.5419934,178.8922137,187.4732229,2.662274815
627.6254937,176.2377463,198.3468841,5.845052588
628.7087986,172.0764766,205.3460637,10.13837771
629.7919081,166.882431,205.1078125,9.672071585
630.8748222,161.123346,196.5752095,4.945073695
631.9575409,155.2288536,181.3816961,9.119071942
633.0400644,149.5606295,163.8036378,3.07
634.1223926,144.3827958,149.1055727,-7.40
635.2045256,139.8356379,140.1858955,1.823461411
636.2864635,135.9241258,135.7212845,9.995705606
637.3682063,132.5329743,132.1453469,16.63957339
638.449754,129.4666217,127.0977154,14.5326574
639.5311067,126.4985724,120.4653226,10.78843274
640.6122644,123.4150207,112.773729,34.73571984
641.6932273,120.0476045,103.790993,28.18310228
642.7739952,116.2948939,92.88161616,18.40767381
643.8545684,112.1308319,79.99876413,28.68404704
644.9349467,107.5997561,66.00262968,26.08295138
646.0151304,102.8022356,52.21852199,35.64649082
647.0951194,97.87784957,39.77036806,39.95609615
648.1749137,92.98996342,29.33905915,38.51652346
649.2545135,88.3159259,21.48905158,34.1779449
650.3339187,84.04292776,16.92960257,32.39537583
651.4131294,80.36478923,16.00089964,44.94720805
652.4921457,77.47268479,17.7260121,52.29247109
653.5709676,75.53734816,19.75,57.16
654.6495951,74.68757611,19.66864179,63.1266528
655.7280284,74.99177792,16.38321761,53.57393553
656.8062674,76.44550544,10.60329873,45.40046158
657.8843121,78.96483127,4.613217601,47.75830351
658.9621627,82.3863582,1.425332424,31.58371137
660.0398192,86.47727702,2.78404973,33.48885369
661.1172816,90.95917287,7.450323576,54.91705664
662.19455,95.54371664,12.19773715,45.77751336
663.2716245,99.96899609,14.65725766,36.39
664.348505,104.0225462,14.51590861,30.47487796
665.4251916,107.5470844,12.49,23.06254886
666.5016843,110.436582,9.666350084,23.72314854
667.5779833,112.6309742,7.894719467,16.98301617
668.6540886,114.1116139,9.552003683,18.25207135
669.7300001,114.8973466,16.03443106,18.29052464
670.805718,115.0434995,26.39176529,23.8701695
671.8812423,114.6461011,37.71446883,26.62342774
672.956573,113.8488678,47.37,15.00601724
674.0317103,112.8467129,55.10229701,13.74568676
675.106654,111.881783,62.84001541,12.70378844
676.1814044,111.2324941,72.63524019,26.40640326
677.2559614,111.1970568,84.79058552,40.19505081
678.330325,112.0723563,97.59062721,48.19419161
679.4044954,114.1298889,108.4719191,57.74311262
680.4784725,117.5900023,115.3737871,53.3842174
681.5522565,122.5939432,117.1928395,47.26510342
682.6258473,129.1753371,113.9286411,42.00187027
683.6992451,137.2371079,107.4525667,39.53936802
684.7724497,146.5399995,101.562761,33.07954388
685.8454614,156.7054837,99.48528044,35.00144524
686.9182802,167.233622,100.6973638,40.33289608
687.990906,177.5355195,101.1938997,39.70893251
689.063339,186.978382,97.6119819,40.31100847
690.1355791,194.9391287,90.78772308,28.37652341
691.2076265,200.86015,84.9228147,22.10154539
692.2794812,204.298832,83.43582609,34.01167583
693.3511432,204.9638075,85.85125041,45.83606527
694.4226125,202.7345968,88.56760052,35.75894658
695.4938893,197.6634637,88.18305106,26.335866
696.5649736,189.9595562,84.16316118,25.019162
697.6358653,179.9581533,79.0582775,7.953375535
698.7065646,168.0814895,76.43481469,8.38
699.7770715,154.8006642,77.93130165,27.95626731
700.8473861,140.6080824,81.78234721,36.14541236
701.9175084,126.004376,84.21954307,38.08285474
702.9874384,111.4953351,82.35555598,31.45137084
704.0571762,97.58878366,75.92378021,21.21139043
705.1267218,84.78185058,66.7852845,20.71492756
706.1960753,73.5356447,57.12600154,16.15935165
707.2652367,64.24344966,47.97018531,13.35107487
708.3342061,57.20233271,39.36119743,16.57
709.4029835,52.59196025,31.85569115,10.37854143
710.471569,50.45743233,26.89744951,4.580575441
711.5399626,50.69655878,25.02,3.213725887
712.6081643,53.06012671,24.60,8.533504037
713.6761743,57.17244653,23.71321874,13.31288734
714.7439925,62.57057856,22.74178883,9.582563995
715.811619,68.75520213,23.62909547,17.84929578
716.8790538,75.2455829,26.60962896,29.38575062
717.946297,81.63111651,29.10405893,37.71953082
719.0133487,87.61094729,28.66578364,28.00688029
720.0802088,93.01230982,26.24941159,7.784276588
721.1468774,97.78198288,25.6990294,8.09
722.2133546,101.95501,30.02403011,-2.19
723.2796405,105.6140038,38.21706327,0.627019195
724.345735,108.85527,45.66196653,12.66597005
725.4116381,111.7734174,47.9741505,5.986369333
726.4773501,114.4653983,44.87612443,7.776051605
727.5428708,117.0447679,40.44483993,7.327539418
728.6082004,119.6536792,39.69350678,6.13003668
729.6733389,122.4630579,44.82453801,20.56022885
730.7382863,125.6580558,54.11335258,41.53123776
731.8030427,129.413497,63.61572226,43.94089208
732.8676081,133.8666671,69.91860148,51.57979624
733.9319826,139.0904461,72.07763427,60.5153373
734.9961663,145.0660113,71.51487221,52.95445604
736.060159,151.6585202,69.99268243,63.95356907
737.123961,158.6064052,67.84669519,69.72084656
738.1875723,165.5340079,64.42868141,67.88502132
739.2509928,171.98867,59.67172263,73.25806905
740.3142227,177.4971427,54.45690067,74.8036366
741.377262,181.633459,49.79273671,81.02701742
742.4401107,184.0855883,46.31834996,68.93582709
743.5027689,184.7043589,44.28255371,51.44888255
744.5652366,183.5227832,43.23812798,44.01569249
745.6275139,180.7450095,41.72248834,35.85917621
746.6896009,176.7124152,37.8197406,33.21
747.7514974,171.855493,30.44531725,18.74278841
748.8132038,166.6380701,20.30154878,18.21587515
749.8747198,161.4994561,10.06438682,14.14468408
750.9360457,156.7996968,3.704528042,-2.10
751.9971814,152.7728624,4.649992849,7.094495896
753.058127,149.4952107,13.53012543,0.537246906
754.1188825,146.8764468,27.58495932,-5.38
755.179448,144.6777409,42.59407013,4.760842842
756.2398236,142.5515349,55.63399716,-2.10
757.3000092,140.0931564,66.21274797,-2.54
758.3600049,136.8956778,75.09,11.48100387
759.4198108,132.6022762,82.33597576,15.33100443
760.479427,126.9508094,86.57511168,20.85554863
761.5388533,119.805928,86.30661593,25.63372831
762.59809,111.1760977,81.87987335,11.21809064
763.657137,101.2146025,75.92560829,12.15822838
764.7159944,90.20641532,71.60120587,16.84999548
765.7746623,78.54595549,70.503383,4.15
766.8331406,66.71051603,72.14749907,8.788555339
767.8914295,55.23102663,74.90853527,5.434397526
768.9495289,44.65992002,76.95183139,1.405718515
770.0074389,35.53736746,76.46086205,16.80894848
771.0651596,28.35871487,71.99,13.39788264
772.122691,23.54282152,63.58681245,15.50231849
773.1800332,21.39692056,53.72054072,24.95628238
774.2371862,22.07616566,46.40411269,20.03989247
775.29415,25.54498693,44.47869325,16.22994364
776.3509247,31.55616689,47.27947126,27.41057019
777.4075103,39.6635579,51.18,36.53695725
778.4639069,49.27120958,52.86199114,32.67252001
779.5201145,59.70442249,52.32,35.88352803
780.5761332,70.28203933,52.51920405,40.15
781.6319631,80.37771318,55.89078228,49.72543328
782.687604,89.46976297,61.28317791,60.73
783.7430562,97.1813656,64.48198243,62.96838724
784.7983196,103.3055805,61.88472038,56.35061159
785.8533943,107.8062921,53.87757924,52.50125386
786.9082804,110.7931134,45.00,38.38958564
787.9629778,112.4777525,40.63329934,24.77
789.0174867,113.1245477,42.72777635,47.87746053
790.071807,113.009536,48.46941509,45.32520033
791.1259389,112.3983073,53.26336349,29.35317956
792.1798823,111.5428096,54.99330547,29.6700668
793.2336373,110.6894044,54.99276382,20.63695987
794.287204,110.0909526,55.04987883,33.80844652
795.3405824,110.0193467,54.58417597,43.66
796.3937725,110.7727267,51.70351242,40.16528924
797.4467744,112.665938,46.47483971,51.20802155
798.4995882,115.9965871,41.89309775,57.48507643
799.5522138,120.9948349,41.37743184,59.08553851
800.6046513,127.7780533,45.94204696,66.92
801.6569008,136.3286665,54.0550643,76.76074325
802.7089623,146.4977852,63.69067652,75.14279228
803.7608359,158.023575,74.08382398,73.25020183
804.8125216,170.553719,85.70114091,72.35130412
805.8640194,183.6712819,98.93802347,70.48805982
806.9153294,196.9275632,113.2716449,78.22533258
807.9664516,209.8783318,127.9224415,64.1049604
809.0173861,222.1124998,142.8665884,53.96027738
810.068133,233.2672301,158.5904524,63.02280946
811.1186922,243.0351947,175.0412615,59.9186006
812.1690638,251.1733788,191.0723396,53.85277471
813.2192479,257.5163936,204.5469746,54.16841235
