Wavelength,HS_V4S3_AAB_C2_02_I1,HS_V4S3_AAB_C2_02_I2
351.7692476,24.05463121,44.92476422
352.902517,23.29269306,40.72271471
354.0355789,22.58122544,36.77726313
355.1684331,21.92022837,33.08840948
356.3010798,21.30970185,29.65615375
357.4335191,20.74964586,26.48049595
358.5657509,20.24006042,23.56143607
359.6977753,19.78094552,20.89897411
360.8295924,19.37230116,18.49311008
361.9612023,19.01412735,16.34384398
363.0926049,18.70642408,14.4511758
364.2238004,18.44919135,12.81510554
365.3547887,18.24242917,11.43563321
366.48557,14.01004316,12.08189045
367.6161443,12.83582236,7.465435446
368.7465116,4.412535733,0.288511824
369.876672,-1.221945991,-3.365134815
371.0066255,9.403402384,-0.136374122
372.1363723,22.23223659,7.098800874
373.2659122,24.25650794,14.27350082
374.3952455,27.39012756,21.82102651
375.5243721,37.24814029,31.88952008
376.6532921,43.49824475,42.95516339
377.7820055,46.81982041,51.02364273
378.9105124,55.25924973,54.39346286
380.0388129,63.57211714,54.68812569
381.166907,63.08999744,54.8958167
382.2947947,60.25549078,57.8792595
383.4224761,66.59224129,64.15321539
384.5499513,78.30904975,69.99472617
385.6772202,82.093971,70.85693377
386.8042831,74.43342236,66.51362727
387.9311398,63.63987357,59.70849445
389.0577904,55.62420245,51.56795423
390.1842351,45.6424845,41.9784419
391.3104739,31.14858146,32.17266903
392.4365067,20.36577539,23.53997179
393.5623337,16.69229521,15.89557768
394.6879549,14.02122037,9.096160346
395.8133703,11.0483868,4.441699546
396.9385801,12.15349211,3.072567465
398.0635842,17.69341483,4.231186689
399.1883827,19.47875535,5.935736321
400.3129757,11.01617176,7.164438952
401.4373632,4.043085193,8.801200442
402.5615452,10.51083101,11.82053632
403.6855219,17.84068436,15.28990572
404.8092932,14.85721046,17.26187364
405.9328592,11.87526218,16.79224125
407.05622,15.68496147,14.39934098
408.1793756,21.13201067,11.78662425
409.3023261,26.61534144,11.09812057
410.4250715,32.02116737,12.52704192
411.5476118,32.73891537,13.34959816
412.6699472,27.57728433,11.81867063
413.7920776,21.630108,10.51392694
414.9140032,18.38624994,12.95248156
416.0357239,16.47752466,18.879663
417.1572398,14.244927,25.54876554
418.278551,12.5644097,31.86818645
419.3996575,12.67871576,39.69180735
420.5205593,15.30456014,51.42672303
421.6412566,19.99786615,66.09955703
422.7617494,21.21669027,78.86063247
423.8820376,16.6261067,86.27231619
425.0021215,14.97920163,90.55455538
426.1220009,16.85069521,96.88597048
427.241676,15.38074695,107.9060909
428.3611469,18.67858116,120.8954706
429.4804135,28.41827095,129.4737279
430.5994759,30.03842626,129.3190352
431.7183342,27.03870446,122.00158
432.8369884,31.23088278,111.8682455
433.9554385,35.57116373,101.5361814
435.0736847,33.27284709,92.21336776
436.191727,29.20623849,85.1706438
437.3095654,26.29985279,80.09835617
438.4271999,22.9056821,74.31704815
439.5446307,16.05729068,66.13447745
440.6618577,6.916895431,57.16108749
441.778881,3.563503163,49.29462378
442.8957007,6.983841586,41.8014618
444.0123169,8.44025243,33.89234878
445.1287295,9.174073687,27.65743946
446.2449386,15.68524459,25.01940184
447.3609443,20.56541624,23.65378482
448.4767466,16.51687454,19.29006624
449.5923455,10.95252887,11.1858291
450.7077412,12.12278833,3.593914394
451.8229337,18.92044479,2.088262637
452.9379229,25.10500083,8.673124783
454.0527091,27.91740684,19.9767436
455.1672921,29.8591411,29.89590794
456.2816721,32.21004941,34.56639013
457.3958491,35.7351206,35.1218689
458.5098232,38.76715787,35.35074157
459.6235944,33.75199222,37.67762379
460.7371628,22.92925631,42.55723463
461.8505284,20.29566773,49.94643964
462.9636912,25.77759196,58.82230225
464.0766514,25.36205653,66.09586561
465.1894089,17.23324692,68.71766734
466.3019639,13.55679786,67.13861698
467.4143163,20.54698935,64.71817058
468.5264662,31.39616796,63.12567493
469.6384136,39.13606421,60.20146154
470.7501587,44.13094331,53.61762462
471.8617014,45.64197558,45.15810022
472.9730419,41.9467742,39.33475739
474.0841801,38.95706104,37.90876981
475.1951161,41.90251304,37.55292528
476.30585,44.49418479,34.246723
477.4163818,41.11164316,29.05066086
478.5267115,37.35756893,26.77281873
479.6368392,37.51498007,29.20418764
480.746765,37.70457483,33.29354512
481.8564889,36.02968989,35.72769002
482.966011,35.71437337,36.16045375
484.0753312,37.35742862,36.68954731
485.1844497,38.09115457,40.00147407
486.2933665,38.80075182,46.72131769
487.4020817,41.39515421,54.19453642
488.5105953,42.84261532,59.28589484
489.6189073,41.58668908,61.31129642
490.7270178,39.176988,61.2825065
491.8349268,37.75020123,60.31294541
492.9426345,43.61185342,59.01200035
494.0501408,54.50299826,56.72032839
495.1574458,56.07075905,52.40358968
496.2645495,50.22578969,47.21333955
497.3714521,49.45920759,44.05544481
498.4781534,48.83619802,44.20463029
499.5846537,44.18272189,45.54072813
500.6909529,43.36176427,43.65722787
501.7970511,43.13949444,35.45264708
502.9029483,35.21539319,23.05109796
504.0086446,25.27543463,12.22462877
505.1141401,20.09045308,6.033700075
506.2194347,15.81852102,3.113255521
507.3245286,10.12364978,1.964157674
508.4294218,8.084476343,2.560122074
509.5341143,12.19550041,4.145355249
510.6386062,17.79936305,5.21349819
511.7428975,20.4446842,4.933545965
512.8469882,17.44392932,2.610148759
513.9508786,5.727318776,-1.873964744
515.0545684,-6.701611389,-6.024215498
516.158058,-6.032135004,-6.623505303
517.2613472,2.464317262,-3.985025751
518.3644361,6.502600258,-1.493733852
519.4673248,7.742474941,-1.588785266
520.5700133,6.893649255,-3.358741833
521.6725016,3.308368019,-3.32973661
522.7747899,6.377196597,0.396161056
523.8768782,16.46708776,4.764870114
524.9787665,20.41465738,5.256612926
526.0804548,16.75477234,2.192586575
527.1819433,16.3421621,0.094018794
528.2832319,21.06411098,1.307681446
529.3843207,22.40271817,3.864300715
530.4852098,18.65856286,5.556365053
531.5858992,16.93122235,6.668266111
532.6863889,17.81518611,7.879005841
533.7866791,16.29669738,8.119718992
534.8867697,13.53352434,6.07893071
535.9866608,12.52938839,2.715897959
537.0863525,11.38637454,0.594967166
538.1858447,6.346213516,0.388603336
539.2851376,-3.390272194,0.006786591
540.3842312,-9.922383987,-1.533540234
541.4831256,-4.477769166,-1.897317014
542.5818207,6.125946421,1.33328605
543.6803167,11.18999392,7.664002099
544.7786136,13.08380633,14.79865648
545.8767114,14.5666572,21.01048738
546.9746102,13.85088532,26.12633658
548.07231,14.6477594,30.45117452
549.1698109,18.42555676,32.81900542
550.2671129,19.46949273,31.4851522
551.3642162,16.13720667,27.44977776
552.4611206,12.56460621,24.10592622
553.5578263,11.5818087,22.87176377
554.6543334,11.91777047,22.1484401
555.7506418,12.28703259,21.23523483
556.8467516,14.78521265,21.81197982
557.942663,16.66846556,24.30004597
559.0383758,11.12237363,26.15869199
560.1338902,1.733606854,25.35632557
561.2292062,-3.176576809,22.94668851
562.3243239,-4.658256107,21.54854184
563.4192432,-6.36548609,22.84587399
564.5139644,-6.674327405,26.18329273
565.6084873,-3.882679038,29.37109082
566.7028121,-0.313262964,32.05400148
567.7969388,1.933920285,37.76625047
568.8908675,6.61645336,50.3133698
569.9845981,17.05014558,67.75764485
571.0781308,26.46984481,82.73680604
572.1714656,26.88802568,89.8096098
573.2646026,21.8293367,89.92651425
574.3575417,20.4508297,87.3662282
575.4502831,25.76350411,85.14857447
576.5428267,33.30273975,84.08918858
577.6351727,38.67261331,83.68061065
578.7273211,42.52158631,82.43933828
579.8192719,46.16629945,79.32546089
580.9110251,49.00412535,75.68793524
582.0025809,51.13964523,73.33679193
583.0939393,50.73938315,70.62662329
584.1851003,43.69947354,63.93628786
585.276064,32.53546574,53.13713859
586.3668304,25.34906984,42.05471153
587.4573995,23.93260449,33.4838164
588.5477715,25.08249126,27.20111949
589.6379463,26.8833885,22.75784568
590.727924,27.58232192,20.96188419
591.8177047,28.90826721,22.36651973
592.9072884,33.46498475,26.49382555
593.9966751,38.99914893,32.77853761
595.085865,45.21494385,39.85913958
596.1748579,51.56373743,43.7344061
597.2636541,50.61995271,40.83147297
598.3522535,40.29569264,34.02192334
599.4406563,31.47378569,31.034524
600.5288623,34.74480514,35.64327312
601.6168717,45.75401867,43.6353309
602.7046846,50.08745441,48.22064629
603.7923009,44.59650605,46.81230888
604.8797208,39.86674303,41.52295807
605.9669443,37.18009019,35.42782103
607.0539713,27.70967821,30.42321332
608.1408021,15.0161737,27.29575552
609.2274365,9.279538584,26.12852071
610.3138748,6.513505387,27.47058385
611.4001168,0.949295596,33.49709366
612.4861627,-0.177767153,46.04309143
613.5720125,5.103736189,63.13750504
614.6576662,8.500594655,80.10667951
615.743124,11.0511795,94.4244658
616.8283858,19.60289182,106.7066035
617.9134517,30.61809494,117.0494809
618.9983217,33.83492235,123.4473149
620.082996,27.33196754,124.5958016
621.1674744,21.66642653,121.8046705
622.2517572,22.85690904,117.5052375
623.3358443,22.82258061,114.3870695
624.4197358,17.36563132,115.5838776
625.5034317,14.5777602,121.5151775
626.586932,17.36716878,126.5467764
627.6702369,16.98416637,123.2170191
628.7533464,9.976828638,110.2905026
629.8362605,3.677208345,93.24032366
630.9189792,0.013858926,77.50989369
632.0015027,-6.130460447,65.46416627
633.0838309,-10.50862341,58.81468058
634.1659639,-4.596598897,58.29461073
635.2479018,4.394369238,60.81290734
636.3296446,3.41720058,62.01051165
637.4111923,-1.338676671,61.78236389
638.492545,2.388133213,62.62223154
639.5737027,8.107265011,63.3521391
640.6546656,9.355740502,60.43084455
641.7354335,14.10518765,54.60471735
642.8160067,20.43966225,50.59242282
643.8963851,20.32099805,51.0409551
644.9765687,21.08847122,54.38282663
646.0565577,27.24311946,57.82673213
647.136352,30.27267947,60.34334348
648.2159518,27.38920338,62.51225076
649.295357,22.22096942,64.72196159
650.3745677,15.94721423,66.41494747
651.453584,10.32225482,66.30623182
652.5324059,7.453741485,63.51016037
653.6110335,4.911363558,59.62424824
654.6894667,1.133534349,57.98803498
655.7677057,-0.885065612,59.36133077
656.8457504,-2.657469845,61.50342188
657.923601,-4.659743142,64.34406017
659.0012575,1.714516106,70.15311155
660.07872,12.64864158,76.88795618
661.1559884,11.87330735,78.33159561
662.2330628,4.191467877,73.02243864
663.3099433,4.766601785,66.31859988
664.3866299,7.353219604,62.1022669
665.4631227,4.539216054,58.78840856
666.5394216,5.535790332,54.72832202
667.6155269,11.13844157,51.58473076
668.6914384,12.92384824,50.59792894
669.7671563,13.84741255,49.20503668
670.8426806,16.2141987,43.18711456
671.9180114,12.0202476,31.74030907
672.9931486,1.449086584,19.42182773
674.0680924,-4.58899246,11.81175574
675.1428427,-2.024243775,10.27143087
676.2173997,3.525510457,12.67970033
677.2917633,7.29743244,17.42065966
678.3659337,9.420687264,24.37762708
679.4399109,13.12290858,33.10096255
680.5136948,20.76170567,41.05767917
681.5872856,26.48212308,44.33637417
682.6606834,22.09794193,42.23891956
683.7338881,14.95033279,40.38980572
684.8068997,18.76446643,45.42174553
685.8797185,30.49522826,56.88137963
686.9523443,40.71423158,67.81338342
688.0247773,47.29732958,72.90904656
689.0970174,48.77547639,73.59662883
690.1690648,51.6763858,74.96385257
691.2409195,66.56848095,78.53489684
692.3125815,81.89950843,79.82367279
693.3840508,80.89252451,74.33458926
694.4553276,72.88800602,63.4670722
695.5264119,70.86668083,52.57135419
696.5973036,72.13774931,46.35803362
697.6680029,76.90556242,47.49347907
698.7385099,88.24352103,55.44454771
699.8088244,99.46024303,65.12469087
700.8789467,103.9893178,70.25178012
701.9488767,104.0513729,69.3302226
703.0186145,103.4551595,65.70764825
704.0881601,103.8416731,62.48651217
705.1575136,106.6769522,60.5233632
706.226675,108.1119634,59.5040158
707.2956444,100.5239854,58.23733365
708.3644218,89.00609539,56.30884235
709.4330073,86.39185326,55.92606491
710.5014009,90.86248339,58.60452158
711.5696026,92.43791053,61.09475861
712.6376126,87.42150169,59.41919777
713.7054308,76.48526084,56.23587119
714.7730573,69.82595544,58.51062435
715.8404921,76.48494973,66.43419283
716.9077353,79.71086632,70.25006603
717.974787,62.88837499,62.44504396
719.0416471,41.27232661,48.78624777
720.1083157,31.84100821,41.82543276
721.1747929,30.7445557,46.56383898
722.2410788,30.53770688,57.04356382
723.3071733,26.98953664,64.62403741
724.3730765,19.42679092,65.63549373
725.4387884,11.55775556,61.70844402
726.5043092,4.993264241,56.53116791
727.5696387,1.61997332,53.80589128
728.6347772,3.199167217,55.72151333
729.6997246,5.869653934,61.36052793
730.764481,9.18464283,66.99799048
731.8290465,14.15550116,68.6130498
732.893421,13.44385641,64.95263891
733.9576046,7.332476942,58.41899413
735.0215973,5.53475582,52.03745761
736.0853993,6.06794205,46.7492533
737.1490106,4.195083321,43.23681211
738.2124311,5.934107992,43.45151617
739.275661,14.03660962,46.91232977
740.3387003,20.90746389,47.85701592
741.401549,19.15713575,40.70760651
742.4642072,13.41878807,27.98382446
743.5266749,15.44738929,18.54995757
744.5889522,22.76672059,17.24756153
745.6510392,23.7571111,19.93543458
746.7129358,20.87991673,19.93972512
747.7746421,19.83943166,15.90570984
748.8361581,17.98840057,11.66841045
749.897484,18.45306056,10.731212
750.9586197,24.13269308,13.02953762
752.0195653,31.10227399,17.43774299
753.0803208,43.30780817,25.08491449
754.1408863,63.40029811,37.39296207
755.2012619,83.96689901,52.10066905
756.2614475,102.3060226,64.16514873
757.3214432,115.6119642,70.88398463
758.3812492,119.5521126,74.6076305
759.4408653,120.9873391,79.4295731
760.5002916,124.5163847,86.48365988
761.5595283,125.3748039,93.96159358
762.6185753,123.289918,99.32897195
763.6774327,119.4747957,99.69727577
764.7361006,110.7028437,92.91395902
765.7945789,96.35027387,80.6604131
766.8528678,82.5823321,69.0740323
767.9109672,74.0077508,64.03215917
768.9688772,63.68998606,65.2651571
770.0265979,46.6160768,66.4001243
771.0841294,31.81360824,61.25583901
772.1414715,21.70552284,49.82352412
773.1986245,7.172798167,38.89222734
774.2555883,-7.882490546,36.14894048
775.312363,-10.81253555,42.30119853
776.3689486,-2.151143732,50.6459363
777.4253452,9.600521218,55.1458456
778.4815529,18.93747574,56.57857732
779.5375716,24.46214309,60.04978082
780.5934014,30.61674608,67.91451938
781.6490423,40.09882809,76.73994238
782.7044945,47.61392252,81.97686004
783.7597579,50.60794899,83.54064935
784.8148327,51.4183434,84.68179961
785.8697187,51.01843564,87.205221
786.9244161,53.7851444,89.95324457
787.978925,62.68232008,90.71430917
789.0332454,69.98712543,88.41538535
790.0873772,69.43678541,84.32163563
791.1413206,65.87911564,81.34745339
792.1950757,65.01987015,81.22684374
793.2486423,64.68229991,82.19417321
794.3020207,61.36491684,80.37352537
795.3552108,56.87272963,73.36851065
796.4082127,50.88368215,61.72322425
797.4610265,40.61161028,48.27830322
798.5136521,30.90114063,36.82547315
799.5660896,28.07984762,28.94177918
800.6183391,30.91048486,21.86893818
801.6704006,34.07322501,12.05250279
802.7222742,30.34708709,0.983878468
803.7739599,20.69813042,-4.765379229
804.8254577,18.92224877,-0.905571678
805.8767677,26.38621421,9.226547966
806.9278899,30.28282234,19.83689997
807.9788245,33.5985853,30.35300039
809.0295713,46.47048012,43.78416514
810.0801305,63.48728353,60.58956333
811.1305021,75.96577554,77.82758234
812.1806862,84.13445792,92.12450644
813.2306828,90.59599979,101.4398419
814.2804919,93.64520486,105.3724389
815.3301136,91.97386661,105.6639434
816.379548,92.0379292,105.704132
817.428795,99.2091249,107.8689862
818.4778548,110.1099426,112.2457802
819.5267273,121.8080213,117.9529349
820.5754126,133.6500574,122.7014706
821.6239108,142.2862526,121.8944627
822.6722219,144.2544457,112.5234925
823.720346,138.7772516,97.93004791
824.768283,131.6607948,85.53975101
825.8160331,132.2667793,79.7715843
826.8635963,138.2301336,79.00066069
827.9109725,140.2500539,79.17962582
828.958162,140.5310611,77.91579323
830.0051647,141.5029049,75.35475221
831.0519806,137.7459375,74.64364024
832.0986098,138.7768335,80.26576391
833.1450524,156.729711,91.36770108
834.1913083,172.6905776,99.52754728
835.2373777,165.8741491,97.82896227
836.2832606,149.0817148,87.98494735
837.328957,137.3546511,74.96286635
838.3744669,122.781059,60.65417145
839.4197905,103.2250283,46.69500535
840.4649277,95.18529272,37.68956368
841.5098787,102.6271568,37.23093692
842.5546433,110.9770005,43.78595019
843.5992218,114.9049354,51.93505292
844.6436141,115.2962608,55.25286057
845.6878203,105.1101961,50.07433061
846.7318404,85.13140298,39.87639897
847.7756744,68.02969199,33.01043598
848.8193225,59.99547488,33.4821584
849.8627846,57.5439736,37.1056077
850.9060608,55.60454246,38.55413084
851.9491512,51.99445954,38.17528263
852.9920557,48.38274908,39.32610396
854.0347745,45.18478317,42.88917438
855.0773075,39.51728855,47.55235867
856.1196549,33.41404591,52.42450509
857.1618166,33.06975232,56.39043162
858.2037927,33.83588344,57.12454165
859.2455833,27.37288766,53.8568337
860.2871883,21.60971097,49.60748727
861.3286079,22.89839547,47.33513164
862.3698421,18.400476,45.62219988
863.4108909,3.424205063,41.80698989
864.4517544,-4.169142301,37.27050196
865.4924326,5.300375525,35.71087828
866.5329255,17.65508092,37.76595357
867.5732333,21.16263946,40.62317022
868.6133559,19.87823377,41.75307634
869.6532933,18.63420085,40.95538943
870.6930457,20.06068253,39.62095657
871.7326131,27.18234104,38.7760693
872.7719955,35.0927146,37.79113827
873.811193,36.05018514,35.75485265
874.8502055,34.47855625,33.59550068
875.8890333,35.54900426,32.97083494
876.9276762,32.38255476,33.51018464
877.9661343,26.55770141,33.09092496
879.0044077,27.56952937,30.44255924
880.0424965,27.89740132,26.88712935
881.0804006,22.83246647,26.02942818
882.1181201,26.38444704,30.08580303
883.1556551,36.19850642,36.18996492
884.1930056,34.62407953,39.98674277
885.2301717,26.76964825,42.19746101
886.2671533,27.32747146,46.43574089
887.3039505,32.08896535,51.8499379
888.3405634,32.66575346,53.6782219
889.3769921,33.79549131,50.88120982
890.4132365,43.81506298,48.52619561
891.4492967,58.93136167,51.55875293
892.4851727,66.93899763,59.65182848
893.5208646,69.6255659,68.8621258
894.5563725,81.58806152,74.99118422
895.5916964,100.4007683,75.37691029
896.6268362,107.7909887,70.89280484
897.6617922,102.7912116,65.58094226
898.6965642,101.5774783,61.57606829
899.7311524,105.3301447,56.22278864
900.7655568,98.93602185,46.90165921
901.7997774,85.57120058,36.0813403
902.8338143,85.03768981,27.94626917
903.8676675,90.07629893,22.60448475
904.9013371,79.96496636,18.30905784
905.9348231,67.75131003,15.96905621
906.9681256,69.01043662,15.78686011
908.0012446,66.6145279,14.6564448
909.0341801,54.65351062,12.12073909
910.0669322,53.94202151,12.12380811
911.0995009,64.36505148,15.45610457
912.1318863,63.22847775,17.72589692
913.1640883,51.81398584,16.67976851
914.1961072,50.50479324,15.40921714
915.2279429,57.66441651,17.29968891
916.2595954,58.18695592,22.10281678
917.2910647,53.2721022,27.19979927
918.3223511,51.94852531,29.77300171
919.3534543,54.09799407,28.3074643
920.3843747,52.39422345,24.10439919
921.415112,42.51433494,20.53961023
922.4456665,32.28305153,19.23220894
923.4760381,30.53395743,17.95830979
924.5062269,28.92658585,14.22654348
925.5362329,19.2322935,9.363754009
926.5660562,11.96568451,5.578621975
927.5956968,9.929961108,0.949331523
928.6251548,-1.488538044,-7.021573927
929.6544302,-17.08897911,-14.4586502
930.683523,-16.15224196,-14.86479876
931.7124333,-6.922334955,-8.981922537
932.7411612,-8.654200977,-3.728913159
933.7697066,-13.08420924,-2.860199101
934.7980697,-11.16455445,-4.611294626
935.8262504,-11.68926313,-5.472944041
936.8542488,-14.26066502,-2.232068774
937.8820649,-9.134056304,6.067844176
938.9096989,1.164869468,15.85220579
939.9371506,6.285970521,21.5041395
940.9644203,5.192892048,21.98916374
941.9915079,4.326910833,23.01842737
943.0184134,6.030308612,30.35392018
944.0451369,12.73236136,42.87107835
945.0716785,23.72617447,54.38633478
946.0980382,26.04573205,60.59140664
947.124216,18.96394584,62.2510003
948.1502119,19.07416243,62.12542866
949.1760261,22.27271025,61.4764604
950.2016586,14.46605096,61.51835503
951.2271093,7.500255461,65.02899198
952.2523784,13.10262999,73.18306315
953.2774659,19.948157,82.99010165
954.3023718,20.40973855,89.31812192
955.3270962,16.3654116,88.37631629
956.3516391,8.191628142,81.22685695
957.3760006,6.979667582,74.71840115
958.4001806,23.01700157,75.35874384
959.4241793,40.1037265,83.06493067
960.4479967,44.92673631,94.77556435
961.4716329,53.95947775,109.8213287
962.4950878,77.26913486,126.2185855
963.5183615,97.60295773,137.0474296
964.541454,101.0322916,137.3934609
965.5643655,97.01364335,132.0451495
966.5870959,100.8947356,130.5658364
967.6096453,112.3651817,135.6267243
968.6320137,121.4524924,140.94311
969.6542011,122.3126865,140.2738501
970.6762077,114.8378055,133.9660508
971.6980335,106.6313127,126.2577897
972.7196784,103.8076659,119.5215065
973.7411426,99.59569443,113.1746209
974.762426,91.35122941,107.2055082
975.7835288,86.72273526,102.9064951
976.804451,82.7670311,98.43217165
977.8251925,70.1213498,87.69847657
978.8457535,50.01597373,67.12207615
979.866134,29.32945128,41.80838808
980.886334,16.06563846,22.62691617
981.9063536,16.70456204,16.56491067
982.9261929,23.20708704,20.38921677
983.9458517,19.05882368,25.01238522
984.9653303,9.035670359,25.89849243
985.9846287,12.95588475,25.34898491
987.0037468,21.79043192,24.4182841
988.0226847,10.80808004,20.44606783
989.0414426,-6.792080506,14.42370232
990.0600203,-1.732378239,12.11776422
991.078418,18.55972442,15.85172
992.0966357,30.27701939,21.37594551
993.1146734,32.19450737,23.3926101
994.1325312,34.64121289,20.66104222
995.1502092,38.75619634,15.88372019
996.1677073,41.82734818,12.45902669
997.1850256,43.25995942,11.77887966
998.2021641,40.22533849,13.29970292
999.219123,34.22108239,16.41991214
1000.235902,31.61714706,21.03571135
1001.252502,29.92776148,26.83073578
1002.268922,27.47207284,34.28885221
1003.285162,31.75064911,45.70098213
1004.301223,40.14283825,62.84549089
1005.317105,44.65769027,84.27019051
1006.332807,49.47011641,105.8789119
1007.348329,54.11154177,123.915115
1008.363673,50.23772585,138.042562
1009.378837,47.13895917,151.5013893
1010.393822,54.75486288,167.0463486
1011.408627,59.12381173,184.6879409
1012.423254,61.83137137,204.5399984
1013.437701,87.91361858,226.1490551
1014.45197,125.2590946,243.420458
1015.466059,136.969703,247.9515531
1016.479969,129.784981,238.762685
1017.4937,132.3716099,222.9442641
1018.507253,141.5726247,207.8800946
1019.520626,146.8492725,196.7204454
1020.533821,156.4960186,188.5891312
1021.546837,169.5590716,180.4757333
1022.559674,176.4357597,170.6034941
1023.572333,187.6142517,159.6849838
1024.584812,208.3102114,147.9928987
1025.597114,218.7264854,135.2473424
1026.609236,218.6888871,124.2412992
1027.62118,227.132991,117.8310162
1028.632946,233.5712394,111.8461764
1029.644533,221.2671421,98.38180573
1030.655942,202.1896626,76.50131274
1031.667172,185.5063986,54.57647111
1032.678224,169.068281,41.45707486
1033.689098,160.3077558,37.58645208
1034.699793,156.1042304,36.65905219
1035.710311,142.9148563,35.16130966
1036.72065,129.8095583,34.92477281
1037.730811,123.4420012,35.61590593
1038.740794,102.4347718,33.05186077
1039.750599,66.22317579,27.2483918
1040.760225,46.65412685,23.85974471
1041.769674,48.47341046,25.85003752
1042.778945,48.8189387,30.74493858
1043.788039,45.09578213,35.96405563
1044.796954,44.70606603,40.27747888
1045.805692,41.02788542,41.58337197
1046.814251,32.4531528,38.93605
1047.822633,29.07494022,35.02666587
1048.830838,31.92615677,33.441732
1049.838865,33.92687997,35.37256086
1050.846714,36.38408823,39.14826169
1051.854386,41.90391248,40.60848013
1052.86188,46.64951469,36.13583572
1053.869197,54.4731151,27.89228405
1054.876336,72.84841384,22.8882469
1055.883298,97.68274031,24.74042608
1056.890082,124.3108058,29.27533034
1057.89669,152.4057274,30.8409753
1058.90312,179.0295906,31.36916035
1059.909373,210.1020162,39.30410863
1060.915448,258.999259,59.2156925
1061.921347,323.0138421,86.80230559
1062.927068,385.8572105,115.346398
1063.932613,444.2625984,142.7925262
1064.93798,507.1939163,170.3564269
1065.943171,572.7070866,198.0260053
1066.948184,630.5214224,224.8849672
1067.953021,675.3513815,251.0725458
1068.957681,707.6687515,276.2294229
1069.962164,732.0812405,297.9680538
1070.96647,745.5660502,313.4321176
1071.9706,741.1277989,321.0502985
1072.974553,724.5034942,320.147838
1073.978329,694.9748063,310.1624793
1074.981929,642.3558877,292.3161438
1075.985352,580.7061602,270.9468987
1076.988598,528.5328281,249.4819653
1077.991668,470.6433752,226.1000185
1078.994562,391.4361364,197.1233961
1079.99728,305.8193747,163.2643938
1080.99982,229.1333554,129.8381378
1082.002185,164.5615641,102.6885471
1083.004374,116.3650589,84.44703218
1084.006386,80.03633955,72.75594251
1085.008222,47.86922696,63.03768073
1086.009882,23.81727199,53.32155586
1087.011365,5.896273133,44.91950177
1088.012673,-8.551025158,40.05199085
1089.013805,-6.55446794,39.78877641
1090.01476,11.73204404,42.69188659
1091.01554,27.44307687,45.70073192
1092.016144,34.51975452,46.58603154
1093.016572,40.78571285,44.92111992
1094.016824,50.12595099,41.74580754
1095.016901,57.93201157,39.29198791
1096.016801,62.09390796,40.16663575
1097.016526,67.74164384,44.76241264
1098.016076,72.17486416,49.39423819
1099.015449,68.17224381,49.46074375
1100.014648,60.5514266,44.38406865
1101.01367,52.71722915,37.35840797
1102.012517,39.31615206,32.26286517
1103.011189,27.56206619,33.04101471
1104.009685,29.36397091,42.71742461
1105.008006,38.07726161,60.12262221
1106.006152,44.67849471,79.9613524
1107.004122,49.43422863,97.35648306
1108.001917,49.00010467,110.660371
1108.999537,42.9319089,120.683895
1109.996982,38.11553065,129.6322808
1110.994251,36.6092106,139.9426805
1111.991346,38.68987702,151.1300647
1112.988265,42.55558865,158.1862841
1113.98501,39.0419842,156.8886189
1114.981579,28.02028838,150.3243042
1115.977974,18.72603735,145.734085
1116.974193,12.29441081,145.528693
1117.970238,8.247381848,145.7177441
1118.966108,6.816855907,142.055007
1119.961804,4.96047627,133.5543795
1120.957324,9.75621183,120.4426822
1121.95267,29.78836716,103.3722287
1122.947841,59.95468252,86.97863569
1123.942838,99.1986681,80.28874908
1124.93766,154.1547816,89.15095628
1125.932308,224.7141898,110.2850496
1126.926781,309.0033297,135.6737329
1127.921079,401.771038,160.5497572
1128.915204,494.0366809,185.916772
1129.909154,592.9647999,215.7856142
1130.902929,709.6615541,252.0723256
1131.896531,830.6133256,291.4802869
1132.889958,937.8176395,329.5909152
1133.883211,1034.687355,366.9224814
1134.876289,1128.059073,405.6429109
1135.869194,1212.21439,441.7188377
1136.861924,1279.930361,467.8114956
1137.854481,1327.109904,483.1829002
1138.846864,1350.004792,492.7932728
1139.839072,1351.017081,496.4546757
1140.831107,1336.946604,486.2823821
1141.822968,1305.861473,457.433919
1142.814655,1251.519069,417.0806069
1143.806168,1187.643549,378.9659871
1144.797507,1137.180308,349.3914624
1145.788673,1087.418708,321.9266782
1146.779665,1007.25901,288.3103524
1147.770483,907.0990117,250.1509681
1148.761128,820.5862833,214.0894236
1149.751599,749.3125707,179.9342982
1150.741897,672.9738646,142.2609336
1151.732021,586.6804194,101.7214298
1152.721972,504.1739037,67.05298368
1153.71175,437.4306853,45.72827799
1154.701354,385.5424644,37.31267669
1155.690785,341.3532872,36.47474953
1156.680042,299.5275388,39.72948875
1157.669126,261.9786572,47.8917076
1158.658037,233.6010929,62.47878959
1159.646775,213.6123038,81.98686889
1160.63534,200.8241817,102.3075925
1161.623732,190.2591246,118.3479254
1162.611951,171.5239797,126.0437655
1163.599996,148.7052853,125.3878491
1164.587869,131.582434,120.6661916
1165.575569,114.6332143,117.6959742
1166.563096,96.63999724,121.4280111
1167.55045,90.97663669,132.9777289
1168.537632,97.20964253,146.4234874
1169.52464,90.17772861,151.6429542
1170.511476,57.51398127,144.8500387
1171.498139,29.85008174,134.365005
1172.48463,35.05944007,130.8230886
1173.470948,48.71776384,134.8699278
1174.457093,43.25302404,140.6459603
1175.443066,35.72469871,146.2298035
1176.428867,39.97422872,154.183739
1177.414495,44.85588272,167.3081661
1178.399951,57.16573844,187.4360649
1179.385234,86.90906804,212.3019137
1180.370345,113.1518544,233.4738491
1181.355283,120.7495227,243.4097425
1182.34005,122.0396425,243.3319444
1183.324644,128.7423378,240.7306443
1184.309066,143.2050522,240.866135
1185.293316,163.066,242.4518787
1186.277394,180.7767113,240.3456387
1187.2613,188.5425982,230.7973796
1188.245034,185.4874976,215.0971395
1189.228596,179.9802304,198.9099708
1190.211986,178.3232528,186.2559089
1191.195204,178.2164877,175.4721172
1192.17825,176.306803,163.2642732
1193.161125,170.5952557,149.9931825
1194.143827,167.0644808,138.8665742
1195.126358,177.2059677,131.3934593
1196.108718,191.9804636,125.0345091
1197.090905,190.5368787,116.2780887
1198.072921,179.3319946,105.5101727
1199.054766,177.3123121,96.89745864
1200.036439,179.7008916,94.52822186
1201.01794,179.0566277,100.2397318
1201.99927,186.1645035,112.0265667
1202.980429,202.791434,123.1692206
1203.961416,212.940291,127.5184493
1204.942232,211.3924726,127.7369501
1205.922877,213.8224941,135.5133786
1206.90335,235.1154297,161.0798484
1207.883652,271.9912139,201.3048714
1208.863783,307.1738905,238.9391421
1209.843743,319.481095,256.9674914
1210.823532,302.0962668,255.0561405
1211.80315,279.8715508,248.6673569
1212.782596,279.8012179,250.1672976
1213.761872,291.5479828,255.8276058
1214.740977,292.9779389,254.8317038
1215.719911,284.9143838,244.7933663
1216.698674,277.5307243,232.4923097
1217.677266,274.826429,222.3397006
1218.655688,270.9880359,209.895874
1219.633938,254.3383491,188.6604372
1220.612018,227.633892,160.2151566
1221.589928,205.3892271,134.1667434
1222.567667,191.6814921,119.1757312
1223.545235,186.1691038,115.9507603
1224.522632,190.6501585,117.6976895
1225.499859,195.895112,116.487432
1226.476916,192.1126152,110.4702441
1227.453802,186.7998822,105.1176879
1228.430518,188.4762641,107.1383463
1229.407064,193.3019524,118.6441233
1230.383439,198.1469689,136.4495685
1231.359644,202.0706109,153.3037634
1232.335678,195.4684109,160.5018684
1233.311543,170.9944425,154.193127
1234.287237,140.2656712,139.5582714
1235.262761,121.1893006,125.7578384
1236.238115,114.5240411,117.0988371
1237.2133,107.8479899,111.2751243
1238.188314,98.55741223,105.0992566
1239.163158,96.35052048,99.63041378
1240.137832,104.4624903,98.49999613
1241.112336,114.4997234,101.0040912
1242.086671,114.705257,99.41454414
1243.060836,100.6020376,86.67169671
1244.034831,83.95550002,65.83325904
1245.008656,76.70650288,48.18838021
1245.982311,76.69708788,41.9754154
1246.955797,84.88161991,45.40317182
1247.929113,100.9123176,50.19944759
1248.90226,108.6652908,50.00382698
1249.875237,106.3497539,45.73308843
1250.848045,113.7920313,43.46126765
1251.820683,129.6670188,46.99285956
1252.793152,134.1502927,54.40640169
1253.765451,131.3464484,62.53371259
1254.737582,137.7804484,71.16079153
1255.709542,145.9345705,81.21281904
1256.681334,144.8952667,92.11166463
1257.652956,146.3238028,101.8423519
1258.624409,153.2709546,107.998711
1259.595693,151.0935803,110.2588007
1260.566808,144.9480486,112.6116115
1261.537754,150.6811098,119.7855627
1262.508531,162.1907839,130.9990611
1263.479139,166.2246844,139.6889041
1264.449577,159.144214,139.4085378
1265.419847,142.2288807,129.4634092
1266.389948,124.0883101,115.7881661
1267.359881,113.9693669,106.8180745
1268.329644,110.0008054,107.5990867
1269.299239,109.8991591,116.249585
1270.268665,115.0105004,125.8001364
1271.237922,116.6959048,130.4104212
1272.207011,107.5210731,129.3932572
1273.175931,96.98464279,124.6831315
1274.144682,92.91122785,116.7007572
1275.113265,88.21548945,104.9140501
1276.08168,77.42011296,91.72438933
1277.049926,69.37024529,83.60697181
1278.018003,74.58727359,86.36413809
1278.985912,87.35200012,98.36985177
1279.953653,97.32580154,109.9728325
1280.921226,103.5568739,111.2478061
1281.88863,99.18733473,101.1099882
1282.855866,81.88227016,88.77807613
1283.822934,73.851919,83.81378801
1284.789834,82.32728164,84.31199975
1285.756566,82.63511443,80.15493825
1286.723129,68.49076446,67.83456695
1287.689525,60.18562615,55.01400458
1288.655752,64.06389586,50.82679741
1289.621812,72.26651141,57.85117484
1290.587704,88.37995981,72.11567386
1291.553428,116.3510983,85.83371922
1292.518984,139.5374431,92.24778927
1293.484372,146.614099,91.95424838
1294.449592,155.0717956,91.38820837
1295.414645,173.9772221,92.3185771
1296.37953,184.5874251,88.38606524
1297.344247,180.5035244,75.4113648
1298.308797,175.819021,59.66363957
1299.27318,178.3508197,51.96159327
1300.237394,190.2956312,56.32981085
1301.201441,207.5336017,67.39455189
1302.165321,217.5303182,77.18640458
1303.129034,221.503997,80.72688314
1304.092578,226.2210764,76.16199856
1305.055956,218.3042375,65.44005673
1306.019166,194.6201994,54.68373303
1306.982209,179.1379864,47.73319202
1307.945085,172.4548935,41.30677391
1308.907794,151.6200083,32.63204036
1309.870335,127.18751,26.19624597
1310.83271,122.6010332,25.68677324
1311.794917,121.5163416,26.75133157
1312.756957,105.7386921,24.58150559
1313.718831,94.31757889,20.61931238
1314.680537,94.82378677,17.00913119
1315.642076,86.63726669,12.83799501
1316.603449,72.94079161,8.531908217
1317.564654,70.54156081,6.962006926
1318.525693,66.2748193,10.50023089
1319.486565,53.37941387,20.60558999
1320.447271,54.90854598,35.80193923
1321.407809,69.42924986,49.43853818
1322.368181,71.14512026,56.40544947
1323.328387,63.37946342,60.79030241
1324.288426,64.9303083,70.35863736
1325.248298,78.93352952,86.15510379
1326.208004,100.9855809,102.7930084
1327.167543,119.5430568,116.5613274
1328.126916,125.9051177,128.3446279
1329.086122,129.2790718,138.8721094
1330.045162,131.26108,146.7473295
1331.004036,121.9458247,153.5235825
1331.962744,112.9179584,164.2665657
1332.921285,120.7428849,179.0619206
1333.87966,133.1151176,189.9588505
1334.837869,132.0100006,190.2860747
1335.795912,123.0238383,182.1679731
1336.753788,117.0790492,171.9823004
1337.711499,109.1167752,163.4114599
1338.669043,98.24398916,158.7127189
1339.626422,99.21926716,161.9242761
1340.583635,111.161768,174.7524667
1341.540682,118.4231806,191.1028036
1342.497562,122.5199484,199.5258255
1343.454278,123.4907812,191.5435948
1344.410827,106.8425676,169.6688832
1345.36721,81.89994703,147.6644003
1346.323428,73.92532356,137.7963806
1347.279481,80.44768789,137.9525168
1348.235367,85.91440957,137.4452693
1349.191088,88.3112688,132.1906362
1350.146643,90.28891804,125.8900448
1351.102033,92.5502771,120.2098158
1352.057258,91.43285528,114.0376045
1353.012316,87.41827271,110.9857005
1353.96721,99.24017001,116.8665525
1354.921938,134.5395077,128.4895879
1355.876501,166.8280227,134.6243123
1356.830898,177.390667,129.459344
1357.785131,177.4942136,117.1230395
1358.739198,175.0118163,104.120624
1359.693099,167.1000045,94.8897327
1360.646836,160.8774936,92.23574965
1361.600408,164.4447557,95.60376642
1362.553814,168.7775852,100.4088578
1363.507055,161.7839323,101.5644788
1364.460132,147.4271551,96.31720048
1365.413043,132.6720328,84.88665673
1366.36579,113.6628475,70.63442223
1367.318371,89.08488903,58.24435077
1368.270788,65.72480664,50.27881224
1369.22304,47.93489643,45.48693398
1370.175127,35.4145338,40.31190401
1371.12705,22.29981995,32.89772053
1372.078808,3.634421161,25.79468166
1373.030401,-9.316756694,22.84903014
1373.981829,-6.505912406,24.29447316
1374.933093,0.216443542,29.07394803
1375.884192,8.290057635,40.51038205
1376.835127,36.70999416,62.7455546
1377.785897,85.39883481,92.42538048
1378.736503,133.1211586,121.1551966
1379.686945,173.7730652,145.6762875
1380.637222,216.2269119,170.1841495
1381.587335,264.3730263,199.4297891
1382.537283,315.0586596,233.0702104
1383.487067,363.0615512,266.508686
1384.436687,405.7403712,295.4464372
1385.386143,443.6041787,317.870261
1386.335435,472.5317901,330.9816313
1387.284562,485.8634847,330.5637482
1388.233526,486.7966975,317.3332468
1389.182325,484.6618749,299.4076226
1390.130961,479.6045795,284.2426832
1391.079432,463.7883613,271.2612809
1392.02774,435.5959305,254.3152165
1392.975883,397.3264864,229.1142563
1393.923863,345.9224617,197.7150991
1394.871679,288.7417057,166.7266963
1395.819332,245.0050539,140.6086337
1396.76682,209.8736657,117.7098992
1397.714145,164.7343368,95.18312376
1398.661306,122.596876,74.90378526
1399.608304,102.781229,60.11205117
1400.555137,91.37967775,49.8339135
1401.501808,71.97204021,41.5093187
1402.448315,51.22550068,35.59525116
1403.394658,37.5241223,33.42441737
1404.340838,28.06995081,33.13054381
1405.286855,17.36690086,30.73847679
1406.232708,4.506547644,23.99283082
1407.178397,-6.78278787,13.52563967
1408.123924,-15.46525006,1.068433574
1409.069287,-24.93363878,-11.76554649
1410.014487,-30.64884024,-22.12634466
1410.959524,-21.23734117,-25.60028711
1411.904398,0.419411436,-19.54703345
1412.849108,19.21977574,-4.629598275
1413.793656,33.93545127,17.48066737
1414.73804,55.50973781,43.67559776
1415.682262,81.68807678,66.78438759
1416.62632,96.68520921,79.29382074
1417.570216,96.28551557,82.07791166
1418.513949,98.30539407,85.98094581
1419.457519,118.2716031,101.3955619
1420.400926,148.4046833,127.3080393
1421.34417,175.6103042,153.5373916
1422.287251,200.9688134,172.6236441
1423.23017,229.3554024,186.0558088
1424.172926,258.5333837,199.7813322
1425.11552,288.1056204,217.2506343
1426.057951,321.3563469,236.8562522
1427.000219,352.390258,253.7992893
1427.942325,374.1660738,264.3438178
1428.884268,393.0008813,269.7098806
1429.826049,416.2140713,275.9149469
1430.767667,442.4781205,287.8949573
1431.709123,467.5476984,303.081023
1432.650417,484.8337837,314.1893116
1433.591549,489.8792296,320.4694309
1434.532518,491.2492244,331.6733168
1435.473325,502.9292495,355.877879
1436.413969,519.2267425,385.7922501
1437.354452,515.1435959,403.4465144
1438.294772,483.066398,399.2843905
1439.234931,442.0139165,382.0024603
1440.174927,405.917601,368.3436254
1441.114761,378.053611,366.3870094
1442.054434,357.2086822,368.9148804
1442.993944,327.3872619,361.132311
1443.933292,281.4032484,335.3618292
1444.872479,238.9040906,297.7022383
1445.811504,207.152649,259.9930805
1446.750367,172.96446,229.268626
1447.689068,141.4721039,205.2946798
1448.627607,125.2679095,182.2520356
1449.565985,111.018401,153.2243307
1450.504201,85.13690499,119.1117303
1451.442256,61.70846071,90.61586415
1452.380149,52.96338535,75.73178339
1453.31788,48.31779493,69.59189187
1454.25545,39.04427197,62.27802519
1455.192859,31.69182283,52.64295918
1456.130106,32.10589889,48.87283349
1457.067191,38.36865729,56.25768646
1458.004115,46.7841649,68.2029741
1458.940878,54.0010931,72.10771284
1459.87748,58.82804636,63.95079918
1460.81392,65.3540927,53.76705803
1461.7502,81.44122617,54.16668115
1462.686317,108.3316865,64.92114881
1463.622274,132.6930074,72.9816426
1464.55807,139.6810199,68.83663823
1465.493705,134.9568382,58.12078377
1466.429178,141.1141833,53.4187687
1467.364491,165.428489,58.53050072
1468.299643,189.6366471,66.6944999
1469.234633,200.976098,72.37085597
1470.169463,207.8834382,76.70571124
1471.104132,218.1369801,80.62637271
1472.03864,222.3862913,81.30898686
1472.972988,210.8273152,78.56524642
1473.907174,196.1585085,77.1351407
1474.8412,196.2302075,79.54423937
1475.775066,200.4021165,83.63568962
1476.70877,189.1182934,89.44788452
1477.642314,173.0325565,100.6775858
1478.575698,168.1987531,115.77721
1479.508921,160.8970892,124.8988624
1480.441983,141.6097018,121.1100071
1481.374885,127.6111962,110.0834027
1482.307627,124.1816177,103.83878
1483.240208,120.1336613,107.5315417
1484.172629,118.3300219,115.5617742
1485.104889,120.077752,119.555598
1486.036989,112.5832572,118.7040941
1486.968929,99.83150034,120.9247026
1487.900709,100.0527662,132.2518262
1488.832329,110.510169,147.5891287
1489.763788,113.4812812,156.2245031
1490.695087,104.6544973,154.4500371
1491.626227,93.3520636,147.1195677
1492.557206,85.842451,137.8108547
1493.488025,77.96235449,124.8740466
1494.418685,66.13871635,108.8056665
1495.349184,58.12088904,95.59308938
1496.279523,58.64767418,88.6802097
1497.209703,59.84014051,84.262003
1498.139723,56.090597,78.07732414
1499.069583,50.73470427,71.31331201
1499.999283,49.97047397,66.89191395
1500.928824,53.0016088,63.80775151
1501.858205,49.24902855,58.56654274
1502.787426,37.75624706,51.44634315
1503.716488,30.59909199,47.77176355
1504.64539,32.02214718,51.83821004
1505.574133,37.55814081,62.50077725
1506.502716,43.74783972,76.00383049
1507.43114,47.9698576,89.94492345
1508.359404,48.91949441,102.1880575
1509.287509,47.08254218,109.2143829
1510.215454,42.6386123,109.3847151
1511.14324,37.68871215,106.5679316
1512.070867,38.56577914,107.7385531
1512.998335,48.30492529,116.1026834
1513.925643,61.2012263,127.4285253
1514.852793,70.43061003,135.1100664
1515.779783,77.3328994,138.4956972
1516.706614,90.23759229,142.1958732
1517.633286,106.6887945,146.8226072
1518.559799,110.293318,147.2540553
1519.486153,102.191835,142.1421048
1520.412348,101.003197,137.5798767
1521.338384,107.3102847,139.1519082
1522.264261,110.8784602,146.2241513
1523.18998,113.7323592,154.0153509
1524.115539,119.4644131,157.0963827
1525.04094,123.7185899,152.8585673
1525.966182,121.6688863,144.1312412
1526.891265,115.9435205,136.0277113
1527.81619,110.4044572,129.2164944
1528.740956,98.46675381,119.7573761
1529.665563,76.1815602,106.0530159
1530.590012,54.15192152,91.19335783
1531.514302,39.09959505,78.10309891
1532.438434,24.79283573,67.59647898
1533.362407,9.127798993,61.29452284
1534.286222,1.665471001,61.72954746
1535.209879,6.889944464,69.09945053
1536.133377,16.52773508,81.04261431
1537.056717,25.59334807,95.26945058
1537.979898,34.87381526,109.4425696
1538.902921,38.4226872,119.8169094
1539.825786,30.17421611,124.273795
1540.748493,18.40218946,126.2704274
1541.671042,17.72860959,131.803829
1542.593432,30.70906751,142.1931201
1543.515665,48.3694697,152.4458766
1544.43774,60.17552538,156.9818636
1545.359656,62.00754212,154.9897195
1546.281415,64.24108395,149.1992558
1547.203015,74.20617332,140.9091353
1548.124458,77.34367186,128.8279062
1549.045743,66.28832624,112.8061849
1549.96687,55.33313936,95.61262281
1550.887839,49.03231564,80.54824894
1551.80865,44.6629747,69.74691186
1552.729304,50.39416795,63.60071876
1553.6498,64.51615856,59.84767744
1554.570138,73.14549566,56.05335014
1555.490319,78.40576093,53.89804697
1556.410342,92.19322008,57.22604895
1557.330208,108.3502052,65.63358849
1558.249916,112.6734973,72.98117304
1559.169466,108.3464445,72.36750474
1560.08886,106.5448395,62.34537955
1561.008095,112.0032058,49.24525667
1561.927174,127.8768963,41.90526007
1562.846095,152.6639909,43.44085529
1563.764859,177.3389619,50.61114735
1564.683465,198.110656,60.21060953
1565.601914,218.9622076,71.92618709
1566.520206,240.2511907,85.19572057
1567.438341,259.5625044,96.32783149
1568.356319,274.1618715,99.8014011
1569.27414,275.7569463,93.26023983
1570.191803,263.0515286,81.68600677
1571.10931,249.8418826,74.0111935
1572.026659,243.6936858,74.46570364
1572.943852,239.4952348,80.26367759
1573.860888,234.4795481,87.86778324
1574.777766,227.8890265,96.23588972
1575.694488,216.5953172,103.2093803
1576.611053,196.4467812,105.0160368
1577.527462,165.1190212,101.1100705
1578.443713,130.9318352,94.4495113
1579.359808,103.7726431,86.26582103
1580.275747,80.1955775,75.39712589
1581.191528,57.26537761,63.3343256
1582.107153,40.58131634,55.08619244
1583.022622,32.75285641,52.98739723
1583.937933,29.40392309,52.95349396
1584.853089,24.02414607,50.32200811
1585.768088,18.55808089,46.66459592
1586.68293,20.42642748,45.45899839
1587.597616,27.42686078,44.03907549
1588.512146,33.5900257,36.38863058
1589.426519,34.54715413,22.25153181
1590.340736,26.46697923,9.202680539
1591.254797,20.76461689,5.300412707
1592.168702,29.40700295,10.3086924
1593.08245,37.73196614,16.19103811
1593.996042,34.14087544,17.06807878
1594.909478,32.22854263,15.07414812
1595.822758,39.98532955,15.66201539
1596.735882,50.22303226,20.53832366
1597.64885,56.24406579,26.03973926
1598.561662,52.86969993,28.28852904
1599.474318,44.05344127,29.44511873
1600.386819,45.82746292,35.41304237
1601.299163,59.61941992,46.93330149
1602.211351,67.78313592,58.12971582
1603.123384,64.52597321,64.79952065
1604.035261,60.24238648,68.71174379
1604.946982,61.6148498,72.48644053
1605.858547,65.27262566,75.08743431
1606.769957,64.32394615,74.82014142
1607.681211,58.98657823,73.01118473
1608.592309,55.06918679,71.39709981
1609.503252,53.35057862,69.818735
1610.414039,50.4823354,70.0187729
1611.324671,44.22453544,77.1489849
1612.235147,41.50222299,93.94495475
1613.145468,54.43889318,115.884484
1614.055634,73.05041864,134.1190277
1614.965644,74.90467173,143.1445622
1615.875499,64.23006964,144.5313065
1616.785198,59.11033937,143.1681078
1617.694743,61.61512216,143.138501
1618.604132,65.79478202,147.385535
1619.513366,71.56913971,156.2819199
1620.422444,83.93432838,165.5301523
1621.331368,100.7468098,169.2736042
1622.240136,111.3727475,166.7586824
1623.14875,118.1026717,164.0232167
1624.057208,133.3646943,167.4846977
1624.965512,153.9976045,176.571831
1625.87366,168.111932,183.5799288
1626.781654,173.1094124,180.9398834
1627.689492,168.9078844,168.8401955
1628.597176,159.1803362,155.3544864
1629.504705,158.5488076,148.2265667
1630.412079,168.209739,147.8949702
1631.319299,170.3599286,151.5780536
1632.226364,168.6296741,160.9654069
1633.133274,180.373881,178.1013465
1634.040029,194.4675665,197.0642047
1634.94663,195.0660559,208.7472011
1635.853076,187.0213638,210.481181
1636.759368,172.6536747,206.0948816
1637.665505,155.0241457,201.0063584
1638.571488,146.3394636,198.842261
1639.477316,145.6625586,200.3191768
1640.38299,142.3074779,204.8360316
1641.28851,136.0540269,211.1731109
1642.193875,130.1354275,216.0905391
1643.099086,121.1744599,216.4501151
1644.004142,107.8594024,213.7861292
1644.909045,96.58051717,212.2033751
1645.813793,90.29853954,210.8991606
1646.718387,82.08513987,203.4485187
1647.622827,66.51286384,185.8584318
1648.527112,46.83599809,162.5125695
1649.431244,32.0326213,143.9562365
1650.335222,35.80245221,139.7365759
1651.239045,62.30614681,151.507809
1652.142715,91.82019564,171.9888253
1653.046231,108.8681422,191.2768455
1653.949593,123.8985249,202.943644
1654.852801,139.7360336,204.7108652
1655.755855,143.5476319,198.9205178
1656.658755,141.7265062,192.6516857
1657.561502,148.0881355,191.4330335
1658.464095,155.8649297,193.2332226
1659.366534,157.1328402,191.9846224
1660.26882,153.221878,184.8355618
1661.170952,142.4153084,174.5986224
1662.07293,128.2665906,166.014569
1662.974755,119.0830124,159.0645964
1663.876426,111.057003,147.5118705
1664.777944,94.4599994,125.7404938
1665.679308,66.56899815,95.10052536
1666.580519,33.52558185,62.75503497
1667.481576,7.267444387,35.6452976
1668.382481,-8.543095276,15.80543355
1669.283231,-19.93706448,1.69766162
1670.183829,-24.05854547,-6.637458324
1671.084273,-11.54487999,-6.017557668
1671.984564,15.23216329,5.214794407
1672.884702,43.69373685,21.94933714
1673.784687,63.67648624,33.9770528
1674.684518,73.75831356,34.67975139
1675.584197,79.35329356,26.9110643
1676.483722,81.74981045,18.38349162
1677.383095,75.9941192,13.58592351
1678.282314,66.28158995,13.27556913
1679.181381,65.87223416,18.81257427
1680.080294,77.61090007,31.53783716
1680.979055,94.380934,48.67070632
1681.877663,110.5236736,64.67689581
1682.776118,120.8573903,77.43331319
1683.67442,127.5780105,89.72983447
1684.57257,141.2668454,103.6964435
1685.470567,160.0361934,116.0470189
1686.368411,169.0191127,120.1806845
1687.266102,160.9086729,113.3799454
1688.163641,145.1787301,102.5295186
1689.061027,142.0037635,100.0642481
1689.958261,156.5410348,111.2534472
1690.855342,170.6458957,129.0152763
1691.752271,176.2804524,144.3783249
1692.649047,183.0006829,156.5113922
1693.545671,192.4302153,168.4383641
1694.442143,198.3537487,178.9127238
1695.338462,195.1701169,184.4362384
1696.234629,181.734409,185.9452932
1697.130643,168.690691,187.9108495
1698.026505,160.7549052,192.8758981
1698.922216,149.5598963,202.0810492
1699.817773,143.3717445,218.5165594
1700.713179,155.4730355,242.6434383
1701.608433,170.375001,267.6616513
1702.503534,173.2932141,285.4512792
1703.398484,174.1836641,295.1640388
1704.293281,176.9329772,301.9563575
1705.187927,176.7245177,309.6642428
1706.08242,178.8415641,316.2843723
1706.976762,181.190172,314.8600618
1707.870952,168.0806466,300.2969667
1708.76499,138.4667852,277.137707
1709.658876,114.5704745,257.2272743
1710.55261,111.7901933,246.6167642
1711.446193,111.1743607,238.2873522
1712.339624,90.83926672,222.4226776
1713.232903,69.79290966,200.0231512
1714.12603,69.87035454,179.4795596
1715.019006,74.62074261,164.0020587
1715.911831,68.37334764,150.9594329
1716.804504,60.20849282,139.4373601
1717.697025,59.22742367,130.1672094
1718.589395,63.67823007,121.5026904
1719.481613,66.06250381,111.992453
1720.37368,65.91329235,103.706773
1721.265595,73.46499187,97.92950908
1722.15736,82.3207024,90.9702091
1723.048973,71.85602379,79.87288687
1723.940434,53.1103185,69.49828856
1724.831745,54.00557253,67.14228018
1725.722904,63.59057444,72.06209634
1726.613912,58.85774379,76.76142791
1727.504768,51.43123003,75.50632737
1728.395474,49.40552572,66.30014559
1729.286029,34.34479872,49.90838108
1730.176432,8.929185203,31.63743199
1731.066685,-0.884786059,18.55725118
1731.956786,4.533862873,12.22491752
1732.846737,3.329805855,8.957787905
1733.736537,-3.766090521,7.444627558
1734.626185,1.100952612,10.437442
1735.515683,14.39917516,18.80466687
1736.405031,19.33907745,30.1762043
1737.294227,19.2795771,44.87872637
1738.183272,28.71044038,66.99072333
1739.072167,49.6990217,96.69660334
1739.960911,75.62284129,126.4726785
1740.849505,99.58640891,148.0756454
1741.737948,114.0038336,160.612661
1742.62624,117.6088972,169.4155871
1743.514382,118.4577289,178.5748346
1744.402373,119.9527909,187.8533091
1745.290214,121.7562663,196.5399996
1746.177904,128.4080854,204.5362443
1747.065444,135.6294409,208.1568761
1747.952833,131.7444931,201.9943339
1748.840073,117.9332568,187.5884129
1749.727161,107.2324729,174.0541164
1750.6141,110.1582659,167.3276759
1751.500888,120.9145542,163.7804175
1752.387526,124.7565379,157.7876608
1753.274014,127.8075771,150.7381186
1754.160351,146.1530087,147.3688289
1755.046539,170.892481,147.2198198
1755.932576,186.3598784,145.5680623
1756.818464,194.1894545,140.2483626
1757.704201,196.8990269,134.1724476
1758.589788,197.8529126,133.0923033
1759.475225,208.2120842,140.2213148
1760.360513,224.7493948,150.3008808
1761.24565,229.3845938,152.0922416
1762.130638,215.0861392,140.6710026
1763.015476,191.3492122,124.8714771
1763.900164,176.6392251,117.9080829
1764.784702,179.0428264,121.5862857
1765.66909,180.9369561,126.2425397
1766.553329,169.0414495,125.4041199
1767.437418,154.0384855,120.7463096
1768.321358,139.8201244,113.4858478
1769.205148,116.6542977,102.9928757
1770.088788,92.54323671,93.97217275
1770.972279,90.58408584,93.18813226
1771.85562,103.8881572,97.96072362
1772.738812,98.95998618,98.72750679
1773.621854,80.05358536,93.27726848
1774.504747,80.35958778,87.09114418
1775.38749,92.46963031,81.47879099
1776.270084,90.64391845,73.68415083
1777.152529,83.03575754,65.60217224
1778.034825,79.54875991,61.99972203
1778.916971,74.04621977,63.93529739
1779.798968,74.26159237,69.41001131
1780.680816,80.91068116,75.33100165
1781.562515,73.6970226,78.10485607
1782.444065,58.59161869,77.71943935
1783.325465,60.63000847,78.73241569
1784.206717,76.68616631,83.73191414
1785.087819,92.16525832,89.30857505
1785.968773,102.7509197,90.20931691
1786.849577,103.190033,85.37330963
1787.730233,93.1901333,78.15808326
1788.610739,81.66107277,71.16479483
1789.491097,73.41478399,64.38050433
1790.371306,68.19536618,58.52150021
1791.251367,67.64072194,54.83956882
1792.131278,69.90998286,51.22053533
1793.011041,63.18865209,43.52966977
1793.890655,43.49817781,31.34491458
1794.77012,27.23273379,18.92647582
1795.649437,23.86170906,11.14319012
1796.528605,25.69091843,11.17613858
1797.407625,30.48015739,19.63902417
1798.286496,35.5184467,32.39333772
1799.165218,30.97460713,42.33529164
1800.043792,22.68301129,46.14493908
1800.922218,21.92498094,46.32429838
1801.800495,21.07211031,46.41909051
1802.678624,17.15320468,47.7054866
1803.556604,21.18456945,48.59025879
1804.434436,28.82375158,44.58790741
1805.31212,26.06846458,33.11208836
1806.189656,14.44738644,19.53622026
1807.067043,4.86413084,12.83970598
1807.944283,0.801722121,14.74192578
1808.821374,-2.663806586,19.13974025
1809.698317,-6.244748317,22.77772752
1810.575112,-3.31812938,29.89772064
1811.451758,6.40710056,43.78093078
1812.328257,13.10608818,59.50327855
1813.204608,11.84586276,70.15955908
1814.080811,10.15937207,76.29340012
1814.956866,13.6574509,83.55000366
1815.832773,17.38944241,94.13021624
1816.708532,17.41071947,105.4585015
1817.584143,14.82853414,115.2311298
1818.459607,12.06807901,124.6517994
1819.334923,15.93034413,136.5846597
1820.210091,30.60853365,150.8814909
1821.085111,48.24279353,162.840689
1821.959984,60.32722784,167.4413138
1822.834709,68.13952628,163.6583738
1823.709286,70.98746209,153.8452966
1824.583716,65.34314385,141.0366062
1825.457998,62.8566671,128.056837
1826.332133,71.6994216,117.1251075
1827.20612,76.64415617,108.9150885
1828.07996,75.82583002,102.1893786
1828.953653,82.57793552,94.27612197
1829.827198,88.17459398,84.17917745
1830.700596,86.95535719,75.80714529
1831.573846,93.03765341,72.86537593
1832.446949,101.5332607,70.80217334
1833.319905,95.83372059,61.23864798
1834.192714,82.97093814,43.71045431
1835.065375,75.08968323,26.51315774
1835.93789,65.29913199,16.79658857
1836.810257,47.78407966,14.58758976
1837.682477,32.69273047,16.01943874
1838.55455,29.27458568,18.9560807
1839.426476,33.35116759,23.75206339
1840.298255,34.2726331,29.43016407
1841.169887,27.6510311,32.33969089
1842.041372,18.63090266,30.45472076
1842.91271,12.40175177,26.50674732
1843.783901,8.204374821,24.75881986
1844.654946,2.033611902,26.68347235
1845.525844,-4.199611109,31.54933543
1846.396594,0.240663199,39.41412173
1847.267199,13.6222762,50.83128241
1848.137656,21.46104243,64.09875953
1849.007967,27.08874401,74.66985386
1849.878131,35.86176968,78.2086844
1850.748148,35.88895386,75.91031206
1851.618019,35.04289828,75.33672142
1852.487743,51.08547742,81.0087709
1853.357321,66.96548438,87.16126907
1854.226753,63.42762232,86.47050631
1855.096037,53.19507727,81.46701353
1855.965176,53.52513448,80.91342804
1856.834168,66.27713143,88.12413525
1857.703014,80.88249705,97.12677906
1858.571713,89.02589623,99.48862723
1859.440266,94.5239099,92.78604942
1860.308673,96.28766253,82.06251251
1861.176933,93.25388878,74.54193067
1862.045047,101.7252287,73.00125519
1862.913016,122.7011921,73.50459235
1863.780838,130.8229542,70.81548007
1864.648513,122.5182864,65.20785729
1865.516043,118.3555245,60.78966922
1866.383427,121.229745,58.87001745
1867.250665,119.4471971,57.20800202
1868.117756,112.2853425,53.74361546
1868.984702,107.3601558,47.25923329
1869.851502,106.0056102,36.80513726
1870.718156,101.1195817,24.22550311
1871.584664,90.49680665,16.02362533
1872.451026,84.11669392,18.64593313
1873.317243,85.39863826,30.36213786
1874.183314,81.17425329,41.60946598
1875.049239,65.96110172,46.47821298
1875.915018,53.93236248,49.81372143
1876.780651,57.23162254,59.58710693
1877.646139,67.92884943,76.1583868
1878.511482,69.86853889,92.56059524
1879.376679,64.16468279,103.5612719
1880.24173,63.26855769,111.6642389
1881.106635,68.235098,123.8613881
1881.971396,77.40411591,143.4636977
1882.83601,92.17050562,165.2806574
1883.70048,101.9227389,179.2951924
1884.564804,94.57887748,180.1092897
1885.428982,76.89109062,171.6955144
1886.293016,64.06332759,162.0823049
1887.156904,61.48905758,156.111333
1888.020646,67.59169511,154.3924581
1888.884244,80.8814776,155.1799161
1889.747696,94.84317168,155.3511394
1890.611003,100.194616,152.518171
1891.474165,97.52185561,147.0748034
1892.337182,95.50501256,141.0720307
1893.200054,97.31727727,135.5324032
1894.06278,96.46512665,129.0684328
1894.925362,88.83617805,119.6014588
1895.787799,80.72255167,108.2366461
1896.650091,78.78928388,99.7860137
1897.512238,83.5662399,97.65914181
1898.374239,91.40995654,99.21910148
1899.236097,95.55377836,98.1800589
1900.097809,91.83499073,91.94350064
1900.959376,84.947015,84.80452963
1901.820799,88.39900953,82.22002185
1902.682077,107.4912952,82.5330778
1903.54321,122.2368795,77.44227363
1904.404199,114.5444374,62.29257487
1905.265043,97.56014697,43.08152701
1906.125742,91.05133309,31.10488861
1906.986297,99.69916709,32.62702465
1907.846707,123.1753838,44.10086784
1908.706973,150.1614032,54.99681286
1909.567094,157.9415816,56.04313711
1910.427071,146.3062021,47.00991928
1911.286903,139.5636709,35.53847465
1912.146591,145.2425716,28.54493613
1913.006135,147.5811865,27.54241169
1913.865534,137.4970022,30.78725005
1914.724789,124.0608194,35.68111549
1915.5839,118.7526563,39.62815034
1916.442866,116.5838341,42.27744858
1917.301688,107.8520504,46.91179991
1918.160366,99.27813889,56.08141239
1919.0189,94.57708844,66.02834607
1919.87729,83.78553742,70.23065165
1920.735536,70.04499706,68.18513937
1921.593638,64.69323867,65.32553253
1922.451595,63.8608567,65.21877604
1923.309409,58.29240783,66.80854523
1924.167079,48.75109582,68.44355944
1925.024604,44.06223275,70.67801061
1925.881986,47.51738197,74.95649844
1926.739224,52.93869363,81.5794305
1927.596318,58.90223557,87.9260016
1928.453269,64.20362198,87.61990652
1929.310075,58.93993193,75.81599253
1930.166738,45.56703722,57.38309425
1931.023257,41.58024327,44.77978572
1931.879633,52.33107779,45.67060771
1932.735865,65.93719825,55.79533119
1933.591953,69.97711786,64.79822801
1934.447897,65.63910138,66.49763163
1935.303698,63.23410635,62.70554093
1936.159356,60.97612682,59.80739117
1937.01487,50.5091662,63.64309601
1937.87024,40.14075345,75.19767373
1938.725468,38.88398416,89.31396898
1939.580551,36.8987516,100.0275632
1940.435492,30.01650434,107.6379147
1941.290289,28.23846093,117.0350065
1942.144942,29.75968743,129.8712327
1942.999453,27.87011252,143.3186733
1943.85382,29.66058703,154.8892192
1944.708044,36.43584916,162.9623672
1945.562124,35.41340692,165.1265897
1946.416062,24.73011299,160.7546296
1947.269856,18.42383483,152.0667532
1948.123508,19.28865749,139.6672676
1948.977016,12.67240151,121.8347432
1949.830381,1.023351023,100.6508532
1950.683603,2.946094497,82.76312101
1951.536683,13.01173996,71.91014548
1952.389619,18.38367385,65.44256329
1953.242412,25.83864016,58.24550183
1954.095063,35.76631032,47.63371347
1954.947571,42.19587285,35.72190511
1955.799935,52.31318089,26.99124178
1956.652157,68.02268377,22.59689971
1957.504237,79.65730662,19.23577576
1958.356173,83.96429696,14.7246155
1959.207967,86.50351401,12.09133163
1960.059618,95.20026029,15.52875718
1960.911127,110.0187113,23.61533505
1961.762493,120.7660894,30.63785695
1962.613716,124.9010475,34.15614004
1963.464797,127.2033163,36.47992968
1964.315735,123.5745152,39.11934609
1965.166531,110.4496269,40.2322514
1966.017184,95.85139387,38.55858293
1966.867695,87.41078329,37.56896526
1967.718064,85.4676513,42.73340903
1968.56829,86.60355772,53.91109568
1969.418374,84.79893099,63.99572001
1970.268315,78.84611382,67.69957793
1971.118114,73.98140332,68.31992023
1971.967771,72.55502029,72.61621954
1972.817286,76.11897109,81.36385566
1973.666659,81.58442196,88.26450137
1974.515889,77.39627486,88.19188542
1975.364977,68.08653407,83.14160283
1976.213924,70.09399536,76.98407411
1977.062728,74.4428142,69.08559954
1977.91139,64.28261576,59.3701642
1978.75991,55.60067894,53.66746402
1979.608288,70.21907004,55.78771929
1980.456524,91.6804174,59.63703879
1981.304619,94.71988713,57.00608786
1982.152571,89.39594418,48.63339017
1983.000382,92.51264529,41.25932416
1983.84805,96.92358472,38.30622218
1984.695577,97.37881164,38.24802284
1985.542962,99.980638,38.08570712
1986.390206,104.871746,36.50983811
1987.237308,111.7412644,36.00159678
1988.084268,124.245008,39.71971164
1988.931086,138.1130472,44.93908198
1989.777763,142.0708787,44.699348
1990.624298,132.7361425,37.79054073
1991.470692,119.9927199,31.06118079
1992.316944,111.9962048,29.53733468
1993.163055,102.7755183,30.57092085
1994.009024,85.58065231,30.505839
1994.854852,71.10300047,31.09716319
1995.700538,75.93670636,35.6099091
1996.546083,91.95115544,42.76183276
1997.391487,94.27867633,48.92765892
1998.23675,86.0628416,53.49781761
1999.081871,91.63424681,57.16451048
1999.926851,103.5706131,58.28427707
2000.771689,97.04672032,56.53831121
2001.616387,85.19660837,55.83545428
2002.460943,91.3130138,58.08526055
2003.305358,100.4446579,59.67600097
2004.149632,97.12984598,58.20869669
2004.993765,94.55332787,56.08828719
2005.837757,99.0081451,54.92276868
2006.681608,100.3957817,52.68437221
2007.525318,93.79669169,47.81922978
2008.368888,83.61503836,41.8311027
2009.212316,75.79182345,36.59675253
2010.055603,67.25443498,31.88838743
2010.898749,52.42993781,26.96318591
2011.741755,38.8783383,21.69238782
2012.58462,32.68826682,15.39202107
2013.427344,27.13544207,9.192382396
2014.269927,26.17125348,8.957269135
2015.11237,43.53275476,19.18076756
2015.954672,69.08935074,35.263112
2016.796833,78.82679541,48.97017884
2017.638853,76.95467254,59.3199028
2018.480733,85.92168216,70.79176058
2019.322473,103.2146314,83.37304388
2020.164072,108.4879385,92.11207855
2021.00553,103.2252726,95.27980119
2021.846848,104.7355691,96.17427423
2022.688026,111.6010446,97.2894308
2023.529063,109.8829438,98.49751607
2024.36996,101.5311182,100.4800786
2025.210716,97.44789069,105.5692275
2026.051332,96.27724479,115.3211621
2026.891808,91.1650678,128.6722182
2027.732144,82.05276257,141.5940159
2028.572339,70.55559743,149.4507773
2029.412394,55.057009,151.3097856
2030.252309,37.08955606,150.7744469
2031.092084,24.62194134,151.7880422
2031.931719,18.66519807,155.3220154
2032.771213,9.996822344,161.9894199
2033.610568,1.602296386,175.6943931
2034.449782,9.800320472,199.1824848
2035.288857,32.79484371,226.8828651
2036.127791,48.95325021,250.1982664
2036.966586,55.31956317,269.6309714
2037.805241,73.07688485,291.4363684
2038.643756,105.1843458,311.4609071
2039.482131,125.0725105,314.6436308
2040.320366,119.6431403,295.4368634
2041.158461,111.8029278,268.4249141
2041.996417,124.5033414,251.5976808
2042.834233,147.6585636,246.6888391
2043.671909,161.105575,242.9917546
2044.509446,167.6200349,234.0088554
2045.346843,177.7258657,222.6001834
2046.1841,186.5046218,212.5146905
2047.021218,188.1310566,201.1663977
2047.858196,185.0307234,182.7013476
2048.695035,178.2313303,156.6505273
2049.531734,171.9075465,129.9796651
2050.368294,170.2401932,108.9480742
2051.204714,164.3326484,92.9912304
2052.040995,148.2412525,79.0306053
2052.877137,133.0508246,66.96412648
2053.713139,125.0974836,57.53073103
2054.549002,118.9444939,49.19152178
2055.384725,115.8469052,41.11419092
2056.22031,117.9938552,35.57333613
2057.055755,119.4244431,33.41149614
2057.891061,118.8361155,30.10941166
2058.726228,115.7627438,19.86035803
2059.561255,101.8598477,2.610426799
2060.396144,79.40351793,-14.7603686
2061.230893,65.57808523,-24.87372904
2062.065504,64.80036736,-26.5320416
2062.899975,63.74205547,-23.75797778
2063.734308,58.34518363,-19.98447768
2064.568501,57.58900452,-15.14118449
2065.402556,62.67550824,-6.681688185
2066.236471,68.89912168,7.969938509
2067.070248,79.30430152,28.63176904
2067.903886,97.13197083,51.36755804
2068.737385,115.7299085,70.84648246
2069.570746,123.902453,84.01495558
2070.403967,117.3706289,92.63414298
2071.23705,107.6962143,102.7585961
2072.069994,111.4351356,119.7022995
2072.9028,126.4435537,142.5190324
2073.735467,138.8569093,164.6351105
2074.567995,147.6292287,179.6899548
2075.400384,153.7533866,185.6417945
2076.232636,146.5527422,184.4444837
2077.064748,129.2481207,179.6767152
2077.896722,120.1588886,173.5534762
2078.728558,116.3513771,164.5175353
2079.560255,103.5151338,149.136731
2080.391814,87.09401376,127.7587211
2081.223235,76.99238723,106.3504369
2082.054517,72.49200226,91.09738612
2082.885661,72.0650767,81.94391677
2083.716666,72.70701726,73.21606016
2084.547533,68.2068618,61.06647972
2085.378262,59.16068819,47.97697294
2086.208853,54.77261149,38.30347595
2087.039306,58.33458073,32.67669049
2087.86962,61.82907997,30.13426123
2088.699797,62.86469069,32.36933889
2089.529835,66.8435802,41.21296104
2090.359736,72.0480477,55.00115162
2091.189498,76.72296588,71.20072628
2092.019122,85.70230964,88.50579259
2092.848608,95.04768792,103.2098142
2093.677957,91.37898627,108.3900794
2094.507167,71.30689125,101.6238656
2095.33624,48.12463984,90.79081322
2096.165175,39.30043756,86.75789789
2096.993972,49.86675878,91.11728824
2097.822631,63.67467678,95.90862584
2098.651152,61.95602634,95.44620754
2099.479536,53.61604782,93.70377413
2100.307782,59.14375282,97.73129692
2101.13589,75.22621653,107.0919654
2101.963861,87.18955823,113.8895155
2102.791694,91.16694549,112.2778812
2103.619389,88.1544681,104.2775272
2104.446947,80.48450215,95.70200423
2105.274367,74.33133366,89.33911656
2106.10165,73.39742282,84.29815831
2106.928796,74.24312377,80.65722906
2107.755804,75.63386541,81.37125567
2108.582674,83.19720977,88.08878838
2109.409407,94.99635501,97.01350735
2110.236003,101.262007,100.985288
2111.062462,98.32651389,94.90082631
2111.888783,85.4210179,78.78997905
2112.714967,66.60590376,57.89952952
2113.541013,54.38489123,40.45393149
2114.366923,53.23265365,33.34328369
2115.192695,59.12033027,37.63438704
2116.01833,69.44530599,47.64081047
2116.843828,75.96340926,56.18653526
2117.669189,70.70243915,61.76939895
2118.494413,61.82392526,69.0046143
2119.3195,63.93870049,81.79724292
2120.144449,76.70525248,98.11522622
2120.969262,85.22861318,112.8513494
2121.793938,81.18319094,124.8650412
2122.618477,73.25586565,138.0436275
2123.442879,71.16311658,153.9969198
2124.267144,70.4161673,167.7103124
2125.091273,63.88651656,173.9325788
2125.915264,56.22343171,174.4096466
2126.739119,54.96527128,174.7885611
2127.562837,59.09745297,176.7155209
2128.386418,62.62370014,176.047322
2129.209863,62.38201633,167.23596
2130.033171,55.95191851,147.7059443
2130.856342,37.25638468,120.7073334
2131.679377,13.70182509,95.89265259
2132.502275,9.330763541,82.60964087
2133.325036,22.90801256,80.13587095
2134.147661,26.67360696,79.58220713
2134.97015,19.59636638,75.76935353
2135.792502,19.15513714,71.14934627
2136.614718,20.65293913,69.433578
2137.436797,20.88361038,71.97442009
2138.25874,34.77104683,79.28302117
2139.080546,59.9441128,90.6649411
2139.902217,75.85427841,103.2028248
2140.723751,80.51779572,115.377653
2141.545148,90.41516106,129.8544496
2142.36641,111.5404979,148.4944242
2143.187535,132.4142017,167.5029597
2144.008524,141.9623993,181.1451317
2144.829377,144.8892991,186.7258359
2145.650094,149.1417397,183.5533779
2146.470674,145.8934054,171.8120931
2147.291119,130.2924642,154.9608065
2148.111427,118.7941403,138.7680825
2148.9316,114.8869471,126.2271463
2149.751637,101.5166743,116.7294099
2150.571537,81.22035882,109.4105979
2151.391302,73.26437046,103.4092939
2152.210931,73.27556857,96.13198406
2153.030424,61.307177,85.96312636
2153.849781,42.74095811,76.19046678
2154.669002,36.86223523,71.15451543
2155.488088,36.9474437,68.92410983
2156.307038,29.5535659,63.2593606
2157.125852,26.71746046,52.64796126
2157.94453,34.45576617,42.50167077
2158.763073,35.09466578,38.09129525
2159.58148,27.53707619,39.26588864
2160.399752,27.88602922,42.90117667
2161.217888,32.33207468,47.12239989
2162.035888,30.67627776,51.66254648
2162.853753,29.16029316,55.73099415
2163.671482,30.76539019,56.47894229
2164.489076,29.30342207,51.10885612
2165.306534,25.53731887,41.95074578
2166.123858,23.85805826,36.25254871
2166.941045,26.17518688,37.74072744
2167.758098,30.96211002,42.06106551
2168.575015,30.43608463,43.59034382
2169.391796,23.49123251,42.3423989
2170.208443,20.15925158,41.15113759
2171.024954,22.36779017,40.35312885
2171.84133,22.77988206,38.47803684
2172.657571,20.02397945,35.42454242
2173.473676,18.80889047,31.8545426
2174.289647,20.30522606,26.30503567
2175.105482,18.21075585,16.29835918
2175.921183,9.971851743,3.694344804
2176.736748,4.381955348,-4.551987428
2177.552178,3.102539769,-4.233540411
2178.367474,-3.394713461,0.546303078
2179.182634,-10.82908446,3.016136699
2179.997659,-8.771149857,1.919945951
2180.81255,-5.742582205,1.633515518
2181.627306,-6.473299873,6.821521944
2182.441926,4.041459159,17.5266128
2183.256412,23.45036106,27.90775589
2184.070764,28.96841696,31.59223055
2184.88498,22.17805651,28.94588149
2185.699062,23.16994545,26.31670928
2186.513009,31.40112698,28.80565405
2187.326821,36.71150309,36.91120058
2188.140499,41.79250719,47.94313292
2188.954042,48.84096821,57.55498048
2189.76745,52.71455301,62.17044778
2190.580724,51.6253119,62.20152949
2191.393864,49.97754029,61.97399524
2192.206869,55.39213403,65.29711957
2193.019739,70.98331036,70.67995
2193.832475,87.77347174,72.74350428
2194.645077,92.60973727,69.85543823
2195.457544,86.88934113,67.17228086
2196.269877,86.10617561,69.16126304
2197.082075,91.41111279,72.53627342
2197.894139,89.70308165,71.41295326
2198.706069,87.78528444,66.93732928
2199.517865,96.89421918,65.50983803
2200.329526,101.3570848,69.11311675
2201.141053,92.3468284,73.13866694
2201.952446,83.32448322,71.79053746
2202.763705,72.69117988,62.66211594
2203.57483,54.51791956,49.39325831
2204.385821,48.08498816,40.05999796
2205.196677,61.86647836,39.29789291
2206.0074,69.20932839,43.42691582
2206.817988,57.19895183,45.7350084
2207.628443,46.1549072,43.19896217
2208.438764,43.87711066,36.46733605
2209.24895,38.10852743,27.86031974
2210.059003,30.58248436,21.92133278
2210.868922,36.8030433,24.56811608
2211.678707,61.77777891,38.27157828
2212.488359,92.00422761,58.91112986
2213.297876,110.2548498,79.66031393
2214.10726,114.3681556,96.39119914
2214.91651,116.0100285,107.7835753
2215.725627,121.9652787,114.0962369
2216.534609,125.912905,118.5635291
2217.343459,127.472057,126.6862192
2218.152174,136.6685901,140.9934595
2218.960756,146.5531578,157.5528012
2219.769204,141.0594912,169.5534261
2220.577519,127.1319132,173.6496877
2221.3857,120.0929497,171.9603199
2222.193748,119.5562905,169.1860132
2223.001663,120.37604,168.1997628
2223.809444,120.9548811,166.737814
2224.617091,113.4798903,159.0145882
2225.424606,90.17414531,142.5852956
2226.231986,63.90662492,121.8447241
2227.039234,53.26286769,102.5709677
2227.846348,52.88025825,86.6417952
2228.653329,50.49459615,74.86679052
2229.460177,49.78519584,70.37501171
2230.266892,56.35153108,75.00946508
2231.073473,66.08891396,84.46705899
2231.879922,70.0869291,89.86853852
2232.686237,61.0455361,84.26459811
2233.492419,42.65666089,67.9272362
2234.298468,30.09846106,48.6557115
2235.104384,29.70037768,37.01496536
2235.910167,33.12404305,39.68955475
2236.715818,39.94127442,54.97313283
2237.521335,53.42558726,73.15044817
2238.326719,59.30898235,83.36145748
2239.13197,47.50309452,82.7065959
2239.937089,34.53285299,77.88525018
2240.742074,34.8866302,76.98267785
2241.546927,38.20959722,80.9421876
2242.351647,35.95740987,83.92703579
2243.156234,35.02518572,80.07747766
2243.960689,32.27071019,68.57332315
2244.765011,19.60387281,53.78864544
2245.5692,9.208859513,41.60564394
2246.373257,12.16013186,35.3952601
2247.177181,18.53240889,35.78881054
2247.980972,22.25740608,42.41208518
2248.784631,29.62465096,53.41836004
2249.588157,41.24519927,65.70054117
2250.391551,54.79706254,78.17452719
2251.194812,72.92490527,92.0640172
2251.997941,80.21606624,96.79730825
2252.800937,88.03924705,101.9038184
2253.603801,96.3944477,107.3835476
2254.406533,105.2816682,113.2364959
2255.209132,114.7009086,119.4626634
2256.011599,124.6521688,126.0620499
2256.813934,135.1354488,133.0346555
2257.616136,146.1507487,140.3804801
2258.418206,157.6980685,148.0995239
2259.220144,169.7774081,156.1917868
2260.02195,182.3887675,164.6572687
2260.823624,195.5321468,173.4959698
