Wavelength,HS_V2S3_AAB_C1_S4_I1,HS_V2S3_AAB_C1_S4_I2
351.7692476,64.69347844,-1.966157014
352.902517,58.2789429,7.913067527
354.0355789,52.23805045,17.49123861
355.1684331,46.57080108,26.76835623
356.3010798,41.2771948,35.74442038
357.4335191,36.35723161,44.41943108
358.5657509,31.81091151,52.79338831
359.6977753,27.6382345,60.86629208
360.8295924,23.83920057,68.63814239
361.9612023,20.41380973,76.10893924
363.0926049,17.36206197,83.27868263
364.2238004,14.68395731,90.14737256
365.3547887,12.37949573,96.71500902
366.48557,13.84157284,102.9207303
367.6161443,11.25296744,108.1316167
368.7465116,6.370542934,113.1622191
369.876672,2.348425143,119.0514956
371.0066255,1.629215508,126.4868778
372.1363723,4.555451355,135.4349287
373.2659122,9.88494119,145.2076091
374.3952455,16.52302492,154.8450711
375.5243721,24.39329041,163.5213153
376.6532921,33.70884892,170.7900748
377.7820055,43.98711355,176.6382823
378.9105124,54.12470752,181.3680329
380.0388129,63.29708293,185.3566027
381.166907,71.56453832,188.7813623
382.2947947,79.44443599,191.3994037
383.4224761,86.78764496,192.4529266
384.5499513,92.19236197,190.7787664
385.6772202,93.86659591,185.1630535
386.8042831,91.13851257,174.8267914
387.9311398,84.85168793,159.7951887
389.0577904,76.36684562,140.9883403
390.1842351,66.70932774,120.0307307
391.3104739,56.78023427,98.88825358
392.4365067,47.71859977,79.44259474
393.5623337,40.56640563,63.11288794
394.6879549,35.68868818,50.63901793
395.8133703,32.68518972,42.07111208
396.9385801,30.90979986,36.91333259
398.0635842,30.23979201,34.34587682
399.1883827,31.51343988,33.46064384
400.3129757,36.15995766,33.44607702
401.4373632,44.96213694,33.68185382
402.5615452,56.67520472,33.7629159
403.6855219,68.02690905,33.51147565
404.8092932,75.7437539,32.98652296
405.9328592,78.83175676,32.42750479
407.05622,78.84755402,32.08210547
408.1793756,78.07008643,31.98633977
409.3023261,77.44944197,31.84305901
410.4250715,76.06381848,31.09201315
411.5476118,72.33898585,29.16426201
412.6699472,65.88394028,25.81516099
413.7920776,58.1797169,21.33659897
414.9140032,51.37340758,16.47337999
416.0357239,46.54673168,12.08596903
417.1572398,43.47658974,8.782958599
418.278551,41.87907405,6.736403531
419.3996575,42.27395113,5.727092271
420.5205593,45.42065819,5.338464649
421.6412566,51.13720037,5.186766502
422.7617494,58.01342463,5.085610344
423.8820376,64.50689809,5.076954043
425.0021215,70.14567242,5.316267934
426.1220009,75.37488103,5.900542349
427.241676,80.42594595,6.78108486
428.3611469,84.56658721,7.815878692
429.4804135,86.42924448,8.890385916
430.5994759,85.1015803,10.00725362
431.7183342,80.94807766,11.27540299
432.8369884,75.41168463,12.80148039
433.9554385,70.1434893,14.55964451
435.0736847,66.06961642,16.32270521
436.191727,62.79483683,17.6991162
437.3095654,58.872683,18.28682847
438.4271999,53.05468902,17.89765539
439.5446307,45.60599124,16.70866165
440.6618577,38.29083136,15.20664454
441.778881,32.81278126,13.94653832
442.8957007,29.43317068,13.31761811
444.0123169,27.34362322,13.49347878
445.1287295,26.02278265,14.54395375
446.2449386,25.62169579,16.57221403
447.3609443,26.12800841,19.77855219
448.4767466,26.73881918,24.42102939
449.5923455,26.43522984,30.69205848
450.7077412,25.13406525,38.60142301
451.8229337,23.9840456,47.95234044
452.9379229,24.41835421,58.42367081
454.0527091,27.01327113,69.70708872
455.1672921,31.10785265,81.61239759
456.2816721,35.50145137,94.06538893
457.3958491,39.7654203,106.9985176
458.5098232,44.83501957,120.1995191
459.6235944,52.03613514,133.1953947
460.7371628,61.32492549,145.2393208
461.8505284,70.41027255,155.4513363
462.9636912,75.93989526,163.1157567
464.0766514,76.16606425,168.0201351
465.1894089,72.6688506,170.6133641
466.3019639,69.23912296,171.8263325
467.4143163,68.78696882,172.6414829
468.5264662,71.11849089,173.6680775
469.6384136,73.49001371,174.9561152
470.7501587,73.09446804,176.1056183
471.8617014,69.13634339,176.5356975
472.9730419,62.97720346,175.7014538
474.0841801,56.64388607,173.1416461
475.1951161,51.21164203,168.4414389
476.30585,46.51020818,161.2990944
477.4163818,41.98065383,151.7364233
478.5267115,37.27125026,140.2734791
479.6368392,32.15748413,127.9084252
480.746765,26.70910121,115.9225432
481.8564889,21.90755208,105.5845985
482.966011,19.67067057,97.79866234
484.0753312,21.62537711,92.79109629
485.1844497,27.50500069,89.98720448
486.2933665,34.76654665,88.17580255
487.4020817,39.98366404,85.94782331
488.5105953,40.99289719,82.25993419
489.6189073,38.23101285,76.85174009
490.7270178,34.30491153,70.29168736
491.8349268,32.08200741,63.65228557
492.9426345,32.68848716,58.02788558
494.0501408,34.9515067,54.14262652
495.1574458,36.83528893,52.20985915
496.2645495,37.49949174,52.03373861
497.3714521,37.6843265,53.18582688
498.4781534,38.10298346,55.10668316
499.5846537,38.02709505,57.13016041
500.6909529,35.80809235,58.5379922
501.7970511,30.57985909,58.74276869
502.9029483,23.23160336,57.55337149
504.0086446,15.82664725,55.3307252
505.1141401,10.35443485,52.89337432
506.2194347,8.063675295,51.22112798
507.3245286,9.579519093,51.0978863
508.4294218,14.95149973,52.80366822
509.5341143,23.17370901,55.956618
510.6386062,31.91776621,59.616513
511.7428975,38.39605597,62.66112905
512.8469882,41.16703708,64.26976064
513.9508786,41.5009712,64.26205545
515.0545684,42.77848099,63.10996483
516.158058,47.98441721,61.63351211
517.2613472,57.5259434,60.60518988
518.3644361,69.48776814,60.51319746
519.4673248,81.69417705,61.54531038
520.5700133,93.18756236,63.66210539
521.6725016,103.8613665,66.62439247
522.7747899,113.0409281,69.96103578
523.8768782,118.9060743,72.98706877
524.9787665,119.753447,74.96898006
526.0804548,115.8418016,75.36162475
527.1819433,109.6266638,73.94107434
528.2832319,103.8770488,70.76477524
529.3843207,99.54822998,66.04221713
530.4852098,95.53903909,60.03029708
531.5858992,90.23295366,52.9910469
532.6863889,82.89894194,45.18553808
533.7866791,73.85482513,36.88130695
534.8867697,63.81871593,28.3803457
535.9866608,53.27956074,20.07733934
537.0863525,42.4838952,12.53798918
538.1858447,32.22607533,6.51993634
539.2851376,24.74353501,2.852299249
540.3842312,23.19256837,2.167318003
541.4831256,29.32375705,4.587725362
542.5818207,41.65959414,9.567679787
543.6803167,56.46970643,16.03184165
544.7786136,70.30987303,22.7279504
545.8767114,81.22225128,28.56685374
546.9746102,88.1487393,32.82054997
548.07231,90.3268661,35.19709743
549.1698109,87.68058002,35.83825639
550.2671129,81.59558205,35.24835408
551.3642162,74.88591493,34.12758346
552.4611206,70.44908419,33.1154078
553.5578263,69.54454188,32.57497625
554.6543334,71.14179665,32.57621814
555.7506418,72.79226002,33.06137695
556.8467516,72.34684895,34.02266752
557.942663,69.29500001,35.56694817
559.0383758,64.91992695,37.88084249
560.1338902,61.49102386,41.16856855
561.2292062,61.17979322,45.60756116
562.3243239,65.1569496,51.3202219
563.4192432,73.11190295,58.34768429
564.5139644,83.51854235,66.628884
565.6084873,94.76864653,76.02663288
566.7028121,106.4109328,86.38569694
567.7969388,119.2177265,97.51876505
568.8908675,133.7018561,109.0691571
569.9845981,148.4000274,120.3670018
571.0781308,159.9076724,130.4634889
572.1714656,165.0830033,138.3908629
573.2646026,163.4430675,143.4808602
574.3575417,157.4172041,145.5073491
575.4502831,150.3208234,144.5794436
576.5428267,144.1351483,140.9371102
577.6351727,138.8999492,134.8435196
578.7273211,133.5219268,126.6265305
579.8192719,126.8062229,116.7786897
580.9110251,117.9349778,105.9429724
582.0025809,106.4693118,94.70195463
583.0939393,92.50624847,83.34153629
584.1851003,77.22780028,71.85016856
585.276064,62.94764739,60.16097837
586.3668304,51.88040206,48.39267935
587.4573995,44.56174545,36.902955
588.5477715,39.60351847,26.19524494
589.6379463,35.10407933,16.82160459
590.727924,30.45980578,9.344271144
591.8177047,26.99410035,4.283919561
592.9072884,26.72093454,1.960151136
593.9966751,30.20235468,2.270665018
595.085865,35.39343803,4.588669706
596.1748579,38.81175568,7.905210602
597.2636541,38.377805,11.1615966
598.3522535,35.17340983,13.55916411
599.4406563,32.21439398,14.6607232
600.5288623,31.72973757,14.30427973
601.6168717,33.62859226,12.52672181
602.7046846,35.90097837,9.619204921
603.7923009,36.0944167,6.217869584
604.8797208,32.72572319,3.255992163
605.9669443,25.88907407,1.753074498
607.0539713,17.04537922,2.56582004
608.1408021,8.410209263,6.245774958
609.2274365,2.278482883,13.0712197
610.3138748,0.363417006,23.1960621
611.4001168,3.08170782,36.74923794
612.4861627,9.18461882,53.76010714
613.5720125,16.51474599,73.9729491
614.6576662,23.6004277,96.74038056
615.743124,30.36015269,121.079339
616.8283858,37.03811651,145.7977579
617.9134517,42.91085466,169.6134169
618.9983217,46.6546966,191.316926
620.082996,47.88654582,209.9984254
621.1674744,47.69667007,225.1835657
622.2517572,47.45249065,236.723798
623.3358443,47.45082083,244.5264278
624.4197358,47.00334957,248.3651832
625.5034317,45.62150549,247.9226454
626.586932,43.5541719,243.0295572
627.6702369,40.77822208,233.9469191
628.7533464,35.93421622,221.4976141
629.8362605,27.26776368,206.9414316
630.9189792,15.04050268,191.6661442
632.0015027,2.646710803,176.8667279
633.0838309,-5.383836581,163.3152985
634.1659639,-7.003264058,151.2472155
635.2479018,-4.278040145,140.412542
636.3296446,-1.300379152,130.3186292
637.4111923,-0.648784648,120.5475262
638.492545,-1.800442012,110.9599917
639.5737027,-2.211476584,101.712092
640.6546656,0.664782372,93.14737387
641.7354335,7.912575395,85.62549812
642.8160067,18.84203511,79.3201709
643.8963851,31.88377763,74.09405779
644.9765687,45.66416808,69.57053437
646.0565577,59.01429165,65.34621841
647.136352,70.29032631,61.14925911
648.2159518,77.5291484,56.8473986
649.295357,80.03762578,52.38313021
650.3745677,79.80232788,47.73819295
651.453584,80.33416976,42.92471092
652.5324059,83.34944966,37.9945334
653.6110335,87.04125951,33.09950794
654.6894667,88.23501873,28.56618056
655.7677057,85.8993757,24.86556809
656.8457504,82.08590237,22.42153761
657.923601,79.53466129,21.32721399
659.0012575,78.41159866,21.12462942
660.07872,75.56569573,20.84916823
661.1559884,67.55889154,19.43522015
662.2330628,54.4600124,16.27082446
663.3099433,40.13801695,11.53692918
664.3866299,29.05840902,6.150714258
665.4631227,23.3381706,1.426560876
666.5394216,22.40719263,-1.35811595
667.6155269,24.37514585,-1.345195616
668.6914384,27.36297906,1.706492254
669.7671563,30.00360666,7.501902614
670.8426806,31.40932875,15.52947986
671.9180114,31.38050022,25.41309538
672.9931486,30.92407415,37.05116382
674.0680924,32.21601897,50.47568371
675.1428427,37.55413267,65.58839984
676.2173997,47.89761821,81.98875938
677.2917633,62.02676416,98.99992516
678.3659337,76.94720135,115.8817781
679.4399109,89.27768652,132.0917369
680.5136948,96.69641491,147.39514
681.5872856,98.82348305,161.7527712
682.6606834,97.35452086,175.1076431
683.7338881,95.06874543,187.2309782
684.8068997,93.80765279,197.6924675
685.8797185,93.03676741,205.9493865
686.9523443,90.76536394,211.5076598
688.0247773,86.053868,214.0513331
689.0970174,80.22957582,213.4540598
690.1690648,75.29863934,209.6786353
691.2409195,71.39916382,202.6973105
692.3125815,66.46627019,192.5649451
693.3840508,58.64684827,179.6225906
694.4553276,48.64494381,164.6427505
695.5264119,39.50854569,148.7287885
696.5973036,34.53615815,133.0053402
697.6680029,35.25543647,118.282785
698.7385099,40.45106339,104.8743717
699.8088244,46.6541502,92.6614625
700.8789467,50.22115206,81.35331816
701.9488767,49.81442853,70.76692417
703.0186145,47.06692435,60.9811541
704.0881601,44.70573488,52.32784553
705.1575136,44.11717293,45.24791135
706.226675,44.77056438,40.08614943
707.2956444,45.67679162,36.94321092
708.3644218,46.85895827,35.66069378
709.4330073,49.14344867,35.90199154
710.5014009,52.94648247,37.23571955
711.5696026,57.94734515,39.18146032
712.6376126,64.00654906,41.21175918
713.7054308,71.60709698,42.72376655
714.7730573,80.46648858,43.02950595
715.8404921,87.75058542,41.4764648
716.9077353,89.06624612,37.76417866
717.974787,82.5940073,32.28539499
719.0416471,71.94143565,26.14531154
720.1083157,63.81510739,20.74778091
721.1747929,62.73746198,17.23770748
722.2410788,68.05599208,16.1966668
723.3071733,75.23041475,17.69775399
724.3730765,79.44238035,21.53767093
725.4387884,78.74743054,27.40075283
726.5043092,75.08891242,34.86515373
727.5696387,72.74269403,43.35635748
728.6347772,75.13416758,52.1760346
729.6997246,82.33460522,60.61395115
730.764481,91.15001518,68.07461484
731.8290465,97.52512343,74.17966073
732.893421,99.30603606,78.83858371
733.9576046,97.26739814,82.24661198
735.0215973,93.80560097,84.76726652
736.0853993,90.88928558,86.73891476
737.1490106,88.9848861,88.29813226
738.2124311,86.84985052,89.27950503
739.275661,81.95181437,89.25896498
740.3387003,72.13190616,87.77053035
741.401549,57.82411531,84.58889469
742.4642072,42.68095581,79.85779281
743.5266749,31.54534465,73.94396234
744.5889522,27.1302789,67.17152574
745.6510392,28.12882679,59.72709535
746.7129358,30.51070596,51.8352294
747.7746421,30.71104847,43.98455277
748.8361581,27.90737488,36.9486793
749.897484,24.0249817,31.55180262
750.9586197,22.15932346,28.34738452
752.0195653,24.62566648,27.43723127
753.0803208,31.54298129,28.51227817
754.1408863,40.7287599,31.01906873
755.2012619,49.11919167,34.34642458
756.2614475,54.64501344,37.98999343
757.3214432,57.14860792,41.64657657
758.3812492,57.90942592,45.18546093
759.4408653,58.15281337,48.50989295
760.5002916,57.71899715,51.42678
761.5595283,55.30897908,53.62891413
762.6185753,50.013338,54.78032355
763.6774327,42.33421081,54.63017002
764.7361006,33.99060336,53.10399964
765.7945789,27.08770423,50.31723697
766.8528678,23.03800156,46.48303306
767.9109672,21.55475913,41.78080871
768.9688772,20.45102215,36.31872564
770.0265979,16.8312028,30.26895316
771.0841294,9.301547534,24.08347205
772.1414715,-0.285764961,18.57923318
773.1986245,-7.313727993,14.73511919
774.2555883,-7.478256496,13.26305489
775.312363,-0.243324515,14.21660071
776.3689486,10.64086012,16.94053697
777.4253452,20.23715424,20.41590209
778.4815529,26.19281875,23.71954603
779.5375716,29.85627323,26.28136054
780.5934014,34.13677987,27.89176734
781.6490423,40.47220354,28.61945347
782.7044945,47.63963305,28.75427858
783.7597579,53.04097587,28.74549243
784.8148327,54.97320189,29.07727274
785.8697187,54.00127015,30.10362033
786.9244161,52.29664396,31.89745078
787.978925,51.44286171,34.19930978
789.0332454,50.88638306,36.55694833
790.0873772,48.75121052,38.62330309
791.1413206,44.02625573,40.3973677
792.1950757,37.59144739,42.21978316
793.2486423,31.08609666,44.55283924
794.3020207,25.24558644,47.73640682
795.3552108,19.78408665,51.86672367
796.4082127,14.73722674,56.79376934
797.4610265,11.26593042,62.16704537
798.5136521,10.47156007,67.50009228
799.5660896,11.44808515,72.27227785
800.6183391,11.46219385,76.09361135
801.6704006,8.751266183,78.90171365
802.7222742,4.771894309,81.07886448
803.7739599,3.084566827,83.3797999
804.8254577,6.044058694,86.68331698
805.8767677,12.89136486,91.71947712
806.9278899,21.09548089,98.90877751
807.9788245,28.97829774,108.2780258
809.0295713,36.72683052,119.3635138
810.0801305,45.35645139,131.1743138
811.1305021,55.01672944,142.3582707
812.1806862,63.97689448,151.5824175
813.2306828,69.3503206,158.0140667
814.2804919,69.49775876,161.7113085
815.3301136,66.07626889,163.6616671
816.379548,63.50633054,165.2992077
817.428795,65.93274248,167.6824183
818.4778548,74.26757268,170.8427257
819.5267273,85.78166772,173.724618
820.5754126,96.17183808,174.7044603
821.6239108,102.1400643,172.3319166
822.6722219,102.7385017,165.9056044
823.720346,99.10166004,155.6695415
824.768283,93.47612702,142.6461013
825.8160331,88.30646422,128.263658
826.8635963,85.34644289,113.9771745
827.9109725,85.05115415,101.0222384
828.958162,86.76332766,90.30956865
830.0051647,89.53146315,82.35388219
831.0519806,92.91209473,77.15865326
832.0986098,97.0071841,74.10181275
833.1450524,101.4301778,71.9661465
834.1913083,104.3596576,69.26059224
835.2373777,103.1295033,64.80392674
836.2832606,95.84025452,58.2738206
837.328957,82.65626776,50.40658835
838.3744669,66.35308938,42.74415441
839.4197905,51.69998746,37.03679715
840.4649277,43.24983437,34.50825082
841.5098787,42.78260223,35.29775843
842.5546433,48.38423075,38.40080903
843.5992218,55.60256798,42.15754259
844.6436141,59.71856514,44.98804536
845.6878203,58.05185669,45.98482735
846.7318404,51.08831958,45.12717779
847.7756744,41.53688729,43.10353368
848.8193225,32.29279015,40.93136649
849.8627846,25.24838275,39.628994
850.9060608,21.34155031,40.03565785
851.9491512,20.73925989,42.70260667
852.9920557,22.6097365,47.78841071
854.0347745,25.21201977,55.01431078
855.0773075,26.81278462,63.73953719
856.1196549,26.67179107,73.13613898
857.1618166,25.20009222,82.4301443
858.2037927,23.39437784,91.15603057
859.2455833,22.13777952,99.28076689
860.2871883,21.52221665,107.0638523
861.3286079,20.50049234,114.7354303
862.3698421,17.76979539,122.2862448
863.4108909,13.45631151,129.5383682
864.4517544,9.517226472,136.3791364
865.4924326,8.097290242,142.9165377
866.5329255,9.839804364,149.4576115
867.5732333,13.98405474,156.3693525
868.6133559,19.61221505,163.899564
869.6532933,26.46618503,172.0042502
870.6930457,34.78667963,180.2544267
871.7326131,44.68371819,187.9172147
872.7719955,55.87345471,194.2307893
873.811193,68.12546847,198.7543282
874.8502055,81.62298532,201.5936095
875.8890333,96.38134598,203.3660034
876.9276762,111.4817441,204.940975
877.9661343,125.5321658,207.1216587
879.0044077,137.9973378,210.4128661
880.0424965,149.5141148,214.9303698
881.0804006,160.6452557,220.4530311
882.1181201,170.7924211,226.5745476
883.1556551,178.7268325,232.8464825
884.1930056,183.8452478,238.797818
885.2301717,186.2420735,243.8348684
886.2671533,185.7150071,247.2053636
887.3039505,181.7368383,248.2304492
888.3405634,174.7437227,246.7214983
889.3769921,166.6095495,243.1989941
890.4132365,159.3018564,238.6488734
891.4492967,153.592676,233.9805209
892.4851727,149.3506449,229.5730338
893.5208646,146.3537045,225.1138504
894.5563725,144.1130431,219.6950907
895.5916964,141.2596059,212.1248832
896.6268362,135.9772905,201.4119939
897.6617922,127.3704765,187.2085953
898.6965642,116.2758173,169.9320893
899.7311524,104.6610239,150.538791
900.7655568,94.28005174,130.194004
901.7997774,85.70668622,110.0488042
902.8338143,78.23757561,91.14287867
903.8676675,70.61009345,74.36103889
904.9013371,62.06851764,60.41655672
905.9348231,52.92731289,49.84183939
906.9681256,44.46727196,42.94463702
908.0012446,38.86603984,39.7273822
909.0341801,38.80518012,39.81210872
910.0669322,45.74119619,42.43735258
911.0995009,58.17722843,46.62376254
912.1318863,72.45148785,51.51517328
913.1640883,85.41600038,56.67061523
914.1961072,95.95133756,62.03430446
915.2279429,104.3595433,67.59990798
916.2595954,111.2334429,73.05885131
917.2910647,116.8317769,77.68438971
918.3223511,120.654101,80.49664576
919.3534543,121.2971017,80.61961307
920.3843747,117.3134864,77.65849501
921.415112,108.8138219,71.89374447
922.4456665,98.1353356,64.15629331
923.4760381,88.44646112,55.45528586
924.5062269,81.37452186,46.63415842
925.5362329,75.81946712,38.28054968
926.5660562,68.86875691,30.83931641
927.5956968,58.22274172,24.73378394
928.6251548,44.45130626,20.37553174
929.6544302,30.88083845,18.06229149
930.683523,20.94150851,17.83116231
931.7124333,16.02369637,19.41138883
932.7411612,15.89168264,22.38406855
933.7697066,19.80934321,26.44643732
934.7980697,26.54879225,31.56324098
935.8262504,34.3619011,37.91031573
936.8542488,41.7088155,45.66681239
937.8820649,47.5774193,54.76423766
938.9096989,51.05039494,64.71630572
939.9371506,51.43773595,74.63661474
940.9644203,49.36073204,83.45052384
941.9915079,47.03668766,90.17675039
943.0184134,46.60631735,94.14017932
944.0451369,48.29299439,95.09528495
945.0716785,50.67634991,93.28409292
946.0980382,52.39112474,89.40963289
947.124216,52.92885501,84.45313565
948.1502119,52.10217515,79.3600189
949.1760261,49.72593316,74.74527053
950.2016586,46.20726115,70.76083247
951.2271093,42.74514217,67.13171124
952.2523784,40.22050221,63.32152598
953.2774659,38.10537094,58.8368308
954.3023718,35.09898856,53.61459933
955.3270962,31.08246191,48.29399176
956.3516391,28.18428249,44.17631503
957.3760006,29.3430568,42.84654195
958.4001806,35.6692538,45.62444447
959.4241793,45.73429545,53.11274935
960.4479967,57.36081947,65.00777692
961.4716329,68.92491874,80.1324316
962.4950878,78.64718835,96.64247315
963.5183615,84.34824136,112.4779678
964.541454,85.32617866,125.9919335
965.5643655,83.8080244,136.3855581
966.5870959,83.26499175,143.6426974
967.6096453,85.26558344,148.1185454
968.6320137,88.42542047,150.2043971
969.6542011,90.05547462,150.2510262
970.6762077,88.25133271,148.5971689
971.6980335,82.795763,145.5214691
972.7196784,75.06272612,141.1275916
973.7411426,67.44028362,135.2535127
974.762426,62.17041577,127.4817998
975.7835288,59.59189836,117.2903287
976.804451,57.17149103,104.3582305
977.8251925,51.27934333,88.9673413
978.8457535,40.89798108,72.28246009
979.866134,29.47153157,56.2414201
980.886334,22.50392345,43.01441638
981.9063536,23.11764277,34.31432907
982.9261929,29.83251545,30.91781343
983.9458517,38.22507769,32.5669715
984.9653303,44.20816974,38.19134089
985.9846287,45.70189717,46.29338929
987.0037468,42.45698355,55.38959056
988.0226847,36.19313793,64.40738229
989.0414426,30.77477159,72.8235907
990.0600203,30.12146453,80.40957999
991.078418,34.86612499,86.83091921
992.0966357,41.65171201,91.51522456
993.1146734,45.94711279,93.88282089
994.1325312,45.4447635,93.64611323
995.1502092,41.31681179,90.9298092
996.1677073,36.94550396,86.22577516
997.1850256,35.48500573,80.29989868
998.2021641,37.97438523,74.08279732
999.219123,43.09624998,68.5356873
1000.235902,48.57128588,64.52942015
1001.252502,53.13579975,62.78175402
1002.268922,57.6546822,63.82379844
1003.285162,64.38105188,67.92886724
1004.301223,74.82310229,75.03461324
1005.317105,88.00889857,84.7764789
1006.332807,100.6714095,96.66030117
1007.348329,109.262201,110.2586985
1008.363673,112.339713,125.2965039
1009.378837,111.5116873,141.5565087
1010.393822,110.1905894,158.6345616
1011.408627,111.5468038,175.6968646
1012.423254,117.0974661,191.4208357
1013.437701,125.4871298,204.1992878
1014.45197,132.0216898,212.59458
1015.466059,131.1647153,215.9021772
1016.479969,120.9074187,214.4920762
1017.4937,104.5543682,209.6613043
1018.507253,88.4164931,203.098452
1019.520626,78.08722813,196.3256852
1020.533821,75.77602573,190.3485822
1021.546837,79.6530537,185.5268934
1022.559674,85.56101354,181.6060625
1023.572333,90.04664568,177.8715068
1024.584812,92.28536689,173.3939351
1025.597114,93.64891363,167.2956123
1026.609236,95.81371506,158.9359412
1027.62118,98.77330845,147.9854227
1028.632946,100.1959307,134.4930317
1029.644533,97.13794994,119.0037722
1030.655942,88.85727374,102.5709728
1031.667172,77.87677435,86.47218408
1032.678224,68.08662051,71.69315658
1033.689098,61.64111633,58.51831741
1034.699793,57.64598717,46.56353961
1035.710311,53.72070562,35.24317243
1036.72065,48.07099945,24.31141955
1037.730811,39.78993565,14.13498198
1038.740794,28.73781854,5.633888535
1039.750599,16.45591665,-0.048834019
1040.760225,6.192242756,-2.05049883
1041.769674,0.838546006,-0.194194683
1042.778945,1.112237266,4.987855309
1043.788039,5.637099863,12.56093783
1044.796954,11.71404294,21.52763155
1045.805692,16.14469439,31.05155604
1046.814251,16.63868105,40.63390466
1047.822633,12.97395847,50.28115837
1048.830838,6.781926919,60.55438564
1049.838865,0.692703975,72.39288455
1050.846714,-2.422685292,86.79101556
1051.854386,-0.604339375,104.5615053
1052.86188,6.13405171,126.3332437
1053.869197,16.16925314,152.6653379
1054.876336,27.8054973,184.0515264
1055.883298,40.40875911,220.783554
1056.890082,54.51399824,262.8766108
1057.89669,71.63477857,310.2111076
1058.90312,94.31201919,362.7431291
1059.909373,125.6110833,420.4638742
1060.915448,167.3634239,483.0453279
1061.921347,218.5526323,549.4775095
1062.927068,275.8784233,618.0028047
1063.932613,335.9402671,686.3343298
1064.93798,396.5203095,751.9588825
1065.943171,456.0174019,812.3915377
1066.948184,512.3944131,865.3288325
1067.953021,562.7977523,908.6662971
1068.957681,603.8122086,940.4570683
1069.962164,632.1773949,959.0144275
1070.96647,645.789739,963.2487669
1071.9706,644.5730236,953.0494735
1072.974553,630.729596,929.407639
1073.978329,607.9800416,894.1740191
1074.981929,579.7319055,849.6413156
1075.985352,546.9167727,798.2098119
1076.988598,507.1874561,742.239194
1077.991668,457.0982382,684.0393335
1078.994562,396.2428974,625.8863559
1079.99728,329.4199668,569.9442652
1080.99982,264.3645519,518.0685147
1082.002185,207.467404,471.6005462
1083.004374,161.3609469,431.2768894
1084.006386,125.377752,397.307665
1085.008222,97.47847109,369.6037541
1086.009882,76.06511068,348.0039665
1087.011365,60.75611601,332.2945386
1088.012673,51.88860963,321.9884254
1089.013805,49.24056554,316.0739475
1090.01476,51.24620044,312.9987368
1091.01554,55.60880825,310.9774074
1092.016144,60.54978333,308.4462852
1093.016572,65.48398739,304.3874243
1094.016824,70.95448993,298.3589561
1095.016901,78.03910938,290.2407895
1096.016801,87.24022718,279.8555836
1097.016526,97.28436833,266.717564
1098.016076,105.0486839,250.131338
1099.015449,107.3078243,229.6673385
1100.014648,102.954706,205.748109
1101.01367,93.66826281,179.9163272
1102.012517,83.06912168,154.538029
1103.011189,75.38876539,132.0425482
1104.009685,73.71382662,114.0903836
1105.008006,78.26807149,101.138626
1106.006152,86.4485171,92.62703876
1107.004122,94.80545588,87.56996402
1108.001917,101.1014914,85.10784921
1108.999537,105.0851595,84.71570947
1109.996982,107.9791219,86.07337888
1110.994251,111.1367935,88.83349531
1111.991346,114.7356267,92.55811322
1112.988265,117.812579,96.91845549
1113.98501,119.8325106,101.9877688
1114.981579,121.9049658,108.3191933
1115.977974,126.0143785,116.662503
1116.974193,133.281306,127.5386448
1117.970238,143.2963614,141.0624243
1118.966108,154.8986295,157.1938148
1119.961804,167.4136483,176.2740918
1120.957324,181.56454,199.5338676
1121.95267,199.7869544,229.2892654
1122.947841,225.7807135,268.6915688
1123.942838,263.2357406,321.0560988
1124.93766,314.3110787,388.9601619
1125.932308,379.1280758,473.4732922
1126.926781,456.4471433,573.8340191
1127.921079,544.2542857,687.6290534
1128.915204,639.7036188,811.2863636
1129.909154,739.2280299,940.5994649
1130.902929,839.1865946,1071.089652
1131.896531,936.535733,1198.234437
1132.889958,1029.069728,1317.702671
1133.883211,1114.907161,1425.60982
1134.876289,1191.302958,1518.664788
1135.869194,1253.985977,1594.151667
1136.861924,1298.224156,1649.859987
1137.854481,1320.709632,1684.096423
1138.846864,1320.103141,1695.815111
1139.839072,1296.104713,1684.880511
1140.831107,1249.24831,1652.439706
1141.822968,1182.381636,1601.19711
1142.814655,1101.58571,1535.282083
1143.806168,1013.961825,1459.617777
1144.797507,923.5588912,1379.068473
1145.788673,830.0198875,1297.808579
1146.779665,731.9718419,1219.126089
1147.770483,631.1677282,1145.458765
1148.761128,532.3741904,1078.387781
1149.751599,439.6996539,1018.654543
1150.741897,354.2621275,966.4310796
1151.732021,275.6818542,921.7847396
1152.721972,205.0923771,884.9942023
1153.71175,146.1364,856.5087159
1154.701354,103.050682,836.6835919
1155.690785,77.78477877,825.5243741
1156.680042,68.53170447,822.4996082
1157.669126,70.48815466,826.3683721
1158.658037,77.95298205,835.0669104
1159.646775,86.36314492,845.8337291
1160.63534,93.17430407,855.6778433
1161.623732,97.18291546,862.0492921
1162.611951,97.42959211,863.4412287
1163.599996,93.53601558,859.6865494
1164.587869,87.31785467,851.7904299
1165.575569,83.10083782,841.324531
1166.563096,84.89256159,829.6649557
1167.55045,92.34459002,817.4662378
1168.537632,100.0934845,804.6410121
1169.52464,102.3070888,790.8104754
1170.511476,98.15364813,775.8603156
1171.498139,92.13928868,760.1743434
1172.48463,88.97318105,744.4655421
1173.470948,89.16574466,729.5384948
1174.457093,90.41922829,716.2708615
1175.443066,92.50518335,705.673871
1176.428867,99.50559823,698.7340822
1177.414495,116.9609217,696.0336763
1178.399951,146.6547583,697.3960742
1179.385234,183.679997,701.7672383
1180.370345,218.9344283,707.42418
1181.355283,245.6910055,712.4451579
1182.34005,264.4860382,715.181857
1183.324644,281.6199733,714.4533586
1184.309066,302.586829,709.4011622
1185.293316,326.4945492,699.2276245
1186.277394,346.5875415,683.141255
1187.2613,356.2151426,660.6059345
1188.245034,354.3873176,631.6520136
1189.228596,345.6085575,596.9276034
1190.211986,334.7540724,557.4298843
1191.195204,322.974085,514.1752086
1192.17825,308.5456496,468.0687348
1193.161125,290.1471943,419.9533256
1194.143827,268.1032377,370.6621902
1195.126358,243.1317288,321.0230266
1196.108718,215.3982675,271.9242521
1197.090905,185.4521056,224.491153
1198.072921,155.5779173,180.1903012
1199.054766,129.5122837,140.6533145
1200.036439,110.4612415,107.2991381
1201.01794,98.91585063,81.02324975
1201.99927,92.00466474,62.11058883
1202.980429,85.72648839,50.37001423
1203.961416,79.20856834,45.37758226
1204.942232,77.00092177,46.59788202
1205.922877,85.9609812,53.20321041
1206.90335,108.4352413,63.71382078
1207.883652,137.9305251,75.86045561
1208.863783,162.2186625,87.00894169
1209.843743,172.2034732,95.04742386
1210.823532,168.7500412,99.15777708
1211.80315,160.8640583,99.88058169
1212.782596,157.1858277,98.43165318
1213.761872,159.5024096,95.84274704
1214.740977,163.7630892,92.52879446
1215.719911,165.4925997,88.39115295
1216.698674,163.2226833,83.17870318
1217.677266,157.7190962,76.84406952
1218.655688,149.8350911,69.80437303
1219.633938,140.1889744,63.05724432
1220.612018,130.2829015,58.02692607
1221.589928,122.5953456,56.10045206
1222.567667,119.1429521,58.10216596
1223.545235,120.1586457,64.05526181
1224.522632,124.170125,73.32060307
1225.499859,129.5045931,84.94605847
1226.476916,136.0659224,97.99519282
1227.453802,145.396387,111.6411415
1228.430518,158.4239517,124.9705051
1229.407064,173.129022,136.7359849
1230.383439,184.6776657,145.3812295
1231.359644,188.1243661,149.4220647
1232.335678,181.702739,147.9970658
1233.311543,168.1508594,141.2886262
1234.287237,152.6327032,130.5604089
1235.262761,138.8160954,117.7726211
1236.238115,126.9402072,104.9633164
1237.2133,115.6026772,93.66496461
1238.188314,104.5849783,84.53552232
1239.163158,95.26587845,77.28618172
1240.137832,88.56722685,70.92541555
1241.112336,83.12658315,64.26499674
1242.086671,75.96869342,56.52970784
1243.060836,65.30873015,47.80393275
1244.034831,52.54368737,39.05621884
1245.008656,41.08587507,31.69556333
1245.982311,33.35983084,26.91670022
1246.955797,29.24007423,25.22046595
1247.929113,27.1270898,26.34973722
1248.90226,26.13800419,29.59147827
1249.875237,27.07837832,34.14393134
1250.848045,30.90314534,39.26069238
1251.820683,36.40164322,44.21950811
1252.793152,40.57947659,48.39252152
1253.765451,41.92664353,51.47075899
1254.737582,42.53263777,53.60037891
1255.709542,46.17409192,55.27184155
1256.681334,54.4671097,57.06423392
1257.652956,65.2745529,59.40567197
1258.624409,74.82071049,62.41718058
1259.595693,81.33267482,65.82828031
1260.566808,86.54793163,68.93406908
1261.537754,93.29309597,70.62653073
1262.508531,101.7531189,69.65822114
1263.479139,108.6949512,65.19666696
1264.449577,110.1704854,57.40630319
1265.419847,104.6907784,47.66482169
1266.389948,94.42150167,38.20701485
1267.359881,83.78549052,31.31196454
1268.329644,76.46555497,28.39218961
1269.299239,73.04817318,29.4290411
1270.268665,71.3300447,33.06890311
1271.237922,68.88427435,37.33497279
1272.207011,65.06668978,40.52039843
1273.175931,60.34467589,41.77254462
1274.144682,54.42648666,41.21628145
1275.113265,46.47625043,39.78056169
1276.08168,37.58838889,38.84439447
1277.049926,31.90610175,39.69350164
1278.018003,33.9179303,42.89312084
1278.985912,44.19625465,47.89318432
1279.953653,58.14156653,53.14879965
1280.921226,69.3193197,56.73406244
1281.88863,74.22658216,57.11779005
1282.855866,74.0097026,53.68403298
1283.822934,71.73376026,46.78761877
1284.789834,68.46834779,37.53759196
1285.756566,62.95872706,27.64269916
1286.723129,54.99912577,19.30701159
1287.689525,47.69460924,14.90331593
1288.655752,45.86496622,16.40170858
1289.621812,52.77199279,24.81723836
1290.587704,68.10871678,39.90991875
1291.553428,88.3922647,60.24622165
1292.518984,109.3379763,83.66587038
1293.484372,128.3409853,108.0177586
1294.449592,144.8572186,131.8110488
1295.414645,158.9504691,154.5028882
1296.37953,170.5927039,176.4395676
1297.344247,180.6637775,198.5596259
1298.308797,191.5385271,221.8689832
1299.27318,205.6446494,246.7824552
1300.237394,223.3933437,272.6631617
1301.201441,242.7961816,297.8532786
1302.165321,260.8475337,320.1633096
1303.129034,274.7422417,337.5325517
1304.092578,282.0962916,348.601804
1305.055956,281.3133088,353.0415754
1306.019166,272.4137804,351.4864309
1306.982209,256.9985346,345.0803468
1307.945085,237.3159387,334.975355
1308.907794,215.9141745,322.1222956
1309.870335,195.4404591,307.3064407
1310.83271,177.3120818,291.2043883
1311.794917,160.722668,274.4047377
1312.756957,143.7548218,257.3955411
1313.718831,125.1314464,240.4687621
1314.680537,104.6794882,223.6249247
1315.642076,83.03713937,206.6631448
1316.603449,61.58208775,189.4263512
1317.564654,42.40182183,171.9743109
1318.525693,27.90318089,154.5726358
1319.486565,19.63921167,137.5493966
1320.447271,16.56257437,121.128735
1321.407809,14.94594153,105.4105601
1322.368181,11.49122639,90.59040762
1323.328387,6.832986869,77.2061248
1324.288426,5.261750803,66.07359098
1325.248298,10.70249942,57.87927793
1326.208004,22.87035148,52.7599173
1327.167543,37.12494614,50.202203
1328.126916,48.0081771,49.27910472
1329.086122,53.04803316,48.99592016
1330.045162,53.65657354,48.58661728
1331.004036,53.30551005,47.72807405
1331.962744,55.08475062,46.59365296
1332.921285,59.95594151,45.68293086
1333.87966,66.40216988,45.55736918
1334.837869,71.74971569,46.68022385
1335.795912,74.14331785,49.41367669
1336.753788,73.71131906,54.09197846
1337.711499,72.58843871,61.03841673
1338.669043,74.10809295,70.39182896
1339.626422,81.11984241,81.73343567
1340.583635,93.82588277,93.76494005
1341.540682,108.7213809,104.4169664
1342.497562,119.9856689,111.5186303
1343.454278,122.9659168,113.7274262
1344.410827,117.7004375,111.1779418
1345.36721,109.3711856,105.4269239
1346.323428,104.2278182,98.68833943
1347.279481,104.3153335,92.8546887
1348.235367,106.3554782,88.90662165
1349.191088,105.4451543,86.91754176
1350.146643,99.12137242,86.44455937
1351.102033,88.36404468,87.02028003
1352.057258,76.29051148,88.54645388
1353.012316,66.48888586,91.41520692
1353.96721,61.37215243,96.2641616
1354.921938,60.72152061,103.5410427
1355.876501,61.71703685,113.2481989
1356.830898,60.97609649,125.0447435
1357.785131,56.91458459,138.5363363
1358.739198,50.57836193,153.5017632
1359.693099,44.72859292,169.9229194
1360.646836,41.87623884,187.7825961
1361.600408,42.49112383,206.7421896
1362.553814,44.78219463,225.9635408
1363.507055,46.2429922,244.2668241
1364.460132,45.57366068,260.5708185
1365.413043,43.54028716,274.3836031
1366.36579,42.49955078,286.0801828
1367.318371,45.1647835,296.8032275
1368.270788,53.20271484,308.049802
1369.22304,66.18279886,321.2232472
1370.175127,81.98734637,337.4472678
1371.12705,99.26690641,357.6931933
1372.078808,119.8308794,383.0044052
1373.030401,147.8360685,414.583031
1373.981829,186.575042,453.7020116
1374.933093,236.9999854,501.5101796
1375.884192,298.9563469,558.7029658
1376.835127,371.9012164,625.0308549
1377.785897,453.7730074,698.8521437
1378.736503,540.3890587,777.0598926
1379.686945,626.7430831,855.4842315
1380.637222,708.6462904,929.5711274
1381.587335,783.0731185,995.0734377
1382.537283,847.3461479,1048.581755
1383.487067,898.3556392,1087.788485
1384.436687,932.7981246,1111.433254
1385.386143,948.2503207,1119.013941
1386.335435,944.3683815,1110.5018
1387.284562,923.6631763,1086.27951
1388.233526,890.8544156,1047.269515
1389.182325,850.2211907,994.9893386
1390.130961,802.7962658,931.3740567
1391.079432,746.1696366,858.5341176
1392.02774,677.2862176,778.7200518
1392.975883,596.1416585,694.5016317
1393.923863,507.6380277,608.8846608
1394.871679,419.870509,525.1266155
1395.819332,339.9548012,446.3098093
1396.76682,271.297547,374.9318331
1397.714145,214.5393922,312.65985
1398.661306,169.7502813,260.1761032
1399.608304,136.7018819,217.0612438
1400.555137,113.8629093,181.8526859
1401.501808,98.3586634,152.412286
1402.448315,86.89394034,126.5061663
1403.394658,76.42531994,102.3616967
1404.340838,64.37821649,79.0710759
1405.286855,49.03012216,56.82762798
1406.232708,30.22161097,36.92944732
1407.178397,9.748475962,21.46641137
1408.123924,-9.082914583,12.81227763
1409.069287,-22.25610938,13.20835531
1410.014487,-25.82629224,24.56171646
1410.959524,-17.11860743,48.30853282
1411.904398,4.218382056,85.18983455
1412.849108,36.82047588,135.0223246
1413.793656,79.29555381,196.6754442
1414.73804,130.8244904,268.3368356
1415.682262,190.5952789,347.9401725
1416.62632,257.7814514,433.5300044
1417.570216,332.3627772,523.3678551
1418.513949,415.2147964,615.7033778
1419.457519,506.5776929,708.3410897
1420.400926,604.1539315,798.3536945
1421.34417,702.9100812,882.2644023
1422.287251,796.9648928,956.6332121
1423.23017,881.7428984,1018.636216
1424.172926,954.3755338,1066.325792
1425.11552,1012.374105,1098.605985
1426.057951,1052.574246,1115.129767
1427.000219,1072.006531,1116.259375
1427.942325,1070.137926,1103.072656
1428.884268,1050.095643,1077.287143
1429.826049,1017.209258,1041.033331
1430.767667,975.9410944,996.5782191
1431.709123,928.1347563,946.1484961
1432.650417,874.2194199,891.8671402
1433.591549,815.763186,835.6649385
1434.532518,756.1405546,779.0576532
1435.473325,698.0991011,722.9113203
1436.413969,640.990452,667.4845863
1437.354452,581.7524578,612.8487403
1438.294772,519.3515635,559.3634015
1439.234931,457.3568307,507.7296862
1440.174927,401.3086967,458.5349039
1441.114761,353.956118,411.7461789
1442.054434,313.4290553,366.6920447
1442.993944,275.5659987,322.631008
1443.933292,237.6055042,279.4642816
1444.872479,199.8922895,237.9661541
1445.811504,164.7438213,199.3334456
1446.750367,134.2229524,164.4967569
1447.689068,108.7711678,133.7602323
1448.627607,87.36950441,106.9321874
1449.565985,69.03091367,83.75289951
1450.504201,54.3980703,64.2955013
1451.442256,45.35889855,49.02049914
1452.380149,42.53620068,38.41922216
1453.31788,43.67113498,32.57249998
1454.25545,45.22316181,31.01226529
1455.192859,45.30978923,32.92248017
1456.130106,44.48924428,37.4203196
1457.067191,43.87463162,43.72349081
1458.004115,43.3521718,51.21854618
1458.940878,42.3926315,59.4999119
1459.87748,42.26815656,68.35654496
1460.81392,45.90492323,77.64108898
1461.7502,54.59222105,87.08884634
1462.686317,65.76076115,96.31979584
1463.622274,75.26766488,105.147672
1464.55807,81.79679419,113.9306809
1465.493705,88.1930951,123.5039451
1466.429178,98.25177259,134.5692059
1467.364491,112.7014788,146.960912
1468.299643,128.7805453,159.3836154
1469.234633,143.2105096,169.8307951
1470.169463,154.4815153,176.3670893
1471.104132,162.3141686,177.8136178
1472.03864,166.3527091,174.0853597
1472.972988,166.1964948,166.1022622
1473.907174,161.9474914,155.3268151
1474.8412,154.0525582,143.1945983
1475.775066,143.2084113,130.7846999
1476.70877,130.9898928,118.8091131
1477.642314,119.6778492,107.7055194
1478.575698,110.4300048,97.67767316
1479.508921,102.1445841,88.75272499
1480.441983,93.06173635,80.91689341
1481.374885,83.09518217,74.23178106
1482.307627,73.71969414,68.8618287
1483.240208,65.91184348,65.08837164
1484.172629,59.36879867,63.35607935
1485.104889,54.21831474,64.25273125
1486.036989,52.60583389,68.30189879
1486.968929,57.29125563,75.58166803
1487.900709,68.22134219,85.36885835
1488.832329,81.11360763,96.10015732
1489.763788,90.19952706,105.7757359
1490.695087,92.44862231,112.5926536
1491.626227,88.96344078,115.4460468
1492.557206,82.82145286,114.1246282
1493.488025,76.51222848,109.2669428
1494.418685,71.34747762,102.1636086
1495.349184,67.9034216,94.41578665
1496.279523,66.01666516,87.53472512
1497.209703,64.99132218,82.64832396
1498.139723,64.64304979,80.36746956
1499.069583,65.72072847,80.73765569
1499.999283,68.67144309,83.27752461
1500.928824,72.43561652,87.18800663
1501.858205,75.33473255,91.71202998
1502.787426,77.17552887,96.44933313
1503.716488,79.85842071,101.3986172
1504.64539,85.78568898,106.6966935
1505.574133,95.90697416,112.2649388
1506.502716,109.0318172,117.6210757
1507.43114,122.4644135,121.9729238
1508.359404,133.1469035,124.5175437
1509.287509,138.8988187,124.7512501
1510.215454,139.6154563,122.6195078
1511.14324,137.6647599,118.4564082
1512.070867,136.4738994,112.7787624
1512.998335,137.8644371,106.0433437
1513.925643,140.692852,98.49718756
1514.852793,142.4723608,90.21835675
1515.779783,142.0339357,81.2897761
1516.706614,139.9439137,71.93685655
1517.633286,136.7521692,62.57539121
1518.559799,132.2893784,53.86047919
1519.486153,127.171155,46.72197817
1520.412348,123.8468283,42.22386843
1521.338384,125.3644718,41.22598215
1522.264261,133.4071589,44.04963622
1523.18998,147.4369347,50.3223092
1524.115539,165.106239,59.01830565
1525.04094,183.406907,68.62918192
1525.966182,199.7621001,77.4016535
1526.891265,212.2715619,83.63255706
1527.81619,219.344308,86.02728097
1528.740956,219.8938268,84.06323571
1529.665563,214.3538029,78.19881469
1530.590012,205.1100776,69.78893437
1531.514302,195.5033229,60.73072963
1532.438434,188.468412,53.01919032
1533.362407,185.8916593,48.33636595
1534.286222,188.3874929,47.66450581
1535.209879,195.0683621,50.95823507
1536.133377,203.6435122,57.07395263
1537.056717,211.0607993,64.13330619
1537.979898,214.3711366,70.24438579
1538.902921,211.8133361,74.26495596
1539.825786,204.0052223,76.23807814
1540.748493,194.0436086,77.26347568
1541.671042,185.5470482,78.85692607
1542.593432,180.0889758,82.16735121
1543.515665,176.4463504,87.48664485
1544.43774,172.0289139,94.21256319
1545.359656,164.6996559,101.1248381
1546.281415,153.3937191,106.7858412
1547.203015,137.6322025,109.9926273
1548.124458,117.2586307,110.2538297
1549.045743,93.13056845,108.1359543
1549.96687,67.70849556,105.2205519
1550.887839,44.36554073,103.6225638
1551.80865,26.01510692,105.3409834
1552.729304,14.27228503,111.7631856
1553.6498,9.465312442,123.4417206
1554.570138,11.18831884,140.1047307
1555.490319,18.74420826,160.7943314
1556.410342,30.87563749,184.0755544
1557.330208,45.28585183,208.3707764
1558.249916,59.19843971,232.4493549
1559.169466,71.11318285,255.911416
1560.08886,82.22281929,279.3594509
1561.008095,95.68223966,304.0402489
1561.927174,113.822399,331.0792898
1562.846095,136.105983,360.7590718
1563.764859,160.2014927,392.2483872
1564.683465,184.727459,423.8066722
1565.601914,210.0794027,453.1948581
1566.520206,236.3748927,478.0774648
1567.438341,261.0910015,496.4212241
1568.356319,279.2750644,506.9580601
1569.27414,286.6471129,509.6137378
1570.191803,282.9795305,505.6198342
1571.10931,272.4686137,497.0771681
1572.026659,260.7392767,486.094056
1572.943852,251.4343641,473.9787962
1573.860888,244.9339999,460.9081418
1574.777766,239.0727419,446.1177531
1575.694488,230.6199198,428.4116349
1576.611053,216.881522,406.7656285
1577.527462,197.1081069,380.8197893
1578.443713,173.0127207,351.0974597
1579.359808,147.9211236,318.9152104
1580.275747,125.3057423,286.0664499
1581.191528,107.8271788,254.3772455
1582.107153,96.89236909,225.2268206
1583.022622,92.23859758,199.1923071
1583.937933,92.00295386,176.0140534
1584.853089,94.00622789,154.9044489
1585.768088,97.1974589,134.9624675
1586.68293,101.3304549,115.4450521
1587.597616,105.4240202,95.89627992
1588.512146,107.404835,76.25784574
1589.426519,105.3921567,56.9399876
1590.340736,99.09149149,38.74583265
1591.254797,89.91489565,22.62660548
1592.168702,79.76950612,9.370821624
1593.08245,70.03262994,-0.596236007
1593.996042,61.83465406,-7.210176714
1594.909478,56.29583727,-10.67587988
1595.822758,53.44522658,-11.42184767
1596.735882,51.32625032,-10.07563316
1597.64885,47.11651222,-7.344366138
1598.561662,39.42664052,-3.78231957
1599.474318,29.52261119,0.401626733
1600.386819,20.32976118,5.31810656
1601.299163,14.33842627,11.16680001
1602.211351,12.52361811,17.99922559
1603.123384,14.72562893,25.63511097
1604.035261,20.12035804,33.74100594
1604.946982,27.10896688,41.99401075
1605.858547,33.42956821,50.23652312
1606.769957,37.09044649,58.53756425
1607.681211,37.38575551,67.13710922
1608.592309,34.96309003,76.32505247
1609.503252,31.27391156,86.31880295
1610.414039,28.18631622,97.14559306
1611.324671,27.48782883,108.506767
1612.235147,30.04220554,119.6757753
1613.145468,34.97219719,129.5334588
1614.055634,39.63821024,136.8210542
1614.965644,41.18079027,140.5884661
1615.875499,38.71898319,140.6119041
1616.785198,33.95368909,137.466975
1617.694743,29.59824802,132.2097696
1618.604132,27.39761355,125.9315019
1619.513366,27.37166459,119.4852504
1620.422444,28.52609568,113.4804249
1621.331368,30.42309586,108.4071906
1622.240136,34.43109822,104.647868
1623.14875,43.17825373,102.2551099
1624.057208,57.86808536,100.6692282
1624.965512,75.88284685,98.73013098
1625.87366,91.83991336,95.1448173
1626.781654,101.6142355,89.15752284
1627.689492,105.2093907,80.98999278
1628.597176,105.7979913,71.84157259
1629.504705,106.6427601,63.51399341
1630.412079,109.2924438,57.82975882
1631.319299,114.1651637,56.00943794
1632.226364,121.4835753,58.18317421
1633.133274,130.4807928,63.23799318
1634.040029,138.1990123,69.17139873
1634.94663,140.5083792,73.88829225
1635.853076,134.9266344,76.04145566
1636.759368,122.5919669,75.46304324
1637.665505,107.7816097,73.01532412
1638.571488,95.2799296,70.01872859
1639.477316,87.47147596,67.63498541
1640.38299,83.42347933,66.54788689
1641.28851,80.39021034,66.97265367
1642.193875,76.21892757,68.76577342
1643.099086,70.81407063,71.43819467
1644.004142,65.66134667,74.09111064
1644.909045,61.76625482,75.49126033
1645.813793,57.84696002,74.50288258
1646.718387,51.03519732,70.81511205
1647.622827,40.21441137,65.52830452
1648.527112,28.74894991,61.09495721
1649.431244,23.25621427,60.50227826
1650.335222,29.15570424,66.07532143
1651.239045,46.88693508,78.45647777
1652.142715,71.63432795,96.23352429
1653.046231,96.26634048,116.4248923
1653.949593,114.9677128,135.616606
1654.852801,125.3755242,151.1847843
1655.755855,128.9420606,162.0001049
1656.658755,129.6613005,168.3184902
1657.561502,131.2713905,171.0556686
1658.464095,134.7804848,171.0092415
1659.366534,138.5360476,168.4927589
1660.26882,140.3230336,163.4117614
1661.170952,139.0823,155.5190478
1662.07293,134.8099479,144.6043929
1662.974755,127.3229628,130.5522235
1663.876426,115.6815501,113.3801127
1664.777944,99.08663226,93.39081491
1665.679308,78.24554072,71.43540145
1666.580519,55.64507222,49.13602754
1667.481576,34.4540803,28.85765295
1668.382481,17.47754114,13.30907018
1669.283231,7.40138162,4.853419208
1670.183829,7.156760582,4.763993003
1671.084273,18.54550349,12.70483235
1671.984564,39.91429165,26.66477846
1672.884702,65.51556562,43.43107931
1673.784687,87.79874047,59.48868937
1674.684518,101.2533795,72.04038439
1675.584197,104.9478715,79.74137727
1676.483722,102.1863523,82.85046575
1677.383095,98.25645169,82.82861794
1678.282314,97.88966319,81.65996965
1679.181381,103.1669153,81.15936661
1680.080294,112.7091425,82.43023268
1680.979055,123.0833575,85.61119976
1681.877663,131.6331238,89.97947576
1682.776118,138.2465375,94.30556077
1683.67442,144.3536697,97.24778736
1684.57257,150.16028,97.66056411
1685.470567,153.0929258,94.86120218
1686.368411,149.5747363,88.9213193
1687.266102,138.8642513,80.8740902
1688.163641,125.0948574,72.59485428
1689.061027,115.0572743,66.24187839
1689.958261,113.4365832,63.48426148
1690.855342,119.9964486,64.95043004
1691.752271,131.018887,70.14822584
1692.649047,142.4388707,77.74604291
1693.545671,151.2832817,85.98191071
1694.442143,155.6969831,93.10123377
1695.338462,155.4191861,97.80344345
1696.234629,152.3616635,99.61404408
1697.130643,149.874176,99.04530868
1698.026505,151.139248,97.45016104
1698.922216,157.9905367,96.57688288
1699.817773,170.2658696,97.92519468
1700.713179,185.6559189,102.1259872
1701.608433,201.1445438,108.6547557
1702.503534,215.7010465,116.0501662
1703.398484,231.0211353,122.4529096
1704.293281,248.6095327,126.1080224
1705.187927,266.2675926,125.665062
1706.08242,278.1086257,120.3601162
1706.976762,278.5422138,110.2053662
1707.870952,266.8543486,96.15316263
1708.76499,248.141039,80.01943111
1709.658876,229.3218043,64.00574227
1710.55261,213.8007923,50.01835913
1711.446193,199.9374675,39.2392471
1712.339624,184.611289,32.17638654
1713.232903,167.5236134,28.95089635
1714.12603,151.3704127,29.45720622
1715.019006,138.8422905,33.36497362
1715.911831,130.9286378,40.15672318
1716.804504,127.4976226,49.23555781
1717.697025,127.8530135,59.99988509
1718.589395,130.5358466,71.8637725
1719.481613,133.4176464,84.24775964
1720.37368,134.4187317,96.54493777
1721.265595,132.3723573,108.1148946
1722.15736,127.7637275,118.3720287
1723.048973,123.0485511,126.9131006
1723.940434,121.5131143,133.5116323
1724.831745,124.3732939,137.8967899
1725.722904,128.6758169,139.5084105
1726.613912,129.0448467,137.5294571
1727.504768,121.872646,131.2407028
1728.395474,107.5509794,120.4648854
1729.286029,89.34153277,105.8513568
1730.176432,70.89924065,88.84553555
1731.066685,54.33770461,71.31528699
1731.956786,39.79844609,55.04420794
1732.846737,26.69933956,41.3902177
1733.736537,15.23488646,31.20175291
1734.626185,6.403291582,24.89062257
1735.515683,1.069701291,22.58061895
1736.405031,-0.174606637,24.27388274
1737.294227,3.542210135,29.87707731
1738.183272,12.89587967,38.96673096
1739.072167,26.66391721,50.47968703
1739.960911,40.88791255,62.70721522
1740.849505,50.64491023,73.74058406
1741.737948,53.39403094,82.12481337
1742.62624,50.84101361,87.30356086
1743.514382,47.5449959,89.61557947
1744.402373,47.85149458,89.88347438
1745.290214,53.71190372,88.87412318
1746.177904,64.10586613,86.95130114
1747.065444,75.91860961,84.11461318
1747.952833,86.34183048,80.362368
1748.840073,95.11606883,76.04635092
1749.727161,103.9993715,71.90592659
1750.6141,114.0788434,68.79803009
1751.500888,124.3617684,67.39030519
1752.387526,133.2148501,68.00702181
1753.274014,140.4841842,70.58993559
1754.160351,147.5080101,74.69276071
1755.046539,155.2504377,79.5769593
1755.932576,163.1394645,84.47533125
1756.818464,169.9041243,88.85859188
1757.704201,175.1404738,92.46416902
1758.589788,179.6637143,95.08795849
1759.475225,183.995031,96.37490328
1760.360513,186.6962409,95.8657982
1761.24565,185.2171064,93.33855246
1762.130638,179.0248154,89.13803085
1763.015476,171.2398751,84.10279616
1763.900164,166.2471443,79.06530722
1764.784702,165.681459,74.35936894
1765.66909,167.2938014,69.74733433
1766.553329,167.3629162,64.78194575
1767.437418,163.3562233,59.26810031
1768.321358,154.949616,53.51551887
1769.205148,144.0767895,48.27579546
1770.088788,133.9345856,44.4008199
1770.972279,126.588902,42.41802879
1771.85562,121.2444127,42.34438532
1772.738812,115.6839112,43.89230402
1773.621854,109.4125767,46.81116146
1774.504747,104.3492981,50.97198989
1775.38749,102.4036865,56.17752694
1776.270084,103.497393,62.01454314
1777.152529,106.0943244,67.91653444
1778.034825,108.7806089,73.34354096
1778.916971,111.0314999,77.96206421
1779.798968,112.7846778,81.75090686
1780.680816,113.8829413,84.95664751
1781.562515,114.7346887,87.89361724
1782.444065,117.1728589,90.65413515
1783.325465,123.0175721,92.84466397
1784.206717,131.1241702,93.55410241
1785.087819,136.8295184,91.70467091
1785.968773,135.2085852,86.64324955
1786.849577,125.0523421,78.58370106
1787.730233,109.7173016,68.61472969
1788.610739,94.40105525,58.31853966
1789.491097,82.78028993,49.27018123
1790.371306,75.63299946,42.66106869
1791.251367,71.58532692,39.14720747
1792.131278,68.81852581,38.92459362
1793.011041,66.65078486,41.95436216
1793.890655,66.22607134,48.16146734
1794.77012,69.84973135,57.42340075
1795.649437,79.20128837,69.34801702
1796.528605,93.65331793,83.07715995
1797.407625,110.104547,97.37099834
1798.286496,124.640756,110.9819789
1799.165218,134.8845171,123.0583545
1800.043792,141.2349709,133.2638945
1800.922218,146.1031069,141.5147807
1801.800495,151.9300999,147.5459477
1802.678624,159.2609877,150.6506889
1803.556604,165.6750798,149.8094445
1804.434436,166.6207454,144.1888584
1805.31212,158.5396268,133.7421174
1806.189656,142.0769782,119.5337834
1807.067043,122.3089232,103.5416618
1807.944283,105.7545924,88.05800503
1808.821374,96.84452635,75.05436805
1809.698317,96.29142405,65.772298
1810.575112,101.6230942,60.54726942
1811.451758,108.9364837,58.80265444
1812.328257,114.9888938,59.25112049
1813.204608,118.5055774,60.32317595
1814.080811,119.7504031,60.66958914
1814.956866,119.0817598,59.51573085
1815.832773,116.3824267,56.78444497
1816.708532,111.9169601,53.05936188
1817.584143,107.273778,49.43689839
1818.459607,105.1565674,47.21413335
1819.334923,107.9019704,47.37513987
1820.210091,115.6070752,50.04356024
1821.085111,125.5096521,54.24992579
1821.959984,133.3291139,58.22829344
1822.834709,135.2988525,60.10934346
1823.709286,129.6262072,58.6649085
1824.583716,117.130848,53.77073211
1825.457998,100.8687601,46.38973288
1826.332133,84.6303675,38.12475806
1827.20612,71.27648399,30.62656116
1828.07996,62.01467217,25.12918787
1828.953653,56.55101331,22.24238651
1829.827198,53.72331841,21.97858391
1830.700596,52.24374301,23.90125413
1831.573846,50.74630234,27.26290194
1832.446949,47.44521785,31.1496345
1833.319905,40.81411838,34.74442725
1834.192714,30.82371228,37.63928136
1835.065375,19.03280722,39.96228097
1835.93789,7.669573374,42.22858924
1836.810257,-1.101187583,45.05991684
1837.682477,-5.609299887,48.94936699
1838.55455,-5.292937136,54.09646455
1839.426476,-1.306916967,60.27080877
1840.298255,3.645067461,66.7729084
1841.169887,6.689475053,72.63628793
1842.041372,6.555668496,77.05200419
1842.91271,4.245803643,79.76485322
1843.783901,2.126996273,81.17758597
1844.654946,2.42783218,82.09700009
1845.525844,6.16236944,83.25356222
1846.396594,12.81953999,84.82965205
1847.267199,20.59464786,86.2736033
1848.137656,27.03565353,86.56730204
1849.007967,30.1837943,84.82072064
1849.878131,29.9694786,80.79951414
1850.748148,28.84095941,75.04720541
1851.618019,30.24063309,68.55104616
1852.487743,35.34039355,62.21415414
1853.357321,41.50558842,56.53595784
1854.226753,44.90348731,51.66836823
1855.096037,44.16240943,47.60091772
1855.965176,40.85519132,44.1926437
1856.834168,37.22766455,41.11750706
1857.703014,34.3716815,37.96193369
1858.571713,32.2864959,34.49992878
1859.440266,30.8732536,30.89905948
1860.308673,30.54880871,27.63537387
1861.176933,32.04086813,25.17968817
1862.045047,35.63679038,23.71377114
1862.913016,40.78754607,23.08343888
1863.780838,46.81921701,22.99421972
1864.648513,53.72173763,23.23174116
1865.516043,61.48788206,23.6830573
1866.383427,68.83244742,24.17397592
1867.250665,73.3183833,24.354469
1868.117756,72.9637482,23.80442704
1868.984702,67.73080483,22.30992713
1869.851502,59.78967541,20.0843597
1870.718156,52.51587959,17.72782302
1871.584664,48.73587229,15.93869823
1872.451026,49.08443408,15.18920145
1873.317243,51.55067879,15.5876379
1874.183314,52.98905607,16.99287408
1875.049239,51.69718141,19.2555388
1875.915018,48.41114077,22.36845752
1876.780651,44.83593097,26.42342375
1877.646139,41.98817863,31.47363705
1878.511482,40.28535946,37.44358761
1879.376679,40.45704581,44.10298933
1880.24173,43.57352254,51.02676682
1881.106635,49.96262089,57.51175497
1881.971396,58.02020366,62.54767894
1882.83601,64.25804805,65.01782561
1883.70048,65.27692962,64.20212572
1884.564804,60.45078188,60.35481747
1885.428982,52.82110898,54.87454047
1886.293016,47.14512516,49.7933496
1887.156904,46.79510993,46.84700836
1888.020646,52.01833394,46.72655932
1888.884244,60.49536444,48.92814231
1889.747696,69.22107387,52.17344785
1890.611003,76.14837215,55.05273246
1891.474165,80.69098548,56.53229037
1892.337182,83.36438539,56.1856869
1893.200054,85.17004593,54.20848015
1894.06278,86.96713197,51.30256962
1894.925362,89.1134577,48.45858324
1895.787799,91.59513527,46.64678361
1896.650091,94.29488901,46.47136319
1897.512238,97.13988617,47.92727005
1898.374239,100.3148298,50.41640078
1899.236097,104.4809513,53.04643694
1900.097809,110.5358908,55.01909149
1900.959376,118.7139498,55.83395495
1901.820799,127.5762017,55.24095325
1902.682077,134.0400718,53.16882302
1903.54321,135.3504456,49.87123548
1904.404199,132.0419764,46.18229325
1905.265043,128.8859703,43.45558048
1906.125742,131.9931862,42.9481099
1906.986297,144.1078722,44.99970882
1907.846707,161.9753722,48.64947466
1908.706973,177.9729977,52.02590336
1909.567094,184.999598,53.28360225
1910.427071,180.7898228,51.48530987
1911.286903,168.1818186,46.89530634
1912.146591,151.9713702,40.63874508
1913.006135,135.9362572,34.12117228
1913.865534,121.8538583,28.59166382
1914.724789,109.8492513,24.93887032
1915.5839,99.30621476,23.63890208
1916.442866,90.0195795,24.79904515
1917.301688,82.71093838,28.26732239
1918.160366,78.15880486,33.75116256
1919.0189,75.99775606,40.92355623
1919.87729,75.05010359,49.56291347
1920.735536,74.77063268,59.6918556
1921.593638,75.59214318,71.5686042
1922.451595,77.94349206,85.48901222
1923.309409,81.80650977,101.5131329
1924.167079,87.4431103,119.2222946
1925.024604,95.77647413,137.5647896
1925.881986,107.1289887,154.8751937
1926.739224,119.3898705,169.1708491
1927.596318,127.9527326,178.724643
1928.453269,128.3129209,182.7171892
1929.310075,119.8525938,181.6364053
1930.166738,107.3690329,177.1272337
1931.023257,97.99533636,171.2761216
1931.879633,95.88904768,165.7199306
1932.735865,99.71455648,161.1350324
1933.591953,104.7623636,157.3716989
1934.447897,107.0728663,154.0200436
1935.303698,106.0629408,150.945294
1936.159356,104.2683525,148.4756198
1937.01487,105.0391698,147.2510908
1937.87024,109.9038885,147.9372014
1938.725468,117.5309818,151.0101865
1939.580551,125.4328281,156.709135
1940.435492,132.7424281,165.053595
1941.290289,140.7192065,175.7213518
1942.144942,150.5232785,187.7811595
1942.999453,161.2696984,199.5482382
1943.85382,170.3826191,208.7848029
1944.708044,175.2473827,213.2223823
1945.562124,174.3439098,211.2217143
1946.416062,167.2236015,202.3387388
1947.269856,154.0519532,187.5466368
1948.123508,135.8845862,169.0212961
1948.977016,115.6193593,149.5916716
1949.830381,97.86788123,132.0141585
1950.683603,86.37503595,118.2456872
1951.536683,81.03096104,108.9934282
1952.389619,77.99553195,103.7816992
1953.242412,72.98090391,101.4607476
1954.095063,64.31174511,100.8306713
1954.947571,53.34165244,101.0844676
1955.799935,42.641463,101.9407823
1956.652157,34.01967299,103.5283341
1957.504237,27.98870569,106.1922153
1958.356173,24.54601376,110.3057772
1959.207967,24.02291596,116.0383747
1960.059618,26.90459328,123.0734128
1960.911127,32.72604961,130.4353236
1961.762493,39.4048484,136.6206497
1962.613716,43.87089093,140.045296
1963.464797,43.41721256,139.6113042
1964.315735,37.16919287,135.1594948
1965.166531,27.14593251,127.6438962
1966.017184,17.88475371,118.9311406
1966.867695,14.2642831,111.2490567
1967.718064,18.79810723,106.4421255
1968.56829,30.34434782,105.3318201
1969.418374,45.16276703,107.4819806
1970.268315,59.41174375,111.4796662
1971.118114,71.00027111,115.5349939
1971.967771,79.54578703,118.0541166
1972.817286,85.24396154,117.9855662
1973.666659,88.18721201,114.9715908
1974.515889,88.62780749,109.3776237
1975.364977,87.33266176,102.1645124
1976.213924,85.27530357,94.56236545
1977.062728,83.29653965,87.67509335
1977.91139,82.38606896,82.2112564
1978.75991,83.57661506,78.36437145
1979.608288,86.54765652,75.78494098
1980.456524,88.58388752,73.73223465
1981.304619,86.12685434,71.4799209
1982.152571,77.70508825,68.7596394
1983.000382,65.02529604,65.93185345
1983.84805,51.76022499,63.84364975
1984.695577,41.87492623,63.5161638
1985.542962,38.24073624,65.74279032
1986.390206,41.66461783,70.68494284
1987.237308,50.65981155,77.62851469
1988.084268,61.78475915,85.03126005
1988.931086,70.53846997,90.92235541
1989.777763,73.24909056,93.61150978
1990.624298,69.12628839,92.42740993
1991.470692,60.49545892,88.03686425
1992.316944,50.8587868,82.11525446
1993.163055,42.98814573,76.60968588
1994.009024,38.70216288,73.04726119
1994.854852,39.21980244,72.13407223
1995.700538,44.53407547,73.65888801
1996.546083,52.69810717,76.68496061
1997.391487,60.73633541,79.98995132
1998.23675,66.47652842,82.55604875
1999.081871,69.22152496,83.84092052
1999.926851,69.27158851,83.77629004
2000.771689,67.74046829,82.65081971
2001.616387,66.44130031,80.94264675
2002.460943,66.84515511,79.07363622
2003.305358,69.12029158,77.19240973
2004.149632,72.44610583,75.12269055
2004.993765,75.52576757,72.43797105
2005.837757,76.51034224,68.5908113
2006.681608,73.5112914,63.13055886
2007.525318,66.04606445,55.96942091
2008.368888,55.80213119,47.5359567
2009.212316,45.5475797,38.69427542
2010.055603,37.2405007,30.50010198
2010.898749,31.20967329,23.97037874
2011.741755,26.82064289,19.96118718
2012.58462,23.76975594,19.12611624
2013.427344,23.18382615,21.87587419
2014.269927,27.447999,28.26761279
2015.11237,38.15172884,37.85844774
2015.954672,54.11018238,49.70401636
2016.796833,72.09068482,62.61103987
2017.638853,89.32629951,75.46770849
2018.480733,104.6264663,87.38661597
2019.322473,117.4757903,97.65858508
2020.164072,127.2200815,105.7430987
2021.00553,133.2874876,111.3861741
2021.846848,135.4955201,114.7096503
2022.688026,134.1255226,116.1531467
2023.529063,130.4026837,116.3309044
2024.36996,126.7988706,115.8619812
2025.210716,125.9042268,115.174594
2026.051332,128.6072879,114.3619763
2026.891808,133.5286812,113.2014519
2027.732144,138.1665889,111.3280161
2028.572339,140.6395909,108.4744193
2029.412394,140.6987117,104.6811293
2030.252309,139.3853944,100.4179259
2031.092084,137.8493716,96.5786467
2031.931719,136.6568164,94.32810416
2032.771213,136.4669088,94.81471255
2033.610568,139.0883241,98.78977677
2034.449782,146.86116,106.2235573
2035.288857,160.5414087,116.1113968
2036.127791,178.3259985,126.6471121
2036.966586,196.7779106,135.6850896
2037.805241,211.6435841,141.2266258
2038.643756,218.2130017,141.8292051
2039.482131,213.2206781,137.0268473
2040.320366,197.8727767,127.6587787
2041.158461,178.2377141,115.7453726
2041.996417,161.3284118,103.7560831
2042.834233,150.6681219,93.66894151
2043.671909,145.7101009,86.39806674
2044.509446,144.2598541,81.79072349
2045.346843,144.1888554,79.01232318
2046.1841,143.5257877,77.04566866
2047.021218,140.6209654,75.07885132
2047.858196,135.0455239,72.67151648
2048.695035,128.1138373,69.73377663
2049.531734,121.916048,66.40043358
2050.368294,117.3978964,62.88481629
2051.204714,113.5416219,59.42079847
2052.040995,108.6793832,56.32402768
2052.877137,102.4232235,54.03846389
2053.713139,96.16827145,53.03223346
2054.549002,92.00425245,53.55407116
2055.384725,91.1278497,55.37946662
2056.22031,92.62305794,57.70382899
2057.055755,93.27400826,59.30241654
2057.891061,88.99638122,58.95090001
2058.726228,77.47607161,55.94679637
2059.561255,60.20743335,50.51121197
2060.396144,41.96140585,43.87097996
2061.230893,27.66583839,37.92708562
2062.065504,19.34901512,34.63254349
2062.899975,16.0109381,35.40179846
2063.734308,16.10612963,40.8043562
2064.568501,19.77378537,50.56485616
2065.402556,28.79078947,63.73758576
2066.236471,44.53294136,78.90321913
2067.070248,65.7813523,94.33984373
2067.903886,88.45280848,108.2771624
2068.737385,107.9044298,119.3386018
2069.570746,122.1331745,127.0420923
2070.403967,133.1398503,132.0105412
2071.23705,145.0655668,135.6155195
2072.069994,160.5095255,139.1623081
2072.9028,178.2973676,143.1074141
2073.735467,194.550797,146.8064477
2074.567995,205.596294,148.8828511
2075.400384,209.8787574,147.909883
2076.232636,207.7839548,143.0105456
2077.064748,200.3520695,134.1368093
2077.896722,188.3327582,121.9871975
2078.728558,172.3005378,107.7400358
2079.560255,153.5368191,92.81299446
2080.391814,134.5722913,78.65733789
2081.223235,118.5416307,66.47265614
2082.054517,107.675133,56.89114189
2082.885661,102.0454236,49.84792957
2083.716666,99.72398827,44.7799795
2084.547533,98.47605971,41.0693872
2085.378262,97.34901596,38.45956537
2086.208853,96.57993784,37.19904443
2087.039306,96.68439739,37.89858171
2087.86962,98.54033631,41.25552436
2088.699797,103.9799143,47.74500143
2089.529835,114.9232307,57.28829044
2090.359736,131.1914121,68.98357452
2091.189498,149.2479141,81.09789018
2092.019122,163.3141117,91.45469922
2092.848608,168.3543738,98.13239813
2093.677957,163.1467244,100.1949717
2094.507167,151.2643677,98.07170284
2095.33624,138.8503567,93.31356592
2096.165175,130.350176,87.80814444
2096.993972,125.6233795,82.95118718
2097.822631,121.3368142,79.29618009
2098.651152,115.3560655,76.76639242
2099.479536,109.4360905,75.03838946
2100.307782,107.363838,73.72205315
2101.13589,110.8966012,72.35720213
2101.963861,117.9143491,70.47083534
2102.791694,124.1422288,67.76415819
2103.619389,126.2359484,64.2831206
2104.446947,123.6018728,60.45275164
2105.274367,118.1264189,56.97238129
2106.10165,112.7632302,54.62510827
2106.928796,110.2433104,54.00682604
2107.755804,112.2795647,55.19243456
2108.582674,118.7247543,57.47114182
2109.409407,126.7331389,59.39295046
2110.236003,131.1966152,59.26274896
2111.062462,127.2895362,55.90225478
2111.888783,113.9073655,49.25770261
2112.714967,95.19327333,40.48044214
2113.541013,78.15644397,31.41304355
2114.366923,67.96068988,23.75900152
2115.192695,64.99796541,18.41615257
2116.01833,65.92218456,15.33835892
2116.843828,67.27432612,13.93845767
2117.669189,68.59070998,13.68434553
2118.494413,72.48467136,14.45577191
2119.3195,81.79203798,16.49944969
2120.144449,96.58844783,20.1565342
2120.969262,113.917011,25.61592408
2121.793938,130.1450079,32.78820834
2122.618477,143.200716,41.26487657
2123.442879,152.7704891,50.36668653
2124.267144,159.3985587,59.32998082
2125.091273,164.026785,67.55477828
2125.915264,167.7861311,74.7111296
2126.739119,171.3394453,80.5877345
2127.562837,174.1084653,84.83494948
2128.386418,173.9799206,86.88920803
2129.209863,167.8867664,86.21035531
2130.033171,153.660478,82.70043258
2130.856342,132.5276561,76.98747036
2131.679377,109.7083948,70.28660704
2132.502275,91.29656154,63.84692519
2133.325036,79.93687516,58.40821325
2134.147661,74.03006764,54.15195399
2134.97015,70.79939807,51.13366581
2135.792502,69.11638002,49.72656569
2136.614718,69.81397112,50.71503453
2137.436797,74.50274581,55.04370611
2138.25874,84.10888186,63.41723528
2139.080546,98.08101717,75.97782974
2139.902217,115.0547534,92.21325382
2140.723751,134.1060945,111.04162
2141.545148,154.7850545,130.8963668
2142.36641,175.9012966,149.7945571
2143.187535,194.8664817,165.5596665
2144.008524,208.485005,176.2584754
2144.829377,214.2093869,180.6697409
2145.650094,210.956706,178.56053
2146.470674,199.6490021,170.6859128
2147.291119,183.244817,158.5230313
2148.111427,165.5018982,143.8096738
2148.9316,149.0250626,128.0602263
2149.751637,134.409158,112.3102449
2150.571537,120.8885738,97.17199594
2151.391302,107.2995183,83.07193498
2152.210931,92.90088528,70.51590968
2153.030424,78.20759671,60.26466813
2153.849781,64.99031545,53.2829305
2154.669002,54.81658156,50.42169411
2155.488088,47.73499532,52.05118947
2156.307038,42.87188216,57.92226389
2157.125852,39.74415578,67.27044637
2157.94453,38.30358474,79.00423773
2158.763073,38.4012911,91.90497669
2159.58148,39.861797,104.8102375
2160.399752,42.37709265,116.7000745
2161.217888,44.85004098,126.6812028
2162.035888,45.60098462,134.0015294
2162.853753,43.62201031,138.16695
2163.671482,39.17283755,139.0534057
2164.489076,33.15630208,136.8868826
2165.306534,26.4381604,132.0911968
2166.123858,19.77397485,125.0998127
2166.941045,13.91412602,116.2383578
2167.758098,9.443398285,105.7477737
2168.575015,6.408249522,93.95566577
2169.391796,4.294994441,81.47617674
2170.208443,2.735150949,69.25761146
2171.024954,2.368314809,58.37737474
2171.84133,4.699110943,49.66813977
2172.657571,10.76163992,43.38462844
2173.473676,19.9865819,39.1179395
2174.289647,30.50008368,36.03059562
2175.105482,40.35856426,33.27256517
2175.921183,48.36918308,30.30840822
2176.736748,53.89275947,26.98636927
2177.552178,56.45694166,23.44826472
2178.367474,56.36119522,20.07544748
2179.182634,55.47016538,17.48976007
2179.997659,56.40023183,16.44866957
2180.81255,60.58256552,17.55750885
2181.627306,67.28042979,20.92728512
2182.441926,73.9090098,25.99126993
2183.256412,77.04407267,31.63247509
2184.070764,74.37110378,36.60518674
2184.88498,66.7769175,40.00591259
2185.699062,58.10256851,41.48907488
2186.513009,52.24576124,41.16827813
2187.326821,50.48390347,39.40835758
2188.140499,51.30324477,36.72084576
2188.954042,52.31170699,33.76815104
2189.76745,52.34378381,31.35437968
2190.580724,52.11644355,30.27112679
2191.393864,53.09323428,31.00201764
2192.206869,55.82224264,33.44463608
2193.019739,59.22001571,36.86063131
2193.832475,61.27648518,40.15936702
2194.645077,60.55698941,42.38731279
2195.457544,57.24734567,43.11909457
2196.269877,52.94472839,42.52983259
2197.082075,49.68741441,41.1982893
2197.894139,49.11968254,39.82462228
2198.706069,51.70442863,38.95569367
2199.517865,55.95493575,38.74447034
2200.329526,58.87717196,38.87607951
2201.141053,58.03484475,38.79185627
2201.952446,53.2893733,38.0944263
2202.763705,46.74280233,36.81912511
2203.57483,41.53941404,35.33926456
2204.385821,40.23218088,33.95366722
2205.196677,43.10779092,32.51111356
2206.0074,47.9732051,30.47169513
2206.817988,52.09252978,27.42308903
2207.628443,54.28131511,23.62776713
2208.438764,55.24907056,20.1480293
2209.24895,56.8496,18.45571494
2210.059003,61.32736625,19.74899322
2210.868922,70.23230345,24.32354778
2211.678707,83.10743547,31.32586358
2212.488359,97.3274105,39.0509977
2213.297876,109.726683,45.64996789
2214.10726,118.4634488,49.85134141
2214.91651,123.3868607,51.31001064
2215.725627,125.2625112,50.504572
2216.534609,125.1230166,48.34892766
2217.343459,123.9837456,45.75159531
2218.152174,122.4959384,43.29545431
2218.960756,120.6820094,41.16460073
2219.769204,118.1834299,39.32317888
2220.577519,114.7092439,37.74873731
2221.3857,110.0944075,36.47849444
2222.193748,104.1299194,35.44459708
2223.001663,96.48956033,34.31971609
2223.809444,86.75488102,32.62580821
2224.617091,74.82445371,30.14622972
2225.424606,61.85152397,27.36255432
2226.231986,50.59006715,25.51012772
2227.039234,44.0791533,26.11490558
2227.846348,43.82543878,30.30145389
2228.653329,49.39518068,38.28124362
2229.460177,59.08653993,49.20700931
2230.266892,70.21876841,61.39604738
2231.073473,79.2542744,72.88066059
2231.879922,82.90937483,82.13569619
2232.686237,80.01985636,88.67797026
2233.492419,72.54887983,93.22568936
2234.298468,64.75087164,97.30112271
2235.104384,61.01172988,102.4527432
2235.910167,63.70773894,109.463883
2236.715818,72.1542455,117.9554034
2237.521335,82.97176658,126.5760006
2238.326719,91.81469937,133.6385866
2239.13197,95.80543661,137.7890706
2239.937089,94.91580178,138.3040456
2240.742074,91.00952191,134.9617548
2241.546927,85.53152697,127.8129467
2242.351647,78.19901208,117.1742494
2243.156234,67.8355324,103.8193264
2243.960689,54.46853236,89.06864599
2244.765011,40.50414721,74.57806553
2245.5692,29.41881077,61.90282786
2246.373257,23.25392546,52.11976997
2247.177181,21.75860762,45.74166605
2247.980972,23.73242537,42.88237894
2248.784631,28.47698014,43.44776486
2249.588157,36.04394089,47.23270329
2250.391551,46.88892981,53.95764037
2251.194812,61.50908829,63.24997752
2251.997941,67.03518073,64.66781441
2252.800937,73.78661342,66.98985336
2253.603801,81.76338637,70.21609436
2254.406533,90.96549958,74.3465374
2255.209132,101.392953,79.3811825
2256.011599,113.0457468,85.32002964
2256.813934,125.9238808,92.16307883
2257.616136,140.027355,99.91033007
2258.418206,155.3561695,108.5617834
2259.220144,171.9103242,118.1174387
2260.02195,189.6898193,128.5772961
2260.823624,208.6946545,139.9413555
