Wavelength,HS_V2S1_AAB_C4_S2_I2
351.7692476,23.7653945
352.902517,29.35172884
354.0355789,34.25322436
355.1684331,38.46988105
356.3010798,42.00169891
357.4335191,44.84867795
358.5657509,47.01081816
359.6977753,48.48811954
360.8295924,49.2805821
361.9612023,49.38820583
363.0926049,48.81099073
364.2238004,47.54893681
365.3547887,45.60204406
366.48557,44.78300221
367.6161443,43.88939236
368.7465116,38.74521083
369.876672,30.03244758
371.0066255,22.28642262
372.1363723,16.39065617
373.2659122,10.86242718
374.3952455,7.112177599
375.5243721,6.53460839
376.6532921,6.385272169
377.7820055,3.535763968
378.9105124,-1.415062214
380.0388129,-5.9838253
381.166907,-7.473680297
382.2947947,-2.607215298
383.4224761,8.829249685
384.5499513,20.73223345
385.6772202,27.17979534
386.8042831,29.66225227
387.9311398,32.27135322
389.0577904,33.9008948
390.1842351,31.0991081
391.3104739,25.31256393
392.4365067,21.43508599
393.5623337,20.63372138
394.6879549,19.7746965
395.8133703,17.21800907
396.9385801,14.7900598
398.0635842,13.74346331
399.1883827,11.98871406
400.3129757,8.082956859
401.4373632,5.710502829
402.5615452,8.712272235
403.6855219,13.6028283
404.8092932,13.49058999
405.9328592,7.483277955
407.05622,1.317974185
408.1793756,0.388983919
409.3023261,4.736288023
410.4250715,10.00546995
411.5476118,12.35991523
412.6699472,12.09685305
413.7920776,11.7177123
414.9140032,11.44361065
416.0357239,9.371547956
417.1572398,5.586902303
418.278551,2.473084278
419.3996575,1.416828056
420.5205593,1.936919509
421.6412566,2.456772733
422.7617494,1.101265135
423.8820376,-1.673787784
425.0021215,-2.702750674
426.1220009,-0.3526933
427.241676,4.138761336
428.3611469,8.765313722
429.4804135,10.56975198
430.5994759,7.36529881
431.7183342,1.731550926
432.8369884,-1.432930774
433.9554385,-0.692538652
435.0736847,2.020726406
436.191727,5.189954026
437.3095654,8.892860065
438.4271999,12.70355465
439.5446307,14.36214855
440.6618577,12.31712985
441.778881,8.240019861
442.8957007,5.309273365
444.0123169,5.306557779
445.1287295,7.258579183
446.2449386,7.922409552
447.3609443,5.387057275
448.4767466,1.808825028
449.5923455,0.432391209
450.7077412,1.997802431
451.8229337,5.393494747
452.9379229,9.504768486
454.0527091,13.76567192
455.1672921,17.83676272
456.2816721,21.89427336
457.3958491,27.3453073
458.5098232,34.92324239
459.6235944,42.59600878
460.7371628,48.18841396
461.8505284,51.97490792
462.9636912,54.1588765
464.0766514,52.96034376
465.1894089,47.65151415
466.3019639,41.11342197
467.4143163,37.25648172
468.5264662,37.00083692
469.6384136,38.13835024
470.7501587,37.78461972
471.8617014,33.9214258
472.9730419,27.31616455
474.0841801,22.23061017
475.1951161,21.15913887
476.30585,20.45887017
477.4163818,16.16290342
478.5267115,10.63619097
479.6368392,8.572529161
480.746765,10.11705807
481.8564889,11.85204419
482.966011,12.55816877
484.0753312,15.14606853
485.1844497,22.33595633
486.2933665,31.97598393
487.4020817,39.0618131
488.5105953,42.21390473
489.6189073,44.44585748
490.7270178,47.43370226
491.8349268,50.37350318
492.9426345,53.37487699
494.0501408,56.19148094
495.1574458,57.10819912
496.2645495,56.90598938
497.3714521,58.26995467
498.4781534,60.35268855
499.5846537,59.35677116
500.6909529,53.27069448
501.7970511,42.92199156
502.9029483,30.69166381
504.0086446,19.62872469
505.1141401,11.6081904
506.2194347,6.054686691
507.3245286,1.905051002
508.4294218,-0.225111282
509.5341143,1.186022314
510.6386062,5.916027029
511.7428975,9.67014472
512.8469882,6.555345343
513.9508786,-2.537539813
515.0545684,-7.63856605
516.158058,-1.930359073
517.2613472,8.688349554
518.3644361,15.05523128
519.4673248,16.40252814
520.5700133,17.65070945
521.6725016,23.06407388
522.7747899,33.29332853
523.8768782,43.17890345
524.9787665,46.27461865
526.0804548,44.05505713
527.1819433,45.10494504
528.2832319,53.8062348
529.3843207,65.11333822
530.4852098,72.33251025
531.5858992,74.43644445
532.6863889,73.34801011
533.7866791,69.72773629
534.8867697,63.89736315
535.9866608,57.04733292
537.0863525,49.38043478
538.1858447,39.20803039
539.2851376,27.17343384
540.3842312,19.13499491
541.4831256,18.95813015
542.5818207,21.88737126
543.6803167,22.06668398
544.7786136,20.47261092
545.8767114,19.07964862
546.9746102,16.03708154
548.07231,10.71083749
549.1698109,4.741494529
550.2671129,-1.303949956
551.3642162,-5.795236859
552.4611206,-5.776779812
553.5578263,-2.403642447
554.6543334,-0.242711975
555.7506418,-0.505046629
556.8467516,-0.87111773
557.942663,-1.466790953
559.0383758,-4.634282212
560.1338902,-8.914203302
561.2292062,-9.655622852
562.3243239,-4.938011161
563.4192432,3.465369192
564.5139644,12.31191249
565.6084873,18.46450896
566.7028121,22.05994609
567.7969388,28.23014108
568.8908675,42.34501752
569.9845981,62.66849598
571.0781308,80.06169745
572.1714656,87.44123079
573.2646026,87.60652414
574.3575417,87.96033778
575.4502831,90.36673933
576.5428267,91.63149234
577.6351727,89.77795575
578.7273211,83.80477712
579.8192719,73.24845794
580.9110251,62.13665783
582.0025809,55.40956232
583.0939393,50.38241633
584.1851003,40.61254464
585.276064,27.18858728
586.3668304,17.66044011
587.4573995,14.74637205
588.5477715,13.54155873
589.6379463,9.105153882
590.727924,1.55974361
591.8177047,-4.889225651
592.9072884,-5.368309904
593.9966751,1.575468648
595.085865,11.47728489
596.1748579,16.59217344
597.2636541,13.95541172
598.3522535,9.281736702
599.4406563,8.652375943
600.5288623,10.25470231
601.6168717,9.336422799
602.7046846,5.839144628
603.7923009,2.145375271
604.8797208,-1.81792597
605.9669443,-7.060040254
607.0539713,-12.31329739
608.1408021,-15.30488292
609.2274365,-15.5643155
610.3138748,-13.37285082
611.4001168,-6.831993578
612.4861627,5.977835361
613.5720125,21.81675793
614.6576662,34.74453343
615.743124,44.01553781
616.8283858,53.70071604
617.9134517,64.7314703
618.9983217,73.1055468
620.082996,76.14011406
621.1674744,75.31975659
622.2517572,72.96150302
623.3358443,70.82606353
624.4197358,70.74103233
625.5034317,72.04689109
626.586932,71.02137374
627.6702369,65.4201004
628.7533464,55.93349053
629.8362605,43.07749737
630.9189792,27.30087545
632.0015027,12.2656973
633.0838309,4.193447504
634.1659639,5.833579528
635.2479018,12.93424359
636.3296446,20.17502917
637.4111923,27.93530657
638.492545,37.4083817
639.5737027,43.82756838
640.6546656,42.77402371
641.7354335,37.97320515
642.8160067,35.57662905
643.8963851,36.00003781
644.9765687,36.23272809
646.0565577,35.64252703
647.136352,35.90145887
648.2159518,36.95897663
649.295357,36.2643362
650.3745677,32.84221232
651.453584,28.88230538
652.5324059,25.60137256
653.6110335,21.31224611
654.6894667,15.23481862
655.7677057,9.182324947
656.8457504,5.138091955
657.923601,5.354082498
659.0012575,12.04736083
660.07872,22.23566013
661.1559884,28.75480947
662.2330628,29.88311288
663.3099433,30.03834397
664.3866299,30.26253512
665.4631227,27.13662166
666.5394216,21.17240489
667.6155269,18.13645753
668.6914384,20.6669319
669.7671563,23.75952309
670.8426806,21.33723379
671.9180114,14.60959053
672.9931486,10.27003094
674.0680924,11.5775997
675.1428427,15.69690285
676.2173997,19.97443916
677.2917633,25.34191663
678.3659337,31.6805668
679.4399109,35.69343245
680.5136948,35.6178041
681.5872856,32.95721559
682.6606834,29.9162298
683.7338881,30.08873604
684.8068997,38.01612652
685.8797185,52.53220206
686.9523443,64.72108154
688.0247773,67.20675052
689.0970174,63.0674194
690.1690648,61.8310294
691.2409195,66.8376779
692.3125815,71.85931697
693.3840508,71.11426993
694.4553276,65.21426463
695.5264119,57.35574228
696.5973036,51.64945152
697.6680029,52.9585811
698.7385099,61.19228719
699.8088244,68.61903867
700.8789467,68.29861663
701.9488767,62.55882428
703.0186145,57.99018612
704.0881601,55.44630892
705.1575136,51.7185196
706.226675,46.91382536
707.2956444,43.16839093
708.3644218,40.71648204
709.4330073,39.65167262
710.5014009,40.20853618
711.5696026,39.81122039
712.6376126,35.77180543
713.7054308,31.39494257
714.7730573,33.4369975
715.8404921,41.80357925
716.9077353,47.09494921
717.974787,42.22482557
719.0416471,31.79782927
720.1083157,26.26820968
721.1747929,30.51173807
722.2410788,39.32913094
723.3071733,43.13944737
724.3730765,38.67966153
725.4387884,31.60850361
726.5043092,28.4356611
727.5696387,30.64176445
728.6347772,35.68251443
729.6997246,39.88930678
730.764481,40.95981901
731.8290465,38.9800814
732.893421,35.54340669
733.9576046,31.9880304
735.0215973,28.03596714
736.0853993,23.99180763
737.1490106,24.49955708
738.2124311,34.43366226
739.275661,49.16830349
740.3387003,56.15582439
741.401549,50.30663479
742.4642072,41.37082066
743.5266749,41.18984375
744.5889522,50.04392824
745.6510392,60.0204932
746.7129358,64.6904092
747.7746421,62.05448021
748.8361581,55.27299476
749.897484,51.53882455
750.9586197,54.91947403
752.0195653,63.0999216
753.0803208,73.09553805
754.1408863,83.73745687
755.2012619,92.61603376
756.2614475,97.02323132
757.3214432,97.77135874
758.3812492,98.22944211
759.4408653,99.53077341
760.5002916,99.74010586
761.5595283,97.95691619
762.6185753,95.14521254
763.6774327,90.67966747
764.7361006,82.3127063
765.7945789,69.96795809
766.8528678,57.63398987
767.9109672,50.08775692
768.9688772,47.24029461
770.0265979,43.75286174
771.0841294,34.05652118
772.1414715,17.08695529
773.1986245,-1.224228332
774.2555883,-11.34409238
775.312363,-9.15265615
776.3689486,0.602124392
777.4253452,10.37976217
778.4815529,16.44435173
779.5375716,19.90517812
780.5934014,23.72040418
781.6490423,29.21689919
782.7044945,35.03234513
783.7597579,38.86688158
784.8148327,39.50843197
785.8697187,38.1257756
786.9244161,38.62071522
787.978925,44.54006581
789.0332454,54.09485664
790.0873772,60.76488318
791.1413206,60.83901679
792.1950757,57.98203265
793.2486423,57.37787264
794.3020207,58.62807378
795.3552108,57.781731
796.4082127,52.90773559
797.4610265,46.23935994
798.5136521,42.4769829
799.5660896,43.45937428
800.6183391,44.93502227
801.6704006,41.1454886
802.7222742,31.51583808
803.7739599,21.20378585
804.8254577,15.24396552
805.8767677,14.03461605
806.9278899,16.03127363
807.9788245,20.71369543
809.0295713,26.35272891
810.0801305,30.42588747
811.1305021,34.10435507
812.1806862,40.91670601
813.2306828,49.83700293
814.2804919,54.3818241
815.3301136,51.39024759
816.379548,47.18765913
817.428795,50.83543835
818.4778548,65.06613707
819.5267273,87.38051277
820.5754126,113.5660669
821.6239108,136.8877707
822.6722219,150.4965497
823.720346,153.8983109
824.768283,153.753996
825.8160331,156.2977139
826.8635963,161.0058051
827.9109725,163.4323558
828.958162,161.1408445
830.0051647,155.284913
831.0519806,150.5619098
832.0986098,152.1324428
833.1450524,157.195954
834.1913083,155.7226359
835.2373777,144.2658004
836.2832606,128.9562228
837.328957,113.3043264
838.3744669,95.13765855
839.4197905,75.25312605
840.4649277,58.95726974
841.5098787,50.12152729
842.5546433,49.59816352
843.5992218,55.69809615
844.6436141,61.74411284
845.6878203,59.11031457
846.7318404,47.14067167
847.7756744,34.49780664
848.8193225,28.29498229
849.8627846,27.02094334
850.9060608,25.44666516
851.9491512,21.73801717
852.9920557,17.44274616
854.0347745,14.33639907
855.0773075,14.23900365
856.1196549,18.59157704
857.1618166,24.86613508
858.2037927,27.03800078
859.2455833,23.93963456
860.2871883,21.44904874
861.3286079,21.72784371
862.3698421,19.46466719
863.4108909,12.67226718
864.4517544,7.432351863
865.4924326,9.560947725
866.5329255,18.01743871
867.5732333,27.148379
868.6133559,32.36786541
869.6532933,33.932491
870.6930457,36.05343922
871.7326131,41.81113853
872.7719955,49.94394613
873.811193,57.45076875
874.8502055,62.90123133
875.8890333,65.93663684
876.9276762,66.6254363
877.9661343,66.62612284
879.0044077,68.02599494
880.0424965,71.01476947
881.0804006,74.72757483
882.1181201,77.63865685
883.1556551,76.62047209
884.1930056,71.01391944
885.2301717,65.67996186
886.2671533,64.09203464
887.3039505,63.31250355
888.3405634,60.66389068
889.3769921,59.32192107
890.4132365,62.6406377
891.4492967,67.06731134
892.4851727,66.35070781
893.5208646,61.13915914
894.5563725,57.30257651
895.5916964,55.57678908
896.6268362,51.41666679
897.6617922,44.31925608
898.6965642,38.35606832
899.7311524,34.40806184
900.7655568,30.24489535
901.7997774,26.77329808
902.8338143,26.16211335
903.8676675,26.19486927
904.9013371,24.4654124
905.9348231,23.38910222
906.9681256,24.06985855
908.0012446,24.00441311
909.0341801,25.78536115
910.0669322,35.81707068
911.0995009,51.92259357
912.1318863,64.88996893
913.1640883,72.23020443
914.1961072,79.42397318
915.2279429,89.26205659
916.2595954,98.84252951
917.2910647,105.158892
918.3223511,107.3419099
919.3534543,104.7239962
920.3843747,97.25238436
921.415112,88.46934942
922.4456665,84.22773586
923.4760381,86.00035422
924.5062269,89.03959312
925.5362329,88.49379724
926.5660562,82.28870803
927.5956968,69.03680317
928.6251548,50.63864932
929.6544302,35.13599566
930.683523,28.73491702
931.7124333,27.84795408
932.7411612,26.28530291
933.7697066,24.59746795
934.7980697,25.84350584
935.8262504,29.99314323
936.8542488,37.57746888
937.8820649,51.23246767
938.9096989,69.36187789
939.9371506,84.21063539
940.9644203,91.4981478
941.9915079,97.27246182
943.0184134,109.4959902
944.0451369,127.5811696
945.0716785,144.4540374
946.0980382,155.1034884
947.124216,160.5813311
948.1502119,163.659069
949.1760261,162.861244
950.2016586,156.102616
951.2271093,147.5413342
952.2523784,142.9304932
953.2774659,141.1026098
954.3023718,136.121877
955.3270962,124.630208
956.3516391,109.7722774
957.3760006,100.2516961
958.4001806,101.2629501
959.4241793,106.1720323
960.4479967,105.8687488
961.4716329,102.8864964
962.4950878,104.5139635
963.5183615,107.5201631
964.541454,103.7374765
965.5643655,96.88149713
966.5870959,98.87996893
967.6096453,110.2593217
968.6320137,118.3493969
969.6542011,115.3180809
970.6762077,106.0232422
971.6980335,97.75452642
972.7196784,91.12493615
973.7411426,83.55080307
974.762426,76.85052652
975.7835288,74.89719406
976.804451,74.6597076
977.8251925,67.85655753
978.8457535,52.52849439
979.866134,36.24035164
980.886334,27.19494616
981.9063536,25.56937124
982.9261929,23.57384266
983.9458517,15.1359074
984.9653303,5.663499655
985.9846287,5.293793529
987.0037468,12.47845738
988.0226847,16.93514872
989.0414426,18.6234157
990.0600203,27.46359979
991.078418,44.33934257
992.0966357,58.14756917
993.1146734,62.04436987
994.1325312,60.2408319
995.1502092,58.06461064
996.1677073,55.18963295
997.1850256,50.59827179
998.2021641,46.17452454
999.219123,42.32713575
1000.235902,35.77260151
1001.252502,25.02432788
1002.268922,14.54436054
1003.285162,9.726203931
1004.301223,9.901630441
1005.317105,9.743582505
1006.332807,5.961605637
1007.348329,0.836049668
1008.363673,0.535708802
1009.378837,9.246431724
1010.393822,23.67614877
1011.408627,37.55642632
1012.423254,52.54215625
1013.437701,74.6104241
1014.45197,98.81659035
1015.466059,112.2448228
1016.479969,112.2553755
1017.4937,108.0611182
1018.507253,106.5501909
1019.520626,107.806382
1020.533821,110.7287535
1021.546837,114.2888338
1022.559674,116.2654296
1023.572333,115.4140893
1024.584812,112.234027
1025.597114,107.5792079
1026.609236,102.9650833
1027.62118,98.76973172
1028.632946,91.2835243
1029.644533,76.53586347
1030.655942,56.51699796
1031.667172,38.84843685
1032.678224,31.03939793
1033.689098,33.12950799
1034.699793,36.3882344
1035.710311,34.60875988
1036.72065,31.69727868
1037.730811,30.57254661
1038.740794,26.21640981
1039.750599,18.76476899
1040.760225,17.96890855
1041.769674,27.49498903
1042.778945,39.91289721
1043.788039,49.92080524
1044.796954,58.76097511
1045.805692,66.14768139
1046.814251,69.5110687
1047.822633,69.70719575
1048.830838,69.32521372
1049.838865,68.01708637
1050.846714,64.64776504
1051.854386,59.99912214
1052.86188,54.26886385
1053.869197,46.49647455
1054.876336,37.8598126
1055.883298,30.90924365
1056.890082,24.3781781
1057.89669,12.98866383
1058.90312,-4.317191459
1059.909373,-19.15126003
1060.915448,-21.47121529
1061.921347,-9.955466089
1062.927068,10.05131617
1063.932613,35.41408322
1064.93798,65.77363854
1065.943171,98.44667636
1066.948184,129.3518012
1067.953021,156.2821958
1068.957681,177.9521533
1069.962164,193.3741342
1070.96647,203.0159833
1071.9706,208.4279949
1072.974553,209.8205028
1073.978329,204.878986
1074.981929,193.8471436
1075.985352,182.8672356
1076.988598,174.4659089
1077.991668,160.6204216
1078.994562,134.5608596
1079.99728,102.2408352
1080.99982,75.25861579
1082.002185,59.41972659
1083.004374,52.60648628
1084.006386,48.72616635
1085.008222,44.86062715
1086.009882,44.66392301
1087.011365,51.53726874
1088.012673,63.76285522
1089.013805,78.77798829
1090.01476,94.33323611
1091.01554,105.0054513
1092.016144,105.3177801
1093.016572,97.23733114
1094.016824,89.29930572
1095.016901,87.41641632
1096.016801,90.70505264
1097.016526,94.90523096
1098.016076,95.69094693
1099.015449,91.48464694
1100.014648,84.44412239
1101.01367,75.95789412
1102.012517,65.73054967
1103.011189,59.05778043
1104.009685,65.9568717
1105.008006,86.92653756
1106.006152,107.99536
1107.004122,115.5492797
1108.001917,110.6733697
1108.999537,105.6255363
1109.996982,109.572074
1110.994251,120.770997
1111.991346,131.4124851
1112.988265,136.3821634
1113.98501,136.4195037
1114.981579,135.6535379
1115.977974,137.7030423
1116.974193,142.4519665
1117.970238,145.4190845
1118.966108,141.6507329
1119.961804,131.1635175
1120.957324,118.0866679
1121.95267,104.7912986
1122.947841,92.16202112
1123.942838,83.74617919
1124.93766,82.3553919
1125.932308,86.01002441
1126.926781,92.01553675
1127.921079,99.05767159
1128.915204,104.909441
1129.909154,109.754033
1130.902929,118.6856521
1131.896531,135.210396
1132.889958,158.2211139
1133.883211,187.4710975
1134.876289,224.0030896
1135.869194,264.6868553
1136.861924,303.9083527
1137.854481,340.3405671
1138.846864,375.6769423
1139.839072,406.2324443
1140.831107,421.5460454
1141.822968,416.1031074
1142.814655,399.8241426
1143.806168,389.3213638
1144.797507,387.3612778
1145.788673,378.8792174
1146.779665,351.7130331
1147.770483,313.0232244
1148.761128,277.7441181
1149.751599,247.999196
1150.741897,213.1433364
1151.732021,167.8092117
1152.721972,122.1006834
1153.71175,90.33417453
1154.701354,75.03402344
1155.690785,68.68705781
1156.680042,67.02608092
1157.669126,72.13415337
1158.658037,84.21162364
1159.646775,98.67545558
1160.63534,111.7862778
1161.623732,122.4757388
1162.611951,128.9049675
1163.599996,128.1406487
1164.587869,119.4442464
1165.575569,107.2610783
1166.563096,99.36748243
1167.55045,98.81223633
1168.537632,99.21754333
1169.52464,91.33568393
1170.511476,74.47529366
1171.498139,59.13239244
1172.48463,53.95710784
1173.470948,52.7168076
1174.457093,43.63394579
1175.443066,28.02857792
1176.428867,17.56347689
1177.414495,17.96372246
1178.399951,26.27533981
1179.385234,37.82181129
1180.370345,47.95633211
1181.355283,52.08842531
1182.34005,49.45847672
1183.324644,46.54076352
1184.309066,53.27921875
1185.293316,72.79316901
1186.277394,96.27462554
1187.2613,111.3485358
1188.245034,116.1399919
1189.228596,121.7088436
1190.211986,137.2347738
1191.195204,157.9122949
1192.17825,172.5644764
1193.161125,177.5400106
1194.143827,178.0417174
1195.126358,178.9270036
1196.108718,177.7552883
1197.090905,168.4823447
1198.072921,151.0057213
1199.054766,132.451167
