Wavelength,HS_V4S3_AAB_C2_02_I1,HS_V4S3_AAB_C2_02_I2,HS_V4S3_AAB_C2_02_I3
351.7692476,10.73890962,-2.968477962,4.656782877
352.902517,12.4432522,-0.024576122,5.065418096
354.0355789,13.96553695,2.806747938,5.551460084
355.1684331,15.30576389,5.525494217,6.114908839
356.3010798,16.46393302,8.131662716,6.755764363
357.4335191,17.44004432,10.62525344,7.474026655
358.5657509,18.23409781,13.00626637,8.269695715
359.6977753,18.84609348,15.27470153,9.142771543
360.8295924,19.27603133,17.43055891,10.09325414
361.9612023,19.52391136,19.47383851,11.1211435
363.0926049,19.58973358,21.40454033,12.22643964
364.2238004,19.47349797,23.22266436,13.40914254
365.3547887,19.17520455,24.92821062,14.66925221
366.48557,16.01940846,30.55920669,17.92775569
367.6161443,15.60691758,28.71986101,16.39040457
368.7465116,10.84739425,27.46660146,18.15673915
369.876672,9.182484817,29.09585079,20.39363198
371.0066255,13.98670139,28.39256973,24.6163326
372.1363723,13.3588074,28.70060412,31.15669057
373.2659122,7.324472767,27.50192457,27.99724319
374.3952455,5.824964358,27.19317312,24.52803172
375.5243721,6.955393662,30.25249171,29.89008723
376.6532921,2.989695904,33.26608792,32.46336814
377.7820055,-1.65555985,34.08377532,31.48728121
378.9105124,2.084454105,25.78698318,33.18656161
380.0388129,6.079714851,23.19815735,36.32111262
381.166907,2.25849358,21.3723965,37.02948294
382.2947947,-0.801972423,14.88781518,37.45605124
383.4224761,0.558141506,15.35557653,39.86488018
384.5499513,3.123706229,12.99193862,38.56264351
385.6772202,6.768840643,10.80227855,35.42419653
386.8042831,6.55623719,4.52047928,36.6270569
387.9311398,-0.496660369,2.373849534,32.01215704
389.0577904,-5.056049259,2.493487114,22.1161317
390.1842351,-4.582502165,-6.365282032,18.70248795
391.3104739,-7.143554722,-3.174141774,17.17650954
392.4365067,-9.287673572,1.327646786,16.42591396
393.5623337,-6.170103686,-1.707659508,13.67984636
394.6879549,-3.92148911,-1.814243416,7.732872989
395.8133703,-2.398260833,0.393403253,7.394285285
396.9385801,0.143374201,0.738012219,9.947877853
398.0635842,2.45800654,2.804980577,10.70555756
399.1883827,5.739871699,7.74192698,10.72218376
400.3129757,1.385374709,12.10198193,10.71705112
401.4373632,-6.345296413,17.70347689,12.02318289
402.5615452,-2.431602391,16.65821294,17.45816491
403.6855219,-0.365139823,15.81739912,19.55472752
404.8092932,-5.422333638,18.73097116,16.96687616
405.9328592,-1.548605736,20.64274857,22.93654944
407.05622,6.792593202,23.40653318,26.54844208
408.1793756,13.2754424,21.34459432,27.95430983
409.3023261,23.58641665,18.41065766,36.08142224
410.4250715,31.3680034,18.91006423,36.75788144
411.5476118,30.40357538,19.01610083,36.66146459
412.6699472,29.56874223,13.4997665,34.99821023
413.7920776,30.84655129,7.439737697,27.63822919
414.9140032,28.46463673,9.690508893,23.3885692
416.0357239,27.87220105,10.52130767,21.2890823
417.1572398,30.01100306,8.872632449,26.05055482
418.278551,27.11863993,10.97971423,25.47374712
419.3996575,26.64624583,10.24100649,18.60415786
420.5205593,30.55867582,10.46915846,17.33582227
421.6412566,27.09885602,18.2616376,17.17968526
422.7617494,22.96114866,21.87206115,19.86225735
423.8820376,20.56249865,22.44403107,19.17502206
425.0021215,15.42306911,27.92082409,16.20154841
426.1220009,12.79755724,25.92127609,18.55555316
427.241676,3.587963128,29.33786385,23.30413601
428.3611469,-4.032631418,41.73509614,24.59181654
429.4804135,1.709364989,46.84160873,25.59820331
430.5994759,-0.596596671,49.49445439,28.86475475
431.7183342,-4.430975001,48.21745394,27.11316293
432.8369884,4.560602523,47.77508835,33.15818943
433.9554385,9.525273953,49.55911794,37.57538303
435.0736847,9.119840519,49.47076288,39.14292834
436.191727,6.842729022,45.52132048,47.85339848
437.3095654,-1.292138405,45.67913469,42.33292124
438.4271999,-6.639129205,48.31447195,40.40504378
439.5446307,-6.098448862,46.43562253,39.47269615
440.6618577,-5.800743878,52.81453523,29.62412922
441.778881,-6.170562807,54.08488471,29.17747168
442.8957007,-4.013252891,51.33717284,29.37889961
444.0123169,-1.118690952,47.58796748,26.35929264
445.1287295,-0.571714862,41.00436769,19.98853326
446.2449386,4.226997065,43.84142913,22.74967491
447.3609443,9.866213893,44.91222797,29.41603
448.4767466,5.076925607,43.45440856,27.64845866
449.5923455,0.630713677,37.55393193,24.91560332
450.7077412,2.320731135,29.03713749,20.15374337
451.8229337,3.622790231,25.20481615,24.90465215
452.9379229,7.500641422,25.53072602,34.94954919
454.0527091,9.685849321,35.86038992,38.76144049
455.1672921,7.60603063,40.79828327,38.7138117
456.2816721,7.068100679,34.49003308,43.86935831
457.3958491,10.70607304,30.48230999,52.49893819
458.5098232,18.85278903,28.85231371,55.45574964
459.6235944,18.24734734,28.0730465,59.99478114
460.7371628,6.826556055,26.87549311,60.36394887
461.8505284,2.566457791,22.14212775,59.4261123
462.9636912,4.78694562,18.59559325,55.9413719
464.0766514,7.776138172,27.24906201,51.06782636
465.1894089,11.85286847,36.15363046,52.51483101
466.3019639,14.73946319,35.23873416,43.35350955
467.4143163,21.35057905,31.82178493,35.49600356
468.5264662,28.73694012,25.21851859,32.83623893
469.6384136,32.67828761,24.86409905,30.27291725
470.7501587,37.56456633,20.80996162,30.26383021
471.8617014,39.17866168,12.35308152,23.48964875
472.9730419,36.62496785,16.17862589,20.09945996
474.0841801,33.00404695,17.26158521,14.19299143
475.1951161,28.920281,18.11787802,9.918662498
476.30585,29.75024438,20.06040583,17.14309733
477.4163818,33.40310559,19.78983222,24.04630632
478.5267115,34.71250962,27.34374659,32.80375323
479.6368392,35.2803978,36.90145972,35.61132832
480.746765,34.69803335,40.96471273,34.10724432
481.8564889,32.30185756,39.0706566,41.3791182
482.966011,30.49707839,42.16008478,46.14518848
484.0753312,32.02490166,41.92112299,40.556687
485.1844497,30.0465322,34.27602634,37.27093157
486.2933665,17.97122467,32.25441019,38.23006888
487.4020817,10.1067311,28.55916085,37.05300329
488.5105953,10.69797341,25.17607148,34.37197472
489.6189073,7.114997605,25.55494348,34.19029718
490.7270178,4.583910631,26.17548432,40.9095581
491.8349268,5.828737062,22.25041547,38.86706579
492.9426345,7.812931958,17.87345227,32.57727587
494.0501408,15.79805673,13.92469191,29.72681644
495.1574458,18.26312332,6.51699948,21.00574415
496.2645495,12.51915206,4.406744326,16.89993997
497.3714521,12.30613709,-0.934325732,8.18734634
498.4781534,11.3653837,-0.725145533,-0.651844541
499.5846537,7.798366976,3.862129079,1.228904763
500.6909529,10.4310078,3.80771106,4.357732335
501.7970511,17.59902987,9.26261344,12.5379963
502.9029483,22.97561128,4.494794193,16.92057442
504.0086446,22.86697157,3.548256766,17.19285497
505.1141401,21.30637351,9.404587997,16.82915801
506.2194347,20.87217944,8.636634333,11.84803354
507.3245286,20.22781099,11.36745963,8.827845342
508.4294218,19.11070424,14.23559567,9.073546546
509.5341143,18.5762139,18.05514012,10.49604558
510.6386062,21.36340205,12.7216123,9.904867977
511.7428975,20.7080932,7.946112036,12.55673932
512.8469882,14.07389523,12.17422546,14.93719108
513.9508786,10.26720063,12.79843113,11.19206344
515.0545684,7.357804869,17.40421572,12.69544557
516.158058,5.620067417,21.69377013,17.29754442
517.2613472,10.02875119,20.52878763,16.33286159
518.3644361,12.56202459,23.04746296,12.49447268
519.4673248,11.20849096,26.70050281,8.33537785
520.5700133,10.00730499,23.19689124,3.134691869
521.6725016,4.960908919,23.09214155,4.051273184
522.7747899,1.876678365,24.17607914,8.599963159
523.8768782,5.784033889,24.46776063,8.89653487
524.9787665,6.027111719,25.89574105,11.22749555
526.0804548,2.690021268,17.4767884,13.40182357
527.1819433,3.915779774,18.35139468,12.29651883
528.2832319,5.45140293,20.31429076,12.44887182
529.3843207,1.7557521,14.09241861,13.76230895
530.4852098,-3.226579914,14.88406284,14.17546202
531.5858992,-3.620397466,12.52310735,11.179485
532.6863889,0.10547882,15.69071178,8.961190843
533.7866791,3.769918217,19.67769943,12.4105735
534.8867697,6.438172792,19.71576241,14.67570734
535.9866608,11.02207918,19.90568529,15.63863243
537.0863525,14.31535526,15.15563803,15.37252851
538.1858447,10.7470005,18.50815161,11.12509015
539.2851376,6.952738563,24.02531521,9.006178057
540.3842312,9.844229211,26.70741929,8.464111492
541.4831256,14.4953546,25.41943248,11.47129518
542.5818207,12.9545848,17.10845852,11.3115123
543.6803167,8.351843859,14.49329687,2.727751738
544.7786136,7.286539461,19.03637454,-0.084674807
545.8767114,2.971289758,19.79265194,-0.983354704
546.9746102,-0.370473176,22.85002659,2.343268808
548.07231,4.317631606,29.88926722,10.89254187
549.1698109,4.346008986,29.11029265,10.10232838
550.2671129,5.555365422,30.15408485,11.4940554
551.3642162,12.97522538,29.76362499,9.075363269
552.4611206,13.12298353,25.42385245,2.00946115
553.5578263,14.74773808,27.8772535,5.319063548
554.6543334,21.48113336,26.71901419,6.929836354
555.7506418,25.97697235,21.63152648,10.20021701
556.8467516,34.95300382,20.26071817,10.53071821
557.942663,44.12062422,24.45815498,9.566667296
559.0383758,46.33699317,28.89395776,20.66033498
560.1338902,45.59771009,24.46043949,29.53985562
561.2292062,45.65829916,22.00466459,32.53697487
562.3243239,48.87919313,19.12108629,39.03937593
563.4192432,49.92131515,13.13048807,45.59561781
564.5139644,46.9665216,11.37774802,43.61504999
565.6084873,48.12361775,7.139311309,43.37564489
566.7028121,51.09854773,6.354793365,43.62023551
567.7969388,49.02587917,3.052898158,42.36592342
568.8908675,43.31567198,0.369797335,43.50633438
569.9845981,38.48180862,10.16117277,38.03498893
571.0781308,33.72756798,11.59589598,37.21857735
572.1714656,24.74770932,9.442536053,35.59872901
573.2646026,18.1858335,14.99480247,29.325262
574.3575417,13.81229673,13.59940209,28.61246051
575.4502831,8.020826884,10.42791354,24.19629351
576.5428267,11.87882471,11.53896666,19.31039747
577.6351727,13.21061719,11.52499241,12.86518878
578.7273211,3.646225541,10.46718822,8.195018638
579.8192719,3.255103857,9.583288056,9.084251242
580.9110251,7.142729711,9.776108561,6.683326127
582.0025809,5.075840006,11.18623249,7.117387118
583.0939393,1.059064191,13.87597229,5.763284943
584.1851003,-6.018491825,12.31935563,8.35233619
585.276064,-11.83417294,7.717483434,16.14417674
586.3668304,-13.26246063,5.277404027,17.76232105
587.4573995,-11.66841433,4.662838657,21.13232864
588.5477715,-6.785220023,2.95876678,21.7047437
589.6379463,-1.556943599,-1.087625369,18.99418007
590.727924,3.274948279,-0.276825169,14.6963366
591.8177047,9.900852448,5.597440665,13.43884922
592.9072884,16.29924392,10.93534329,17.5591318
593.9966751,21.13922752,9.797699787,18.42129287
595.085865,23.15349337,8.651987989,18.03485064
596.1748579,22.05036414,10.12383599,11.30686008
597.2636541,23.58349943,5.901778517,5.650345237
598.3522535,23.74917478,4.394036939,5.319444686
599.4406563,18.43537368,4.68624568,2.42218637
600.5288623,17.82839365,6.80946397,3.9510189
601.6168717,24.73625914,12.39304697,3.041762486
602.7046846,29.03141788,14.52857454,-3.28116313
603.7923009,25.1278962,12.91237359,-3.786614387
604.8797208,22.17190718,10.33235371,-2.592024485
605.9669443,24.95261478,8.147064626,0.066664182
607.0539713,24.385634,6.927775735,3.207896876
608.1408021,18.21455888,8.219757561,1.698656599
609.2274365,14.39883348,2.923862753,4.218934737
610.3138748,16.13886645,0.806556453,8.839161985
611.4001168,15.53713001,1.465900744,7.49580351
612.4861627,12.8630708,-0.359955764,7.147869465
613.5720125,13.74409349,3.686856218,12.01329781
614.6576662,14.27962813,3.613186762,13.24475917
615.743124,20.56369982,6.908297161,13.02076709
616.8283858,34.35406133,9.037472786,16.23386305
617.9134517,42.96978761,6.627921278,17.35554187
618.9983217,46.63054373,5.012880936,19.26424411
620.082996,49.70692796,1.432419305,21.14638098
621.1674744,52.44793561,2.001192861,20.71767546
622.2517572,59.2606621,0.998976001,17.63758056
623.3358443,66.59183769,3.693969766,15.65509323
624.4197358,64.1942033,6.361168958,17.24017394
625.5034317,57.8973156,12.73393718,12.77830758
626.586932,59.19330457,30.23044499,9.649842798
627.6702369,61.05148844,37.54855279,6.203716172
628.7533464,57.20304813,37.53010807,3.210390579
629.8362605,52.49970086,36.22059493,10.52802078
630.9189792,47.26085181,39.79383849,10.51162882
632.0015027,42.94509239,47.19322341,5.108883984
633.0838309,39.53065336,53.27393488,-0.987675033
634.1659639,32.77231824,60.68331998,-2.502429514
635.2479018,24.84937501,63.63108349,4.871587733
636.3296446,15.15228083,74.63240811,6.49507956
637.4111923,3.871563291,76.29676373,6.950452097
638.492545,-1.905258042,77.28904762,9.177746006
639.5737027,-4.937225363,90.13724307,14.54610232
640.6546656,-6.416151769,87.87069655,15.686193
641.7354335,1.379872413,88.84067748,13.20696868
642.8160067,5.241616535,86.17286519,15.37965282
643.8963851,-4.554602428,80.35076032,13.91944445
644.9765687,-6.853407961,81.57264046,16.43653554
646.0565577,0.728272232,79.62366428,19.63091188
647.136352,2.346633612,78.03227874,16.64581683
648.2159518,-1.405293973,71.83447692,13.70107622
649.295357,-3.77374993,71.25590396,13.17523575
650.3745677,-0.86782398,69.46742091,14.20807773
651.453584,1.982359727,67.19767864,13.6127957
652.5324059,3.45839036,63.67435331,14.17214959
653.6110335,9.427678769,47.82003067,15.43049793
654.6894667,13.43997093,39.79876946,14.32036169
655.7677057,13.26915537,36.02164743,6.572261599
656.8457504,18.9784911,33.50937563,-3.260527542
657.923601,30.03866741,31.04741861,-5.240862926
659.0012575,36.7444156,25.30981716,-2.593853636
660.07872,39.04721092,21.01321862,5.553717966
661.1559884,40.30861747,16.69170289,13.14381503
662.2330628,43.46935758,14.86541589,12.68229514
663.3099433,51.75632858,7.687896163,11.91217192
664.3866299,55.31908478,8.98918584,12.48693115
665.4631227,52.56438253,12.54256853,12.15035138
666.5394216,55.39771351,3.986551006,10.59860636
667.6155269,57.94597066,4.905125635,10.07663446
668.6914384,52.37087394,5.939025813,9.077098869
669.7671563,46.54716886,3.773727492,10.70456666
670.8426806,43.76420773,4.238673056,11.64923635
671.9180114,38.37770574,1.3769898,5.659413541
672.9931486,28.3915504,-2.715935118,5.529852047
674.0680924,18.4660047,-3.311705428,7.154535928
675.1428427,16.11706285,6.123431896,7.565242449
676.2173997,17.63333116,8.914624994,10.82204996
677.2917633,12.12250808,12.01123258,10.89725125
678.3659337,6.182156342,22.86082873,9.273567172
679.4399109,6.949531839,27.03947811,8.269564361
680.5136948,8.040818357,35.63400045,2.930002526
681.5872856,9.668337719,41.01466741,-0.669246336
682.6606834,11.57745564,43.42185526,6.979831208
683.7338881,9.346446207,45.61970645,8.093791275
684.8068997,7.455408316,44.2265507,9.449221399
685.8797185,6.528779693,46.24781379,13.68226183
686.9523443,3.863064752,43.75455581,4.278471561
688.0247773,4.962237453,42.6694128,0.900202933
689.0970174,7.166464185,42.2856236,4.07016187
690.1690648,6.200181112,39.02790559,8.399125433
691.2409195,9.550909181,35.37501719,13.49297366
692.3125815,15.65458735,29.9464198,16.4989187
693.3840508,13.74862454,25.14248326,22.97837003
694.4553276,5.863138183,15.65105175,20.9213977
695.5264119,1.171959439,6.974427008,16.06261854
696.5973036,-2.037936734,3.399715981,16.68958509
697.6680029,-3.960090727,0.028804452,19.70563331
698.7385099,-2.344777067,0.689368011,28.35968573
699.8088244,-4.949053586,7.147517039,30.82715406
700.8789467,-7.237581921,11.67888057,25.13204601
701.9488767,-3.413074609,11.1344798,25.79582572
703.0186145,-3.155788141,14.12892245,32.06406764
704.0881601,-4.312325427,17.10857648,33.78965799
705.1575136,-0.926758543,11.62216136,34.61282377
706.226675,0.928983007,8.967987812,38.4751934
707.2956444,-4.266902931,13.91794214,43.19842285
708.3644218,-9.099139659,15.86063839,45.46389458
709.4330073,-3.38851478,13.58563114,44.24179719
710.5014009,1.820471737,11.43168979,42.73110383
711.5696026,1.026843894,13.34733414,36.23238091
712.6376126,4.842725817,11.85425445,34.35106672
713.7054308,6.370707708,6.905285587,39.28100375
714.7730573,5.982145264,9.388220715,43.2936302
715.8404921,14.66546344,12.22004885,50.49285571
716.9077353,20.68124473,16.27406088,50.4571867
717.974787,19.29058266,15.5218727,44.85609032
719.0416471,18.50259797,8.119513443,38.42061325
720.1083157,18.21684356,6.635683151,25.85959887
721.1747929,21.13147724,13.62107537,19.99891174
722.2410788,22.99142563,21.98976806,23.70146541
723.3071733,19.28285134,22.32619764,21.12649905
724.3730765,17.3440263,25.50548978,15.79813772
725.4387884,17.43993991,28.59210247,12.35664836
726.5043092,16.9662352,25.50518512,3.609592745
727.5696387,16.95848965,24.39775525,4.9050338
728.6347772,17.62134503,23.63218127,11.63815163
729.6997246,16.33752368,21.99403672,7.8250021
730.764481,13.15083821,21.40173152,7.549732943
731.8290465,16.53800796,20.69027138,10.12162462
732.893421,22.28576266,19.39362781,10.80593812
733.9576046,23.22130429,19.88944804,13.32368377
735.0215973,25.99311196,17.50308933,14.77071
736.0853993,26.9622054,14.04009109,12.61850511
737.1490106,24.83979841,13.57590669,13.34991311
738.2124311,26.34701537,8.584555294,16.96782272
739.275661,27.762923,10.2719559,13.34874996
740.3387003,31.3505055,18.00806584,14.02551739
741.401549,36.27864595,17.63058369,17.02795943
742.4642072,36.30761378,16.08007385,13.79624215
743.5266749,37.22375974,9.002379742,10.77953876
744.5889522,36.44931624,8.197051362,7.451505656
745.6510392,29.99136623,15.61152952,7.400083662
746.7129358,24.53402822,17.78058303,5.338706385
747.7746421,20.03078465,17.62617193,3.56872202
748.8361581,13.56318468,16.16918178,6.706161061
749.897484,9.247525905,21.72142085,7.491904958
750.9586197,8.960518591,26.35673429,6.915510055
752.0195653,4.274783761,25.5115406,3.196310405
753.0803208,0.977102045,24.91189441,-0.302510854
754.1408863,6.087329783,24.84620711,3.667670574
755.2012619,6.255280104,25.59679815,6.558156556
756.2614475,8.68721268,28.49152339,3.828323717
757.3214432,18.78868224,28.60988144,4.546807017
758.3812492,19.76001747,27.78727599,11.42325373
759.4408653,14.83011548,29.32943918,22.32505568
760.5002916,12.68873292,25.9441313,26.81741492
761.5595283,12.18796016,27.82825817,26.29743642
762.6185753,14.60693336,30.85420392,29.91719167
763.6774327,22.85330859,36.84280452,32.03713351
764.7361006,31.80929339,42.03167377,36.75492927
765.7945789,32.12386623,32.11670712,38.18496477
766.8528678,33.01219247,26.33610729,39.69783956
767.9109672,39.862486,25.20026882,48.9316977
768.9688772,41.11361596,29.80723935,48.89536927
770.0265979,37.815079,37.90304907,47.513572
771.0841294,35.88273492,35.39850611,48.83001918
772.1414715,37.78925152,33.81675631,45.19818888
773.1986245,41.13670123,31.79732179,43.3879422
774.2555883,35.84478456,35.44182242,43.24452748
775.312363,28.84130792,44.5893451,41.20626708
776.3689486,28.84808981,41.68245755,33.00008557
777.4253452,28.95159264,39.29176489,22.30280761
778.4815529,30.83303202,38.42177143,16.01010393
779.5375716,31.51270033,37.15409725,18.00534044
780.5934014,24.75949043,44.14088949,19.08530754
781.6490423,19.9271993,47.46972264,11.3378479
782.7044945,17.60702432,45.80948408,8.850352937
783.7597579,11.88522303,47.01093911,8.033195227
784.8148327,5.214892159,45.80036459,8.475237175
785.8697187,0.894371918,50.94803278,9.388327364
786.9244161,1.134718885,57.38009914,6.745133823
787.978925,4.320616465,52.90356704,13.49280412
789.0332454,6.016831624,50.26902964,15.52454917
790.0873772,2.933780562,44.80792157,11.13936339
791.1413206,2.419372492,44.67352347,11.18908238
792.1950757,9.823137991,53.38214417,19.64695569
793.2486423,11.36962843,57.44056332,29.99626576
794.3020207,7.572927325,56.64814201,25.29020251
795.3552108,6.654408683,48.47047942,24.14637239
796.4082127,3.408308214,44.25829239,27.19384942
797.4610265,4.2225288,42.96067025,28.3163302
798.5136521,7.160366593,41.00624337,37.49264121
799.5660896,3.462583982,37.39782611,46.60143484
800.6183391,2.35695935,28.65591787,47.24006007
801.6704006,6.657250608,24.20980207,41.68662806
802.7222742,11.65987626,22.77368357,46.27674816
803.7739599,11.41967125,23.86713521,55.76754935
804.8254577,6.294375881,29.74519896,57.85320354
805.8767677,6.505871069,39.24028235,53.13866677
806.9278899,8.176746839,43.90935675,46.38886396
807.9788245,9.145312276,50.21539859,49.32734375
809.0295713,15.42985013,61.47228657,52.77164802
810.0801305,22.32047926,65.9972216,58.0267374
811.1305021,26.20717863,76.07705427,61.00677015
812.1806862,26.16292503,80.4035699,56.35680359
813.2306828,22.51304776,77.69153759,60.87733833
814.2804919,21.79652547,82.12663453,54.13089347
815.3301136,29.56313164,87.81542785,45.47118651
816.379548,41.10970192,98.85705568,52.54144693
817.428795,43.59545538,99.91614746,52.56824415
818.4778548,39.42372189,91.07534125,49.23992848
819.5267273,38.74015511,81.61118137,41.43376761
820.5754126,36.86576722,74.90287959,36.64746812
821.6239108,35.85705601,73.77863117,40.66801292
822.6722219,38.37527882,63.13473346,38.48631222
823.720346,33.73770055,51.60599445,40.76597004
824.768283,26.17536315,41.89060816,43.62740074
825.8160331,25.02631103,38.1492974,38.31630403
826.8635963,27.66201117,40.23479363,41.66512833
827.9109725,30.74457728,36.85364133,47.21467988
828.958162,30.89423159,39.67914707,44.04962478
830.0051647,29.19405487,38.99686751,39.9948377
831.0519806,27.4672646,35.35567178,34.98218705
832.0986098,26.54302925,35.42741845,35.89507718
833.1450524,32.04685088,36.6223602,39.01529851
834.1913083,39.1077551,39.46865382,33.34717688
835.2373777,37.29692304,34.21334562,27.78392696
836.2832606,31.11199894,30.13585845,21.67039031
837.328957,29.95555638,29.69504991,19.96442988
838.3744669,30.26228354,31.05771127,20.47211662
839.4197905,27.59034054,28.97488176,12.60869717
840.4649277,30.28708173,26.1439411,12.69738196
841.5098787,36.76282509,29.96162944,13.28677131
842.5546433,37.48801211,25.9339591,4.479542388
843.5992218,35.09680043,24.51234001,1.692158184
844.6436141,31.16906301,27.11469285,-0.247773775
845.6878203,25.5067339,26.33982857,0.198701014
846.7318404,20.60876597,27.44105444,0.589614091
847.7756744,15.54524253,26.80230137,-5.92341745
848.8193225,10.95910063,31.97030585,0.079224989
849.8627846,11.90622491,40.68835253,8.015170543
850.9060608,19.83037735,42.09206152,4.523138163
851.9491512,26.56139939,43.38037251,5.537108279
852.9920557,27.36484467,46.9644588,9.312931788
854.0347745,26.76444457,46.65838767,8.910885352
855.0773075,24.38664029,43.17726754,8.008993931
856.1196549,19.08959627,39.93624972,10.36042571
857.1618166,18.12423926,35.58212554,13.52426865
858.2037927,21.62808793,30.59245395,14.38115144
859.2455833,22.73248914,27.58293252,14.79746799
860.2871883,24.44840159,18.74205476,12.08420108
861.3286079,27.61517581,12.4932547,13.83134693
862.3698421,25.46819901,13.4389931,19.46731688
863.4108909,16.45080347,9.642017686,16.22982984
864.4517544,9.839971244,2.601095319,18.39316813
865.4924326,15.29071174,-2.240725457,20.51259317
866.5329255,21.35865887,-0.539937585,15.63308612
867.5732333,19.08409351,-0.429757152,17.94326447
868.6133559,16.40603047,3.995878644,21.26023443
869.6532933,13.86075702,11.82207729,24.83868063
870.6930457,11.34184989,11.88160618,24.80421499
871.7326131,10.56967228,13.61891913,18.02863996
872.7719955,11.70485673,16.24179786,17.24515724
873.811193,13.73683558,23.49092225,22.09177708
874.8502055,14.91585343,32.9405384,20.4495608
875.8890333,17.90494999,40.62498496,15.74204172
876.9276762,14.17630262,48.78743137,16.90038356
877.9661343,4.471475389,50.35969033,16.80423077
879.0044077,5.71748379,50.08524775,12.9253241
880.0424965,8.111428085,52.48531824,16.12561955
881.0804006,3.696907509,50.9307554,25.34010036
882.1181201,7.049262335,52.02301842,23.34010569
883.1556551,13.56130514,60.02488236,14.81420657
884.1930056,12.82652719,61.02088442,11.0841831
885.2301717,9.290040665,59.79227352,5.695576898
886.2671533,5.581995822,58.8083224,8.32207994
887.3039505,4.202457943,58.10108533,8.97112351
888.3405634,5.922830056,62.48731268,-0.205518959
889.3769921,7.357705475,54.34507403,2.765155394
890.4132365,11.6648533,43.47885814,0.823485522
891.4492967,18.6761375,45.54536038,-2.723012755
892.4851727,21.64295768,47.63478376,6.094862459
893.5208646,23.15382741,55.96426981,9.106084156
894.5563725,28.36358737,60.7350279,9.590812606
895.5916964,33.89000245,51.41236648,14.24118527
896.6268362,37.55641567,46.18926355,21.41363416
897.6617922,40.79442891,48.76682047,26.42047758
898.6965642,43.10811118,56.45892565,27.2868735
899.7311524,45.38601375,56.42560291,23.38501199
900.7655568,43.08373112,51.04288464,23.78741743
901.7997774,34.0288142,47.34562742,27.90931681
902.8338143,33.5286026,42.33222939,30.93311104
903.8676675,40.40582512,47.22269165,41.64347454
904.9013371,38.78397857,53.23311454,48.26013798
905.9348231,33.86829417,51.507238,51.79018479
906.9681256,30.27928864,56.55230086,48.28754461
908.0012446,26.77215652,61.56784181,40.35205204
909.0341801,24.63075457,56.54942327,46.43741402
910.0669322,21.55673245,56.86920549,49.96395717
911.0995009,20.19812849,53.13473793,51.33590548
912.1318863,16.78831627,46.49201071,50.10422869
913.1640883,8.250733407,45.87237516,41.82679964
914.1961072,7.334107422,36.33801253,44.48501969
915.2279429,15.52421072,35.27885051,50.42584657
916.2595954,18.22628905,37.8750244,52.16314754
917.2910647,14.14774991,29.81456909,55.2584886
918.3223511,15.91245741,30.67758149,52.69022518
919.3534543,21.76917531,24.65400311,44.6858258
920.3843747,25.07035706,13.56008222,43.49887556
921.415112,31.10127974,17.45452622,42.60384766
922.4456665,35.40058527,21.59632023,36.33263186
923.4760381,34.43738088,20.60610416,30.33181601
924.5062269,35.97728091,11.59518464,23.54841933
925.5362329,36.03721449,7.880839245,26.61657752
926.5660562,33.6086281,11.52669276,30.46762819
927.5956968,36.66303884,14.39009983,28.57801534
928.6251548,39.63549259,24.06025459,30.99252019
929.6544302,35.67898302,24.88658805,27.8178094
930.683523,29.87162882,21.80475966,26.49789979
931.7124333,28.49336858,31.25487514,25.30983071
932.7411612,29.88891985,42.33120944,22.77070218
933.7697066,28.85410496,45.84741662,30.42662753
934.7980697,26.23857653,50.8613389,34.22734289
935.8262504,21.44062085,50.13896138,34.70589452
936.8542488,15.28094839,48.31069497,33.52587999
937.8820649,14.83599237,57.26815607,29.36425633
938.9096989,16.43933355,56.79486799,37.10705076
939.9371506,14.67214706,59.09400013,41.43800649
940.9644203,13.86346472,58.99086071,28.17194628
941.9915079,13.86809736,49.80802458,22.98659138
943.0184134,10.68276639,54.41095286,22.53498852
944.0451369,8.778240399,55.85791009,14.04048457
945.0716785,15.05766477,54.61980134,16.9875496
946.0980382,19.72880806,57.23372335,23.49471519
947.124216,14.17935094,52.75290647,20.92308684
948.1502119,13.45569217,47.77259184,21.24739631
949.1760261,19.75644989,45.96575566,24.78471475
950.2016586,17.83409932,44.89394534,24.68169566
951.2271093,14.80184889,46.84200184,24.20511568
952.2523784,18.4149964,52.85880982,26.54601943
953.2774659,18.37068033,51.76663879,30.55182654
954.3023718,14.68025087,50.28407925,32.34017766
955.3270962,14.04806962,57.55901111,35.36239757
956.3516391,17.63316116,60.57952314,40.93734457
957.3760006,24.15569284,57.76957735,41.37123819
958.4001806,27.50975502,50.63680967,43.30734329
959.4241793,25.084376,47.00656393,43.35827316
960.4479967,23.35167209,52.60383486,37.66124362
961.4716329,26.00462977,59.12373717,31.13598881
962.4950878,28.69935847,64.37534246,25.64251465
963.5183615,30.47363001,66.43377685,23.48293565
964.541454,33.37895241,69.12023146,14.75609238
965.5643655,33.8858462,71.76154644,5.410512528
966.5870959,29.92585316,66.83538652,5.820031535
967.6096453,23.92350708,65.66676084,5.738852885
968.6320137,20.4742877,67.36455391,1.952328264
969.6542011,20.19069797,64.7537555,2.054424653
970.6762077,15.83204214,68.49989765,-2.061490025
971.6980335,9.702557138,68.71354346,-9.302196129
972.7196784,11.42165851,67.93075219,-3.532834682
973.7411426,14.9546984,77.42272505,-0.86955991
974.762426,14.63011073,78.42589673,-3.223381214
975.7835288,16.35871825,77.79247322,3.808257001
976.804451,12.74060509,78.57823485,0.670123885
977.8251925,5.563034114,74.52921407,-3.864436134
978.8457535,11.02690174,76.64050328,6.686479965
979.866134,15.59822908,72.21497666,12.41181361
980.886334,14.01046462,62.15616664,16.6137527
981.9063536,19.82819711,56.21142637,22.64435075
982.9261929,21.21038893,52.12933846,22.59478775
983.9458517,18.1164245,57.78402243,23.03187248
984.9653303,24.63511652,64.9181771,23.58123315
985.9846287,31.99299754,56.76182758,23.7986789
987.0037468,30.79975018,51.12102342,26.42518778
988.0226847,25.96967385,51.35067023,27.35254869
989.0414426,23.24368042,45.01746824,25.38808318
990.0600203,25.38913218,40.70426657,26.44086404
991.078418,34.10501806,30.07870192,28.47950572
992.0966357,40.53054363,23.67638175,27.31146433
993.1146734,41.35289594,21.44844062,23.69353224
994.1325312,51.4134734,16.67224784,16.21039174
995.1502092,67.54538578,17.79999118,6.500032902
996.1677073,78.70580196,13.68671604,1.650938003
997.1850256,93.50884259,17.77787195,6.744736454
998.2021641,106.0709417,25.00235881,9.282357819
999.219123,104.7302363,20.27502416,3.850690309
1000.235902,103.8890269,15.3638969,1.891859888
1001.252502,107.5697357,15.45550966,0.875250864
1002.268922,108.6095527,14.84222621,8.334038465
1003.285162,113.7845994,12.14167047,22.4698099
1004.301223,116.5052209,13.36520521,25.5558403
1005.317105,110.0476397,14.02300061,25.57375983
1006.332807,104.2775084,15.74290869,23.43840331
1007.348329,95.51807434,14.45150655,21.69594166
1008.363673,82.77489442,14.20333363,22.53759226
1009.378837,74.37317516,18.99811686,18.11294492
1010.393822,61.31672231,16.6684924,19.55785205
1011.408627,40.82788765,19.15720502,24.01930767
1012.423254,25.50923774,21.4587529,18.40819386
1013.437701,20.67157494,21.06026321,14.54773316
1014.45197,24.06271983,28.15710104,22.5049705
1015.466059,23.23867694,30.31597565,26.14307819
1016.479969,12.87572225,32.78660642,23.85046286
1017.4937,8.003448381,31.93231687,25.82236606
1018.507253,12.51992018,30.46965572,25.37190061
1019.520626,17.50325085,40.17268763,25.57262696
1020.533821,22.55441549,47.92721981,28.07076343
1021.546837,26.99689488,54.14127685,32.21812216
1022.559674,26.23494631,53.57870332,37.46540893
1023.572333,25.98187902,47.97822643,38.55603388
1024.584812,32.48164714,45.27574822,42.44646795
1025.597114,36.8227746,42.78774688,46.45161779
1026.609236,37.14498092,40.10422068,49.81570268
1027.62118,43.12140863,43.64983378,50.2216812
1028.632946,46.47482607,50.72775532,42.54649484
1029.644533,38.59108625,45.97907214,34.79067921
1030.655942,33.21166858,43.7445583,28.49665559
1031.667172,33.96106772,38.20347934,28.92559005
1032.678224,32.42347839,37.25557931,23.77690961
1033.689098,28.55294544,47.53698042,14.12885241
1034.699793,23.58587227,40.32508422,13.36762255
1035.710311,20.63062354,38.09616484,6.767927718
1036.72065,18.77466567,44.31707097,1.19581299
1037.730811,17.17207588,47.57201851,5.312983206
1038.740794,13.50681069,56.15679234,9.179055379
1039.750599,0.81535142,58.66611044,7.285596025
1040.760225,-7.11659333,57.42891326,6.243251118
1041.769674,-5.416363437,56.01364691,6.987998713
1042.778945,-3.455847455,53.69548693,2.097721634
1043.788039,3.452649323,55.36977552,-0.68157132
1044.796954,3.984834148,54.95249732,1.182139176
1045.805692,-5.697417456,50.05272341,4.543625124
1046.814251,-9.455754868,40.81001143,10.73011029
1047.822633,-11.64842109,32.27166753,11.44627914
1048.830838,-12.40128658,30.1474832,6.551006089
1049.838865,-5.442531997,30.43851729,6.232913462
1050.846714,-1.69171667,31.84427195,4.853917022
1051.854386,-1.415329847,32.07102283,2.768077431
1052.86188,2.548848782,25.32723098,6.257174665
1053.869197,11.0933693,14.55553552,6.520697439
1054.876336,30.99047727,9.227015734,7.399547747
1055.883298,56.03938676,8.461751931,16.54799517
1056.890082,79.26788598,14.03641772,19.18614779
1057.89669,112.8361418,18.70060836,17.31484268
1058.90312,156.8291623,24.6352384,22.00202846
1059.909373,204.4202809,45.98541592,25.4643482
1060.915448,259.8442754,68.84751752,27.96647456
1061.921347,326.0247248,91.35186066,30.06777549
1062.927068,395.5868175,115.4813791,35.16206389
1063.932613,460.9741698,136.3960361,46.0664074
1064.93798,527.1480513,156.6004767,50.20162399
1065.943171,596.5495569,177.6753442,50.38987265
1066.948184,664.4289887,199.7919829,54.20241423
1067.953021,722.3870523,219.9755653,61.44838384
1068.957681,764.4410143,245.6242836,70.56696634
1069.962164,797.5405871,262.4514738,67.68310941
1070.96647,819.2343301,266.5967758,59.95675672
1071.9706,825.2696654,275.1137309,53.51334023
1072.974553,825.388465,277.0910686,45.30012265
1073.978329,810.1781412,271.4110864,47.42242959
1074.981929,766.4001435,254.0415848,45.90442316
1075.985352,711.8032971,229.4641383,39.7026094
1076.988598,656.3782886,201.0709681,36.30421564
1077.991668,588.3382369,168.9813874,28.2090887
1078.994562,512.1962423,144.9665032,26.96345657
1079.99728,436.4047867,120.5689069,25.30902222
1080.99982,359.5406358,99.85412769,18.26381365
1082.002185,288.8752004,74.37361249,14.31109363
1083.004374,228.8325084,55.10485677,7.836953722
1084.006386,172.6637689,44.47207367,1.340333383
1085.008222,121.4685497,27.82715537,-2.337499564
1086.009882,82.63386487,22.16940384,1.973883765
1087.011365,49.15859296,14.86724619,5.945815971
1088.012673,17.75772003,11.74264801,2.932504582
1089.013805,3.107859925,12.90314177,-0.805695355
1090.01476,4.702285545,12.81735434,-3.246572803
1091.01554,6.361099112,19.48075662,7.034514847
1092.016144,4.839294099,21.06001747,13.47604639
1093.016572,7.229428636,26.16629162,11.32717929
1094.016824,10.97535248,25.65669052,12.91082273
1095.016901,12.90540752,20.56987145,15.95318134
1096.016801,19.37844809,24.74648654,22.98657519
1097.016526,24.43013294,26.64933946,27.18535461
1098.016076,20.37218158,24.41001683,30.69060756
1099.015449,16.11756795,16.71691318,26.12510241
1100.014648,18.00863022,12.79261743,17.19602488
1101.01367,18.7636703,7.201436593,20.63137041
1102.012517,15.01797405,3.814193929,25.88463119
1103.011189,17.42691803,9.261879556,29.89889968
1104.009685,23.84317241,5.809480774,32.49247001
1105.008006,21.3352257,6.096700708,33.88313961
1106.006152,15.40602419,2.380547298,32.66127563
1107.004122,15.3690991,-3.4800232,29.00009267
1108.001917,15.84607849,-0.027467076,34.41255356
1108.999537,13.22056562,3.570596671,39.54951204
1109.996982,14.06713565,7.701878232,40.71637264
1110.994251,15.74464797,5.901799107,38.9321181
1111.991346,13.86553586,8.650901854,32.11706366
1112.988265,14.87625157,12.61874298,32.73476223
1113.98501,15.84192472,8.872533147,35.42764992
1114.981579,11.77371203,8.043975909,37.12482712
1115.977974,4.510905618,7.241564399,36.63679287
1116.974193,-8.55096594,8.348381546,30.34707318
1117.970238,-23.79197372,10.72310225,26.57503802
1118.966108,-31.94449595,4.605258036,26.77429457
1119.961804,-34.92338893,7.628602517,25.02254693
1120.957324,-34.36812503,12.65035165,14.24242611
1121.95267,-20.75673758,5.544809373,8.12476788
1122.947841,6.746423552,4.284031083,9.09346163
1123.942838,40.50113367,9.491303631,8.017685738
1124.93766,77.12003942,22.90655252,17.65858642
1125.932308,122.8740145,43.383277,27.51269883
1126.926781,189.0516223,69.49223253,33.16794544
1127.921079,262.8917033,92.84128972,48.82427836
1128.915204,332.0232689,116.9061821,61.7479873
1129.909154,413.0873037,147.5245631,74.46497423
1130.902929,511.160662,176.4707002,94.97614858
1131.896531,610.5773422,218.7083552,119.1953846
1132.889958,703.296263,259.9992023,147.3889523
1133.883211,791.4031129,293.3686637,173.3448068
1134.876289,867.9741599,329.9269408,197.0734753
1135.869194,926.3702285,363.1021962,220.266226
1136.861924,977.0638488,384.664273,243.0309342
1137.854481,1018.233411,395.6270666,253.48353
1138.846864,1031.119282,409.7322873,257.9319682
1139.839072,1015.073305,410.0007231,260.9886785
1140.831107,988.5149357,397.4413129,247.2617896
1141.822968,959.1235851,379.1247424,240.7910125
1142.814655,916.7219359,350.3092624,238.8613553
1143.806168,858.2851345,324.7324312,218.5584554
1144.797507,794.3525693,286.2282409,191.0182893
1145.788673,726.2240578,245.9348095,170.9902533
1146.779665,644.6297549,212.6096108,150.2695411
1147.770483,556.6897362,174.2487629,116.0142845
1148.761128,477.0021034,144.0606788,92.65367435
1149.751599,406.4781652,111.8867199,74.98940859
1150.741897,345.2403855,79.64098514,50.7521062
1151.732021,286.798873,50.37671764,34.80572659
1152.721972,227.8749765,28.0423387,17.645151
1153.71175,181.57435,15.25941596,3.980857736
1154.701354,145.2601638,1.645822576,-3.659809892
1155.690785,114.4358496,0.520290538,-6.609410229
1156.680042,93.51595252,0.546065411,0.370193956
1157.669126,71.03207515,-1.659649292,4.929240825
1158.658037,46.49034528,1.184092585,9.210718246
1159.646775,31.20183426,-1.101241657,21.24793799
1160.63534,25.02027974,1.857837925,29.22847658
1161.623732,25.36030618,10.66282186,31.34419672
1162.611951,21.27747502,11.04692777,41.9503448
1163.599996,14.05606275,6.009299316,45.07362096
1164.587869,20.30777255,8.58312663,45.35125743
1165.575569,26.89073663,13.59610785,53.90266971
1166.563096,21.16546584,15.7321921,50.72633135
1167.55045,19.39439189,16.64962865,46.92309525
1168.537632,22.42735621,15.21010427,42.94502054
1169.52464,16.99220575,18.53454136,38.28566326
1170.511476,4.364128256,19.00911572,35.19674087
1171.498139,-0.598380561,12.99687029,26.67045001
1172.48463,8.839312915,9.428945,27.91775243
1173.470948,17.13431893,5.516013436,28.06137738
1174.457093,20.53543781,7.293696153,22.26421621
1175.443066,26.78948426,13.14691352,21.6063518
1176.428867,28.85072345,16.99775493,14.55140558
1177.414495,30.9409005,21.50098948,5.63266418
1178.399951,40.76897015,24.30073684,-1.472410235
1179.385234,51.12181035,30.37861894,2.213961217
1180.370345,57.31830903,32.44548544,16.13569068
1181.355283,57.9531636,31.21755831,17.58246995
1182.34005,57.14394559,31.48849293,25.63006141
1183.324644,58.78495995,26.16014748,41.58554546
1184.309066,64.11151617,30.06423554,51.28874427
1185.293316,72.61548864,32.63046818,60.26420016
1186.277394,71.91267734,21.60364818,62.13291954
1187.2613,62.84605875,19.5897498,61.72411251
1188.245034,57.42461078,18.4713494,59.67142563
1189.228596,49.13606978,12.94350331,57.93330404
1190.211986,33.4666032,14.28087172,59.1511938
1191.195204,19.49238342,11.80217849,58.42805158
1192.17825,9.949866066,8.934817843,60.32551994
1193.161125,-0.451537094,10.6119361,57.15165134
1194.143827,-10.03166509,12.05471586,52.73529282
1195.126358,-9.469707735,10.81370618,54.89626253
1196.108718,-0.981654276,12.41864088,58.08478858
1197.090905,2.822504969,22.8155155,62.21716307
1198.072921,1.300793114,26.4328993,59.81647007
1199.054766,-0.187370462,26.05324365,51.76472836
1200.036439,-1.15531567,28.15431204,41.57829338
1201.01794,-1.451348054,29.82308856,35.73984803
1201.99927,-3.302410998,34.75664824,34.62222925
1202.980429,-0.9490636,34.26668596,35.60991469
1203.961416,8.676244949,32.48756587,34.20447176
1204.942232,11.91433087,33.63116953,28.10562959
1205.922877,10.73118853,33.06070358,36.57389436
1206.90335,17.48036237,36.27657454,38.77732899
1207.883652,27.22699037,45.16044961,36.89069843
1208.863783,31.68826597,53.99102919,39.26731886
1209.843743,31.97572043,55.97437427,27.71186696
1210.823532,30.13314465,60.61431265,26.28273174
1211.80315,23.2178474,62.59897042,23.70298735
1212.782596,20.47829997,64.18713007,17.34420223
1213.761872,27.62551517,70.63883108,19.03473171
1214.740977,30.51280577,66.09735458,18.11928299
1215.719911,32.69460726,67.16807749,18.80658707
1216.698674,39.20222243,65.50466772,8.290979469
1217.677266,40.5466949,64.26544511,7.317194368
1218.655688,44.11370715,68.36868071,20.77910935
1219.633938,50.7444739,65.01747384,21.86802329
1220.612018,50.08221191,68.58851627,25.06422407
1221.589928,43.11655849,58.33835002,24.54615413
1222.567667,32.55211567,47.66353862,22.60968867
1223.545235,28.68738211,51.97019428,27.40388223
1224.522632,31.53176608,51.35643513,22.83356817
1225.499859,29.83989357,47.23486232,19.13205971
1226.476916,32.48630358,45.80370484,23.93981797
1227.453802,35.72847852,46.43729319,31.8960866
1228.430518,29.34807931,42.37824289,41.8066989
1229.407064,24.93518913,43.60105276,45.09571032
1230.383439,23.10280434,48.69041384,40.38771383
1231.359644,22.10748509,57.99324424,42.69712243
1232.335678,21.49265461,72.51235888,48.25122787
1233.311543,13.97026575,76.52762304,44.54622343
1234.287237,5.98707341,76.0794286,43.50942684
1235.262761,0.852177186,75.55141536,44.0956298
1236.238115,-0.119855133,70.30265377,42.69222467
1237.2133,4.129500667,69.74174095,44.94857252
1238.188314,2.787828379,73.69592962,39.32685439
1239.163158,3.58549255,69.01814924,31.19746856
1240.137832,12.53855552,62.68012714,29.40593798
1241.112336,16.52492766,67.44790035,33.21528164
1242.086671,17.54975097,72.4123278,34.90079709
1243.060836,18.76493376,76.64856194,25.77463975
1244.034831,19.74633707,81.12380054,26.32989804
1245.008656,20.34094543,72.85198463,26.61716952
1245.982311,16.51232881,73.0546902,23.48282384
1246.955797,18.39369113,84.31356276,23.33330567
1247.929113,25.98074476,82.74521161,7.012883888
1248.90226,31.66400928,90.73215577,8.53214689
1249.875237,43.51938066,111.5468243,19.75984248
1250.848045,54.36282735,112.5431185,18.52617998
1251.820683,53.67089458,109.0004839,21.36235403
1252.793152,49.68501341,117.8597172,12.2844039
1253.765451,50.52683973,126.9053491,11.54023817
1254.737582,58.01066115,139.1921157,23.0763118
1255.709542,63.91950994,149.0942374,27.34687271
1256.681334,63.54208628,158.799977,29.1886275
1257.652956,63.70247678,165.158983,29.02617537
1258.624409,59.85496806,158.2818587,33.33919356
1259.595693,53.53297688,154.189786,36.92885643
1260.566808,57.31055664,158.5062129,36.63836613
1261.537754,58.83678728,158.7842936,34.00425771
1262.508531,52.41998195,148.3492792,37.69685158
1263.479139,51.48425409,149.0733053,41.95195617
1264.449577,48.59774834,150.179282,29.26859255
1265.419847,39.03699774,139.7602929,19.53667295
1266.389948,35.25969399,140.9807041,19.38197788
1267.359881,39.22571709,141.0093217,23.8769536
1268.329644,39.79009599,139.1811544,31.86970676
1269.299239,33.1829495,142.576505,35.20555091
1270.268665,30.61863108,142.5203412,35.77382302
1271.237922,34.47852081,140.840435,36.38871589
1272.207011,37.8670268,148.4031102,45.78415424
1273.175931,41.35485154,157.092038,48.82613037
1274.144682,42.49438848,147.0174589,45.07090762
1275.113265,40.37997026,135.7930912,46.80214347
1276.08168,42.28676257,130.698879,43.95717884
1277.049926,47.74792144,127.3637799,48.67799479
1278.018003,54.67123847,128.6004723,51.78332196
1278.985912,61.18174037,127.0172525,49.65446354
1279.953653,59.31414618,123.8089961,47.78058073
1280.921226,52.78194338,108.0546782,43.58549661
1281.88863,48.55157368,90.42711428,43.86298416
1282.855866,45.80869882,85.04748843,39.90359565
1283.822934,42.44479165,76.9726897,31.50505475
1284.789834,34.75455193,68.431598,21.13408249
1285.756566,29.80943353,55.9595929,18.61626413
1286.723129,26.93192255,46.83978464,14.26157418
1287.689525,14.85003182,33.82514411,2.036949449
1288.655752,5.774692986,20.43280935,2.531310154
1289.621812,8.299077526,27.04418475,5.537424752
1290.587704,11.03075488,27.34814643,9.779971963
1291.553428,10.92837346,25.62397832,13.49785938
1292.518984,11.23982302,20.25691421,8.86876821
1293.484372,10.11979875,12.39318385,8.80540206
1294.449592,10.26402326,15.82456855,8.660356022
1295.414645,20.998845,21.3877039,10.77037362
1296.37953,35.36059187,37.10973678,16.68343503
1297.344247,42.47350453,46.05333368,17.67551101
1298.308797,47.44923672,46.89979774,21.2136049
1299.27318,48.71164136,50.02976774,24.48041216
1300.237394,49.10761993,58.7812868,21.38966742
1301.201441,58.10653547,73.70781428,20.29309203
1302.165321,64.3117878,80.27256323,26.06271565
1303.129034,62.38597027,88.31951797,27.51189928
1304.092578,62.71300167,90.10398081,28.27114399
1305.055956,63.93562432,86.87473752,23.67105717
1306.019166,57.96135045,88.3123575,17.00757926
1306.982209,46.61279447,89.24163738,21.96403964
1307.945085,40.19766735,88.6191317,22.79419951
1308.907794,35.39892424,78.91084118,29.13339468
1309.870335,22.5957624,72.5846795,34.82645845
1310.83271,12.61114176,66.1772625,37.52330286
1311.794917,12.43242843,60.21654419,43.33208215
1312.756957,10.42797506,54.0395218,41.53029465
1313.718831,6.20231715,41.55344742,44.49894612
1314.680537,8.438348309,39.13405534,43.36985568
1315.642076,10.25215144,30.01079882,37.41496785
1316.603449,3.526510358,16.16281992,33.2855345
1317.564654,-0.16429462,13.12508864,32.25191391
1318.525693,4.458298288,16.53658757,42.90012102
1319.486565,2.802047539,25.35754131,55.05609807
1320.447271,-1.778400878,35.21297475,57.44548314
1321.407809,-0.308517997,39.49371898,56.62099313
1322.368181,-3.561795084,36.31183892,62.04022825
1323.328387,-6.669357519,45.22592856,61.39364559
1324.288426,-3.004116834,59.84375009,58.42396163
1325.248298,-1.222985846,70.12586969,64.51339388
1326.208004,2.351068953,77.99651288,68.59574624
1327.167543,7.059020366,73.31351445,67.63048466
1328.126916,6.309681618,80.52937583,63.26550943
1329.086122,5.675580986,98.45128245,64.80509551
1330.045162,7.735238651,106.1826867,67.39461076
1331.004036,7.913837263,117.97064,62.42056854
1331.962744,7.884910363,134.189238,69.33805137
1332.921285,15.11537134,150.4935512,69.80734091
1333.87966,26.35356019,158.5956782,56.84982907
1334.837869,31.09517263,155.4616414,52.31221413
1335.795912,30.38955876,147.4315915,41.2397872
1336.753788,34.30948036,142.0605233,36.02917417
1337.711499,42.16215808,146.3004171,29.77272993
1338.669043,44.15419809,145.0248884,12.0970341
1339.626422,44.22946526,137.6286373,10.68664337
1340.583635,45.60893092,133.4867605,13.80375069
1341.540682,41.714523,136.9051696,15.84605399
1342.497562,41.18841082,133.6370501,13.53130716
1343.454278,47.9913006,128.2306367,9.586403767
1344.410827,46.7739779,124.7849747,17.76004778
1345.36721,39.86847291,106.8337778,24.2163366
1346.323428,37.73277936,104.6465993,24.93475164
1347.279481,31.37046503,104.069834,29.84182237
1348.235367,25.53468888,90.82758042,47.30822289
1349.191088,31.86314167,83.67197121,62.62725455
1350.146643,34.13520254,79.41364461,62.68661181
1351.102033,28.72343714,82.15855455,61.88703388
1352.057258,28.09724576,78.04269536,66.98968647
1353.012316,28.97523108,73.72469684,72.14872868
1353.96721,35.5151039,81.82446706,79.3876456
1354.921938,51.86414009,88.19016297,92.01821593
1355.876501,66.34440683,80.14432328,92.41549478
1356.830898,70.38669384,64.9857093,93.49330956
1357.785131,64.20048628,54.29092525,106.0908952
1358.739198,58.66107429,47.40586783,105.0229194
1359.693099,62.34067793,47.44806595,102.2638817
1360.646836,66.54845411,52.17549439,90.74255654
1361.600408,66.27345515,59.8932605,75.91316059
1362.553814,68.20024494,55.30131423,77.84768193
1363.507055,67.19249742,50.44813487,70.76633296
1364.460132,63.78117486,59.2770242,60.06908755
1365.413043,73.3325184,53.85253956,52.26732865
1366.36579,85.48762096,54.22033469,49.38389503
1367.318371,89.5760143,61.35620047,51.43277059
1368.270788,97.9979043,58.72809383,48.97559715
1369.22304,108.8504133,62.19274626,46.63449161
1370.175127,120.5673277,61.39547212,43.02941473
1371.12705,146.3861924,65.10085564,42.01044099
1372.078808,180.475034,79.77641935,36.27601908
1373.030401,206.7273337,88.96459732,30.33553019
1373.981829,236.4519693,95.73618146,34.11255622
1374.933093,280.6460851,108.1030077,41.34240542
1375.884192,329.406556,126.6451865,55.39533792
1376.835127,382.3445946,151.0673852,71.18603918
1377.785897,440.1980747,171.5166635,86.48774951
1378.736503,500.211368,189.1306254,104.634573
1379.686945,560.2556581,212.4860341,128.7922628
1380.637222,614.8286397,232.347687,152.3956659
1381.587335,670.7620573,259.7213742,163.4958443
1382.537283,727.7911723,287.5148829,177.4893871
1383.487067,774.3557918,314.0475947,199.5977794
1384.436687,816.2534273,342.4263834,224.5063962
1385.386143,851.6171386,349.3582558,248.5167729
1386.335435,864.6034004,356.8564659,255.9708881
1387.284562,865.1123923,355.3748881,250.9705025
1388.233526,864.5780184,335.9561433,246.5236631
1389.182325,850.3946186,320.0002937,245.6672011
1390.130961,819.3806004,294.5547578,242.9556893
1391.079432,773.4535573,265.6237894,229.7221827
1392.02774,710.7252169,233.7557264,208.2378864
1392.975883,643.0428216,200.4824856,187.0096227
1393.923863,573.3080415,170.7303865,164.5356308
1394.871679,493.7308943,139.6127499,141.7915564
1395.819332,415.386212,106.8694863,122.6275906
1396.76682,345.8042249,77.74524031,96.04042433
1397.714145,275.7416135,56.74551399,72.98857287
1398.661306,207.7281479,32.2793353,58.42342582
1399.608304,152.5641469,11.71735693,37.12161213
1400.555137,109.2331846,-1.667973828,20.71448576
1401.501808,69.36855541,-8.25246424,16.01511959
1402.448315,32.56218893,-12.05678804,11.66227178
1403.394658,4.149194577,-8.779212364,1.971262139
1404.340838,-15.32123769,0.378575728,-8.521034045
1405.286855,-27.12796176,0.35321621,-8.581505734
1406.232708,-30.40399466,12.93343298,1.714951414
1407.178397,-23.85637382,17.5060958,6.38143563
1408.123924,-15.45218815,11.59154336,7.947921314
1409.069287,-4.61007384,13.64155109,5.837768024
1410.014487,22.22607576,8.659145739,0.329068374
1410.959524,58.75417149,3.887297815,8.23551502
1411.904398,99.35492458,-0.717908952,15.4912455
1412.849108,146.2304148,2.818960763,13.32784011
1413.793656,196.9816007,9.937445749,12.01921706
1414.73804,257.6514911,24.11521618,17.75859991
1415.682262,325.7455542,38.93880312,20.9368455
1416.62632,390.666364,38.60726508,16.69385658
1417.570216,452.0900911,42.36474932,18.0079998
1418.513949,522.9307423,46.19536267,17.62113961
1419.457519,605.752866,57.67219329,15.05462512
1420.400926,683.5699521,73.63521203,17.29527223
1421.34417,759.1094654,83.50917162,18.1794557
1422.287251,842.5014249,96.13750029,12.56606535
1423.23017,926.2353385,107.2515198,9.711304652
1424.172926,1002.959557,115.5248303,13.51933026
1425.11552,1072.420102,123.0258094,9.200989099
1426.057951,1138.339573,133.6960056,5.252217499
1427.000219,1195.150121,135.9177835,6.31448475
1427.942325,1236.293384,135.6099459,9.652447879
1428.884268,1270.626094,135.3390251,23.48617157
1429.826049,1300.272246,122.3672144,28.40111752
1430.767667,1316.78656,114.922601,30.02133614
1431.709123,1320.928179,109.1898522,36.73595678
1432.650417,1312.507844,99.4045651,43.87152876
1433.591549,1289.427374,86.81753653,56.96485465
1434.532518,1259.421149,75.02624208,57.13002945
1435.473325,1221.890257,76.99599767,59.25842709
1436.413969,1172.211728,75.51243083,69.57906665
1437.354452,1110.912231,71.60396249,73.52822391
1438.294772,1036.179314,63.99344228,74.57274587
1439.234931,955.303576,48.10596452,70.1936371
1440.174927,871.0215698,38.50886746,63.74381166
1441.114761,787.692303,35.6898164,65.72447439
1442.054434,711.1536978,40.73597247,68.95404248
1442.993944,626.6716007,41.52118822,62.6763798
1443.933292,545.0642863,39.32056674,59.22754762
1444.872479,480.3781696,36.56788533,49.48968576
1445.811504,411.8815584,28.01782416,44.98957246
1446.750367,340.7898232,24.66508055,39.66656225
1447.689068,280.2452047,22.69619279,26.63735733
1448.627607,226.3722193,20.23959552,27.96247402
1449.565985,177.8999729,16.83348078,25.84824099
1450.504201,137.8510649,8.794805774,29.0354751
1451.442256,104.1758155,5.571329318,27.21798345
1452.380149,70.8140555,10.2442595,20.02161433
1453.31788,40.94005482,13.87458806,26.3697432
1454.25545,20.85458278,19.21502196,30.23693637
1455.192859,7.993330162,24.1966475,33.29084029
1456.130106,-2.984294185,22.12385731,33.28189796
1457.067191,-11.92651177,26.71363093,33.99175079
1458.004115,-17.39525989,37.9546466,41.67844705
1458.940878,-19.93045768,38.79327156,47.3994845
1459.87748,-11.44906626,34.70698656,50.62131361
1460.81392,7.059855785,36.38625698,56.15129331
1461.7502,20.66955773,33.09640291,55.11927028
1462.686317,31.29835809,34.09683882,51.61707433
1463.622274,47.89355922,43.04374673,58.67364188
1464.55807,62.03503119,42.74665255,59.0529632
1465.493705,67.26639825,43.35834485,55.17455153
1466.429178,74.19347076,45.63741798,56.64249814
1467.364491,82.86059904,45.14558715,58.74418918
1468.299643,87.35181643,46.30681812,58.86023269
1469.234633,91.14301414,44.3187262,46.9861623
1470.169463,89.08703536,42.73876773,45.38687369
1471.104132,81.76638692,45.84833937,46.90653933
1472.03864,79.42501224,47.81722168,37.80135258
1472.972988,77.5345713,50.44651337,41.74111343
1473.907174,65.73100295,54.79530862,41.85886364
1474.8412,54.72818466,55.3534324,42.44713944
1475.775066,55.86929011,55.56121885,44.42371536
1476.70877,51.4370714,59.15414105,41.90973318
1477.642314,34.9195087,65.19107542,53.40478672
1478.575698,20.98352875,68.2788876,61.34377757
1479.508921,11.21936081,69.33843678,65.85191961
1480.441983,2.585923925,66.1611709,71.50645025
1481.374885,2.000518991,53.96929648,70.49176194
1482.307627,9.633338151,46.60509426,73.00635163
1483.240208,11.3439441,49.42424041,75.19698313
1484.172629,12.69824673,49.5834553,71.11680049
1485.104889,22.38325241,50.14011514,68.01266261
1486.036989,24.6668555,48.9614163,68.47868579
1486.968929,19.58414328,42.17092288,68.88699415
1487.900709,15.37579215,42.7585579,66.86912769
1488.832329,10.64591757,38.64128924,62.17106417
1489.763788,11.56992465,38.4115565,55.97521891
1490.695087,15.88172751,40.68791435,41.89262875
1491.626227,12.83102324,30.16461456,27.66491008
1492.557206,6.890690313,29.42110589,28.14316949
1493.488025,8.726251466,27.69130942,23.52688814
1494.418685,17.03976426,23.21004165,15.3885616
1495.349184,24.13821161,26.03814435,20.85250579
1496.279523,26.71307142,29.27012204,18.82582915
1497.209703,28.89171466,32.74283015,12.75520919
1498.139723,31.00952105,31.61154461,14.67834724
1499.069583,29.1923276,33.16175938,10.66583053
1499.999283,29.20216938,36.12837103,9.894833336
1500.928824,31.96203518,38.03957564,8.827623731
1501.858205,31.66055919,41.83305062,4.403959521
1502.787426,29.48825152,45.5645248,11.12397943
1503.716488,27.50869798,46.89333116,16.31454312
1504.64539,24.08420861,47.02440555,25.53203816
1505.574133,19.71137436,53.78406597,32.86080535
1506.502716,19.44394066,54.84685975,31.65974898
1507.43114,16.43594644,55.35475422,37.90985364
1508.359404,6.178492631,59.72582561,41.72178474
1509.287509,-0.064541223,58.00947733,44.76542887
1510.215454,-5.868602981,54.04537271,47.50813604
1511.14324,-13.02818642,45.37430396,44.55603418
1512.070867,-10.24707345,47.5722276,40.43721544
1512.998335,-6.519488691,47.01725366,41.61383056
1513.925643,-10.71836577,44.18256793,40.80278626
1514.852793,-10.74052363,51.21853151,35.68446997
1515.779783,-1.46811566,47.64533391,34.44496911
1516.706614,7.405156961,51.57659139,30.46280121
1517.633286,9.698192018,53.49998504,32.52913244
1518.559799,11.77655252,57.30204153,31.16842138
1519.486153,16.64693501,65.89557011,25.64336714
1520.412348,18.34604808,65.34350771,22.00028851
1521.338384,21.02497526,77.67662481,10.44613296
1522.264261,26.33693495,86.541267,14.13321009
1523.18998,27.16807482,93.73838586,20.80883183
1524.115539,27.10727101,100.2535942,17.02213308
1525.04094,29.41928699,95.96245219,20.31944476
1525.966182,30.05226028,88.11594781,22.09308975
1526.891265,27.78265314,82.58279981,19.52785894
1527.81619,25.43082337,86.48092619,16.29875508
1528.740956,23.57766788,85.50516126,17.25927601
1529.665563,20.39927391,84.76637182,14.97514805
1530.590012,17.00248618,86.18640385,8.030122281
1531.514302,13.53023627,85.97048391,8.480625032
1532.438434,10.02171046,80.75966288,6.705677854
1533.362407,7.707320743,77.55468518,4.770222713
1534.286222,8.062384221,83.94183283,5.595411911
1535.209879,7.732570228,77.23380688,7.93512394
1536.133377,3.825449358,70.29471667,7.589306717
1537.056717,3.969382501,64.69241732,9.999677352
1537.979898,6.914118231,62.75462937,17.01152338
1538.902921,6.378905112,70.40246172,15.93354995
1539.825786,3.24358639,67.57451668,20.17813333
1540.748493,-2.345929429,70.41078395,17.55425843
1541.671042,-5.101319268,71.52279538,14.09240408
1542.593432,-0.945113522,69.19411666,17.44960108
1543.515665,8.797968496,77.07269103,16.72582099
1544.43774,18.00443047,77.26449597,23.90028394
1545.359656,18.29640284,73.88044272,20.14133812
1546.281415,16.71158257,71.81020859,13.20920949
1547.203015,21.95782289,64.77377235,12.16604668
1548.124458,27.06202134,61.1078774,15.0661897
1549.045743,28.88749621,66.45503186,25.99673319
1549.96687,30.09677835,67.39860471,32.89407581
1550.887839,26.73368695,67.02317852,40.53890703
1551.80865,22.57531221,65.24284834,37.29967443
1552.729304,22.64385629,57.22091017,33.39892059
1553.6498,22.79615913,56.93305488,45.66828697
1554.570138,24.35748137,52.9982732,52.71449057
1555.490319,22.54440251,47.77984456,57.19990783
1556.410342,17.19823558,45.40413229,64.91034597
1557.330208,14.43619332,43.20439451,64.81780738
1558.249916,2.641759636,42.37597211,64.13415765
1559.169466,-11.50969376,42.85299477,63.30962713
1560.08886,-10.53915675,47.42920193,57.85099318
1561.008095,-4.171230425,35.55284495,56.11200185
1561.927174,-2.244015093,24.10200785,51.83681104
1562.846095,2.858062596,19.7174787,44.5150564
1563.764859,19.21922144,19.19818318,37.79489678
1564.683465,36.89843999,31.03031135,30.61226946
1565.601914,49.21180639,37.11162307,34.88060513
1566.520206,63.18427045,43.38101986,38.61614897
1567.438341,75.00973747,46.02546828,29.86255423
1568.356319,84.92403004,44.5217792,27.71990732
1569.27414,97.59650264,44.22141305,31.45177062
1570.191803,108.5206397,46.80563564,34.58813596
1571.10931,116.4272268,51.48151691,39.50192366
1572.026659,117.7010083,50.65614032,37.47846978
1572.943852,114.9444245,54.65441154,36.96915044
1573.860888,117.3687444,50.16237071,37.94767415
1574.777766,113.3021868,44.76534225,34.77223851
1575.694488,98.64476418,48.24361326,45.01440245
1576.611053,88.38404165,44.00807196,48.54639559
1577.527462,76.36368977,41.70419883,45.9339675
1578.443713,60.81313609,47.56757772,58.66239197
1579.359808,53.36261027,52.56974944,56.20143916
1580.275747,44.73711365,46.09395467,48.51514698
1581.191528,35.94164945,45.52094374,50.96460305
1582.107153,36.70728683,46.12594628,50.29183548
1583.022622,32.54724246,42.89467508,49.70772732
1583.937933,21.4218106,48.04799824,47.12426855
1584.853089,20.7733152,42.76397609,51.80317416
1585.768088,24.93661341,45.1653357,56.21811019
1586.68293,21.83580707,49.28822704,62.11465021
1587.597616,22.61175978,45.09305686,77.32707681
1588.512146,28.77387702,42.14072991,72.72597858
1589.426519,29.24197805,30.82129071,61.24713614
1590.340736,27.82534792,27.00018064,67.1662981
1591.254797,27.5622677,30.71131526,73.41036147
1592.168702,26.76874592,36.6517057,74.21326595
1593.08245,25.21191474,36.10275692,80.1436763
1593.996042,20.55560148,35.0457323,84.2063366
1594.909478,16.71201735,38.1751252,81.84912904
1595.822758,16.65839602,30.52528851,76.00279273
1596.735882,14.66469254,25.89243686,67.92672102
1597.64885,11.76062096,28.49471672,73.31678339
1598.561662,11.57695489,36.62099128,79.83616739
1599.474318,10.35386246,41.43416236,77.26313004
1600.386819,11.83236679,47.31500109,75.59898645
1601.299163,19.78070889,60.37765736,62.73144131
1602.211351,24.41218549,67.11801355,51.83474066
1603.123384,21.77650996,73.68717459,51.67287894
1604.035261,20.42939415,76.11623082,43.92923121
1604.946982,21.85349278,80.42036518,40.9100901
1605.858547,23.42047646,84.06453701,45.04509476
1606.769957,29.21188608,81.48801812,47.79384993
1607.681211,33.81606368,81.10354487,55.09838833
1608.592309,32.7108359,80.31385646,63.35923373
1609.503252,36.64742739,81.3229846,70.03293825
1610.414039,42.5553619,74.41500956,67.79038595
1611.324671,39.17932336,75.21924764,71.68676208
1612.235147,35.23019535,86.2256867,91.91846197
1613.145468,39.78335311,87.71160434,102.8594161
1614.055634,45.19112369,88.52911251,115.2826931
1614.965644,45.83543616,86.08906938,130.642171
1615.875499,43.32463547,86.31585526,132.988692
1616.785198,40.59641352,89.09939299,135.6951215
1617.694743,42.41600766,83.70126798,134.1714741
1618.604132,43.81914575,80.86843798,136.7201361
1619.513366,39.24743786,80.27894694,147.9361131
1620.422444,35.0643618,78.44454662,143.2461917
1621.331368,36.31252939,70.11313827,131.2262026
1622.240136,40.78887191,61.02704346,127.3289821
1623.14875,40.33442414,58.88813159,121.7780667
1624.057208,35.23092895,47.08378662,113.0954457
1624.965512,31.91524287,35.81776782,106.8053784
1625.87366,29.39419608,37.34914717,94.6784863
1626.781654,29.22508733,34.81779966,89.69771426
1627.689492,27.5416263,27.32347495,93.42633473
1628.597176,21.80067243,23.14943088,89.16969582
1629.504705,21.96202978,16.87929147,84.15745307
1630.412079,25.04380758,20.78998378,78.26573743
1631.319299,23.68028966,24.45498165,73.09931836
1632.226364,20.37616487,15.92209049,63.25393675
1633.133274,16.22174974,26.91239146,56.92762408
1634.040029,16.10168921,36.1603569,60.81359603
1634.94663,18.14649352,34.09937993,57.64628401
1635.853076,14.57784993,41.56672938,58.42341638
1636.759368,11.95482604,44.48844071,58.00790637
1637.665505,10.42104391,46.9961233,52.24334298
1638.571488,7.27029408,47.84772046,48.19436563
1639.477316,9.984762724,47.8055287,39.06474169
1640.38299,12.75083589,51.03670481,39.55037691
1641.28851,12.15319864,54.64429131,42.069554
1642.193875,12.40186645,67.36231378,36.81028747
1643.099086,11.86488361,73.11236102,41.92772161
1644.004142,11.78006962,72.91119504,47.69037981
1644.909045,6.01808897,77.21271658,46.35065826
1645.813793,-1.84919048,77.77550567,43.51908265
1646.718387,0.462071555,79.79601463,34.78640146
1647.622827,2.350449036,79.44809797,29.60279363
1648.527112,-0.665016914,76.23580578,30.74010296
1649.431244,-0.857574275,73.17183678,31.32502215
1650.335222,4.08060731,71.959077,27.41471219
1651.239045,14.4005104,71.56164141,21.01718601
1652.142715,17.18624492,69.31785185,28.36920406
1653.046231,10.05730155,64.49799381,34.72041973
1653.949593,9.780608373,56.47367291,30.44094621
1654.852801,18.63005835,59.51354697,36.70322053
1655.755855,29.314833,55.79063025,37.80268406
1656.658755,35.23279045,46.30028146,32.9123463
1657.561502,37.92446888,47.92746736,36.6412635
1658.464095,45.40732384,41.57644793,41.4592553
1659.366534,49.29648631,36.75789407,46.55963742
1660.26882,51.13727097,35.26403509,41.31569979
1661.170952,61.88357245,36.03447377,39.22827552
1662.07293,68.01585394,43.25105895,43.32868722
1662.974755,69.92769927,48.51770879,40.1456962
1663.876426,78.25139787,51.40083987,40.62611752
1664.777944,82.28573259,48.06438899,35.82907142
1665.679308,78.8191538,44.14916714,27.2852997
1666.580519,71.69601849,39.24630664,23.05201977
1667.481576,64.95594649,36.76435047,15.67240352
1668.382481,62.32101051,39.49082309,5.911739342
1669.283231,58.17722121,40.25513717,4.055758033
1670.183829,52.62864154,41.37951583,2.58101719
1671.084273,49.24330562,36.60473102,-2.023346728
1671.984564,47.49526002,29.45051666,-0.222259059
1672.884702,43.11064593,29.45766989,3.348252429
1673.784687,32.42349365,26.3257218,18.45357909
1674.684518,26.04197134,21.28510151,23.98542218
1675.584197,27.9307015,18.27379854,19.79523064
1676.483722,25.61870497,16.17744716,26.82302275
1677.383095,14.92068109,20.93635677,23.87140087
1678.282314,1.602265419,25.09866623,26.65653544
1679.181381,-4.117287714,29.91704127,33.15850933
1680.080294,-2.287255256,37.5322215,35.82381947
1680.979055,-4.517174202,47.33815261,36.59188906
1681.877663,-4.406732821,54.25429344,29.14202272
1682.776118,-0.17565111,56.75037053,37.98620929
1683.67442,-3.919249915,67.17087978,43.8830272
1684.57257,-2.887953279,72.14268797,43.15796921
1685.470567,6.168131181,72.27137383,47.26980936
1686.368411,6.68505737,73.65865156,42.21821608
1687.266102,4.55630156,74.35321227,41.81182701
1688.163641,4.935758284,73.91873507,43.58113682
1689.061027,8.147224626,70.68248398,39.01766477
1689.958261,15.37833018,75.69503609,29.50006098
1690.855342,14.94624213,76.9045024,31.10590013
1691.752271,12.84610863,72.92887579,33.68583034
1692.649047,17.58760601,66.90065051,22.68943835
1693.545671,18.09632815,57.0155998,24.62294682
1694.442143,20.19925142,57.9562796,27.91864497
1695.338462,27.85145659,51.38105686,27.56915285
1696.234629,27.40380319,39.71895193,25.14134155
1697.130643,25.86158721,39.94886937,21.21519554
1698.026505,32.49991011,38.62799893,29.96572412
1698.922216,37.16308428,40.43818431,36.61310202
1699.817773,41.2315609,42.73802557,39.42504811
1700.713179,51.21353319,45.61705853,37.38537476
1701.608433,57.44464916,49.42818382,34.57502821
1702.503534,56.16861102,43.73183497,35.39187003
1703.398484,56.4668252,35.80463382,39.07361049
1704.293281,58.286653,32.63056209,49.11654996
1705.187927,57.78914891,33.84398108,50.97001004
1706.08242,60.46211756,32.99482586,50.31818531
1706.976762,64.24635017,35.75978958,49.14238723
1707.870952,62.81470671,38.91205531,46.9334118
1708.76499,58.20790289,40.09181035,46.04459654
1709.658876,50.52458102,42.81159917,40.20999275
1710.55261,46.06647293,43.37126535,33.62842501
1711.446193,41.84250245,49.40789188,27.72968797
1712.339624,27.6081459,52.73743739,23.63557282
1713.232903,22.0313037,51.76369886,11.66245294
1714.12603,24.28111373,46.32006048,0.880282468
1715.019006,15.58759396,41.51475985,5.120322011
1715.911831,11.56266505,42.60162484,4.43453053
1716.804504,10.38542009,37.50216147,-2.692858792
1717.697025,1.022354165,40.22887969,1.17896817
1718.589395,1.135294824,42.32508313,4.778146216
1719.481613,5.087743858,34.0577943,5.447255833
1720.37368,2.077320461,31.58165512,10.27707509
1721.265595,7.015635125,32.03694546,1.43694845
1722.15736,13.90406729,32.61136107,-3.67127151
1723.048973,8.469786892,32.07898622,4.581576759
1723.940434,0.395369675,30.94578271,7.98233783
1724.831745,-0.833381769,33.33451902,17.14287465
1725.722904,2.807932892,44.15432012,27.24523787
1726.613912,5.085409967,56.86182865,35.08180803
1727.504768,6.554861996,64.61124362,42.04970771
1728.395474,10.0657628,69.90971982,42.73974054
1729.286029,7.544515749,71.48809063,47.71104628
1730.176432,-0.64985191,66.24501456,48.15046882
1731.066685,-2.886685756,60.84196446,44.42485998
1731.956786,4.881171431,63.05851259,44.67285121
1732.846737,14.27028,65.1005331,40.43304188
1733.736537,16.62869197,67.29225849,36.93729161
1734.626185,18.51072175,58.97115214,40.18093657
1735.515683,19.89575402,49.39907753,49.38497822
1736.405031,15.31397825,50.0745405,53.16948414
1737.294227,13.44241136,45.11023794,53.77213004
1738.183272,13.77534332,46.66857684,56.11466409
1739.072167,13.63822281,52.69690272,60.76182106
1739.960911,16.20895381,50.31425834,67.09144421
1740.849505,18.14659312,43.21159425,61.82845863
1741.737948,23.20219941,39.23045509,60.02754963
1742.62624,27.25521821,41.73131171,56.81753201
1743.514382,20.92613568,47.35095419,53.2158008
1744.402373,14.48706743,50.91520911,57.72868206
1745.290214,13.17324786,50.83102222,53.25876823
1746.177904,13.14732485,54.35345034,54.30682721
1747.065444,12.06785557,58.02254065,52.33330887
1747.952833,4.357095239,54.61473572,44.37358188
1748.840073,-3.560116731,45.13891212,42.61954886
1749.727161,-5.858710336,39.35961056,39.33163158
1750.6141,-8.784740911,38.63674465,36.46376211
1751.500888,-8.497491287,31.2467095,24.61140845
1752.387526,-1.638969553,28.03955093,10.91952067
1753.274014,7.416914282,28.13469298,8.695815338
1754.160351,17.51364063,19.14246936,11.35676175
1755.046539,25.80387822,11.77513447,14.81123508
1755.932576,34.85613193,0.906068473,24.82752727
1756.818464,45.06931287,-0.901914677,35.35869425
1757.704201,48.84025965,1.286946514,36.73999298
1758.589788,49.95140525,-4.666974054,49.6875392
1759.475225,53.7600055,-1.158464472,57.2987428
1760.360513,57.06446582,-2.32147294,55.03711551
1761.24565,56.5035618,-0.385871214,62.68113185
1762.130638,55.94915351,4.979216114,57.70514728
1763.015476,57.61402889,5.785158029,59.39921963
1763.900164,51.11259381,7.295364059,64.75017693
1764.784702,44.02447431,13.24861861,61.20586304
1765.66909,48.72482322,22.55265474,66.54441817
1766.553329,51.73766033,23.94681016,64.6816597
1767.437418,47.3965758,32.34746995,60.55411476
1768.321358,40.4390538,40.37677265,55.92912484
1769.205148,33.92226157,45.87748605,51.12463571
1770.088788,31.95237477,49.05351332,53.65668974
1770.972279,32.44881859,47.57892688,45.89673556
1771.85562,33.14530709,53.89549671,28.35632494
1772.738812,31.70432705,54.97048071,16.81736362
1773.621854,31.41227272,55.91949671,13.94187541
1774.504747,37.05009509,59.74137232,19.46877659
1775.38749,40.18656883,54.58976429,21.13804167
1776.270084,37.81504957,43.78365096,13.68001101
1777.152529,35.81713945,34.05204665,15.89634096
1778.034825,30.65367538,37.73553366,17.97353671
1778.916971,21.33593396,43.39352138,15.47951804
1779.798968,17.40175521,36.86409437,19.85552905
1780.680816,14.61353086,40.35499526,13.77212307
1781.562515,2.738819709,49.75375339,6.271400111
1782.444065,-7.486562257,50.70690524,10.67270933
1783.325465,-6.704846888,54.1073581,13.40058495
1784.206717,-3.131461552,56.2961239,17.98248341
1785.087819,0.853905276,53.91638178,17.88706246
1785.968773,12.0080816,62.94378921,14.23652192
1786.849577,24.29009229,72.44520875,16.6777975
1787.730233,25.73335891,74.53049494,16.98855907
1788.610739,20.84542717,86.97634821,14.66359146
1789.491097,22.63728609,91.24762259,12.76681621
1790.371306,29.95141863,90.22423933,20.7356892
1791.251367,31.46957534,93.80839802,23.53347801
1792.131278,33.52918517,91.04238956,16.22692019
1793.011041,38.1583074,90.455062,20.79793604
1793.890655,32.63933485,86.51766785,23.8636622
1794.77012,29.42366822,84.4362544,22.02100395
1795.649437,32.9242964,81.32903997,29.51843161
1796.528605,28.32030745,64.50166562,35.32357509
1797.407625,25.13988626,58.00279173,34.40348239
1798.286496,28.60121377,65.67202213,39.12629779
1799.165218,26.47901721,71.74925341,41.10762369
1800.043792,21.23600144,69.83477155,36.24405295
1800.922218,20.32567751,60.19117083,36.34819489
1801.800495,17.54547013,59.59418162,34.56707633
1802.678624,12.54236022,53.63456453,30.75958758
1803.556604,13.95045019,40.44976561,31.99497242
1804.434436,19.01350381,42.15225997,29.88291959
1805.31212,23.32581578,35.35207265,19.32076889
1806.189656,25.0923642,21.67632233,10.04045897
1807.067043,23.55547522,24.37990461,10.74591419
1807.944283,21.98842895,30.13527223,18.81071179
1808.821374,18.88026207,29.77844966,25.36753297
1809.698317,16.88757293,29.24991445,25.45804753
1810.575112,20.54389664,24.3203718,26.16505774
1811.451758,19.59345255,21.62022038,30.52106898
1812.328257,9.213479325,21.99417413,30.83766775
1813.204608,3.896978941,12.62399194,32.19324804
1814.080811,6.211390808,8.562074063,35.09349613
1814.956866,9.206791447,10.45910155,28.85160395
1815.832773,15.84058893,13.48353139,26.22538668
1816.708532,17.55727943,16.46717085,32.48375784
1817.584143,11.30210395,13.39501752,33.45738088
1818.459607,12.32155462,18.65473287,29.58420184
1819.334923,16.88311416,22.93684055,27.91870437
1820.210091,15.69582473,19.77889043,23.71150721
1821.085111,17.74470114,17.63974983,18.96543558
1821.959984,21.49062222,11.88212753,19.48650421
1822.834709,18.72193841,3.754476018,11.49631915
1823.709286,17.93418962,-3.035935189,-0.602696832
1824.583716,17.88444545,-1.055909695,-1.574881505
1825.457998,15.8064925,0.483901482,0.175202949
1826.332133,20.11986689,-4.077678732,-0.505815397
1827.20612,21.63376702,-1.846057286,5.692388863
1828.07996,19.20696423,4.100817282,16.44710757
1828.953653,19.8334975,7.282990286,23.47651013
1829.827198,18.36167779,5.160799785,25.72825925
1830.700596,20.19002252,4.943192112,24.4810204
1831.573846,23.77423294,12.30723413,23.47330064
1832.446949,21.46072603,17.46443181,25.97361875
1833.319905,18.70060798,16.23289474,30.14573509
1834.192714,20.88766309,15.5477836,27.05193557
1835.065375,27.15385239,17.38836247,25.78188408
1835.93789,29.20899458,21.67994946,23.49254963
1836.810257,25.06747927,33.06954898,17.0069875
1837.682477,22.21577821,43.11657071,18.81741176
1838.55455,28.02016299,48.84127271,13.18963304
1839.426476,41.1064724,52.52630705,6.287742707
1840.298255,44.60428311,53.69042721,7.039639103
1841.169887,38.86877291,53.39158062,6.078402912
1842.041372,41.98631158,47.7503348,7.397815239
1842.91271,49.62491934,46.76103526,5.945023611
1843.783901,53.75683633,46.71433657,4.762212315
1844.654946,57.5241283,46.85814764,17.6704827
1845.525844,56.66248668,50.90840031,34.25370266
1846.396594,55.56406406,43.53010373,41.98466033
1847.267199,58.01545559,36.94587254,45.96912362
1848.137656,53.04697566,33.53189289,48.67963869
1849.007967,49.07209118,30.23713404,54.79257968
1849.878131,52.62073414,31.043998,57.52853807
1850.748148,53.09972839,26.57906297,57.69229454
1851.618019,54.0943843,22.98560082,65.5587182
1852.487743,51.31331415,16.66824292,71.99087559
1853.357321,39.76929803,7.778243708,74.79319388
1854.226753,30.86557055,3.871837125,75.65218005
1855.096037,22.71878204,3.024161191,78.67176262
1855.965176,14.88081004,7.086309183,77.81279381
1856.834168,16.75763555,13.96101783,63.61678752
1857.703014,23.18811156,24.36987114,51.71155005
1858.571713,23.73395827,30.84681848,45.83924152
1859.440266,22.34318717,27.65588815,36.24960671
1860.308673,22.27382008,23.04731222,33.02309488
1861.176933,15.77725757,22.70246098,34.53788872
1862.045047,14.55189657,23.35567195,29.81848376
1862.913016,28.1539822,24.67123693,27.73065624
1863.780838,32.97912159,29.34906666,27.3244718
1864.648513,24.31204784,24.57658732,28.98601234
1865.516043,19.14608288,23.46834744,32.2596512
1866.383427,18.11799502,28.95451781,26.01960569
1867.250665,17.02876344,24.16367287,19.80552223
1868.117756,12.26569567,22.49765739,17.32963141
1868.984702,11.47234447,22.08809302,14.89880005
1869.851502,22.91000476,20.93236483,15.75089825
1870.718156,29.61276923,16.19123931,12.45909269
1871.584664,27.5055259,9.049008587,11.91664378
1872.451026,27.40947868,7.557722026,16.93270314
1873.317243,23.99945465,9.248243033,15.35641198
1874.183314,19.32062016,18.88061274,11.19883901
1875.049239,17.61861985,20.55362666,10.81946362
1875.915018,13.04872999,17.55935528,10.9916454
1876.780651,14.46011804,22.51882071,3.059437777
1877.646139,24.62649244,25.24808117,-5.047283445
1878.511482,24.01324903,31.00968908,-6.463033449
1879.376679,15.54156638,30.89296166,-6.860366944
1880.24173,15.89667829,25.3388206,-5.710528844
1881.106635,17.18947003,26.36129894,-4.933458014
1881.971396,16.31027013,27.21040929,-3.973407035
1882.83601,19.40925424,30.22941906,-2.894564929
1883.70048,19.3805473,31.17230816,-2.23343294
1884.564804,14.90549786,28.12851106,-1.333849368
1885.428982,11.4126248,25.33541324,-0.91723045
1886.293016,7.744036592,27.62443438,-0.357646521
1887.156904,3.880832911,23.43011505,-0.10732367
1888.020646,1.855358376,7.727218953,0.145401948
1888.884244,3.707444863,4.740556454,0.285127053
1889.747696,11.18768373,5.31483764,0.339560259
1890.611003,16.07117374,2.781880615,0.403197231
1891.474165,12.84726939,6.563800616,0.365735414
1892.337182,11.5690719,10.06785288,0.378615429
1893.200054,13.09677298,8.916912847,0.320536363
1894.06278,10.00248195,11.84529109,0.305462745
1894.925362,5.602788234,17.64190284,0.261363324
1895.787799,2.670204736,17.33062459,0.238555538
1896.650091,2.398340526,19.13048439,0.218893348
1897.512238,6.666410732,26.84404882,0.203315968
1898.374239,8.737921515,33.20100737,0.207835786
1899.236097,7.073103317,35.61594072,0.207385639
1900.097809,7.514364482,43.21864182,0.232666202
1900.959376,5.858526238,45.54799078,0.248081669
1901.820799,5.569000609,46.71728024,0.287740059
1902.682077,16.25612268,52.30741576,0.312970595
1903.54321,25.91918771,48.42815356,0.352300764
1904.404199,26.22995788,49.27185331,0.373210796
1905.265043,23.1365541,48.04956332,0.381865584
1906.125742,18.03882676,44.63752883,0.371610552
1906.986297,15.83470385,43.60743258,0.29922201
1907.846707,18.73088565,36.51697377,0.210706683
1908.706973,23.88397883,34.24362295,-0.008750905
1909.567094,29.22830256,35.94182637,-0.248571221
1910.427071,29.44409327,37.26440846,-0.677932986
1911.286903,27.68645165,31.15440425,-1.160310081
1912.146591,29.02824622,21.46775606,-1.82186722
1913.006135,29.02153057,16.3043516,-2.616078664
1913.865534,23.43486036,15.11249669,-3.434902518
1914.724789,15.06394971,20.32246475,-4.494448028
1915.5839,13.93260418,22.95020956,-5.224835647
1916.442866,17.82488704,20.2390342,-6.231797722
1917.301688,17.1578268,17.18598953,-6.371284368
1918.160366,13.14384164,18.89073538,-6.5782536
1919.0189,6.731413793,19.50380322,-2.146215583
1919.87729,6.048661461,17.1695348,9.157799233
1920.735536,13.78667372,18.91922615,11.52031858
1921.593638,20.17282765,12.87509069,9.434012541
1922.451595,26.52294195,9.319231275,14.62336016
1923.309409,30.68083847,9.573725673,16.76303629
1924.167079,30.89688235,3.184048904,14.17359132
1925.024604,32.79595575,5.534445097,14.76315654
1925.881986,38.78591941,6.675070807,18.28518172
1926.739224,48.92888936,6.453635637,23.48919285
1927.596318,54.04291571,9.121740766,33.09356589
1928.453269,55.20111383,8.394082638,40.95275416
1929.310075,59.31851417,6.645195535,40.92265696
1930.166738,61.74987162,1.204177064,39.15870473
1931.023257,63.74574573,-1.580512606,41.28510307
1931.879633,63.77851504,-5.459805576,42.31607271
1932.735865,61.07632917,-4.185668987,39.40083803
1933.591953,58.79307746,2.362994876,36.24012416
1934.447897,51.65145299,1.201945888,35.24606206
1935.303698,46.0843924,0.725124696,39.55719307
1936.159356,46.58993094,1.190074512,43.72518926
1937.01487,40.29345627,5.283843928,43.92199987
1937.87024,28.16988224,16.40911379,47.9131039
1938.725468,17.95882294,20.24752781,58.57566857
1939.580551,11.52633276,21.76666374,67.16377284
1940.435492,13.88708407,30.06096116,67.23386112
1941.290289,14.22236924,32.57292062,60.00242712
1942.144942,3.335343401,34.01588277,58.87166254
1942.999453,-4.120732266,35.51448069,64.66872728
1943.85382,-4.059104999,33.13256124,56.16383363
1944.708044,-3.449302207,36.95102044,46.03288252
1945.562124,-1.721656367,45.86027082,45.3461204
1946.416062,1.302317745,50.39020082,45.61083751
1947.269856,1.978313445,49.13421091,49.03917262
1948.123508,0.283054581,49.73573132,54.02958535
1948.977016,2.500006924,47.87594946,56.07740578
1949.830381,6.426235032,47.36481869,48.65184104
1950.683603,9.231803795,46.26464721,46.45539209
1951.536683,11.71079021,40.68686461,50.34281863
1952.389619,7.582748288,40.99385957,42.21259003
1953.242412,4.495342761,38.23560991,35.00231191
1954.095063,8.585959324,36.59030195,32.63569162
1954.947571,10.2137152,35.0199137,33.44270512
1955.799935,14.52645532,32.05771036,40.01336877
1956.652157,24.28875465,37.37589018,38.7752513
1957.504237,26.83271794,37.83785311,36.57396406
1958.356173,23.54845281,36.52245486,45.49584248
1959.207967,23.55458584,34.21983168,51.67577854
1960.059618,22.95353238,32.75239933,47.44067097
1960.911127,21.8225499,37.18917448,47.85730712
1961.762493,24.87795963,32.90326088,56.03927939
1962.613716,24.61499857,28.64786758,59.95704499
1963.464797,23.59559551,27.24964181,53.41204436
1964.315735,26.01902976,27.94033096,40.90040101
1965.166531,23.52230666,36.97359555,40.85717417
1966.017184,23.0371175,41.99388102,45.31999365
1966.867695,26.94444834,40.04950071,48.60065587
1967.718064,27.08984574,36.10320256,54.37804888
1968.56829,27.91361046,40.54953035,53.83175157
1969.418374,26.71863952,45.58759206,52.42024908
1970.268315,20.97694075,37.45659234,48.15408808
1971.118114,19.27750601,31.28121075,45.72047573
1971.967771,20.41301781,32.87391827,36.58761308
1972.817286,22.61477738,37.84257139,23.51372151
1973.666659,28.68633805,46.16473963,25.4151714
1974.515889,33.22340024,53.85243071,26.96385849
1975.364977,33.47070295,52.49856852,27.30012843
1976.213924,32.34643289,50.52392539,30.42166712
1977.062728,28.4045679,50.03554339,28.60176719
1977.91139,21.65156534,41.40340691,26.48744694
1978.75991,19.53251919,45.57058771,29.10478534
1979.608288,23.02589122,52.35291562,25.7449875
1980.456524,22.32591339,46.54859401,24.14900777
1981.304619,21.07699886,47.60475986,33.98864595
1982.152571,21.36062031,46.71710549,38.89390934
1983.000382,15.14880157,44.00698378,36.86187481
1983.84805,16.31373536,48.46541076,32.30276829
1984.695577,23.90382539,55.18232839,35.71077524
1985.542962,19.76606396,58.43157967,45.88526843
1986.390206,15.70917396,54.20393973,45.74484436
1987.237308,17.55460486,46.39669929,45.20544005
1988.084268,18.27361491,37.29725858,45.54877869
1988.931086,20.85190576,38.2697849,41.88666443
1989.777763,23.3524163,40.8894052,51.32774137
1990.624298,27.55065959,36.73960645,62.67435548
1991.470692,34.20285038,46.12168628,56.97954459
1992.316944,35.12389143,58.92359694,53.19793681
1993.163055,31.32084167,61.96203919,63.27418276
1994.009024,25.33929733,68.05552122,68.01651424
1994.854852,18.85668143,71.1748281,66.99102166
1995.700538,18.47554375,67.50985435,67.42117303
1996.546083,21.80704335,65.13015074,64.33506755
1997.391487,24.24410443,65.268262,63.65152335
1998.23675,27.09729101,72.74139052,59.23873188
1999.081871,27.81141694,74.67770326,57.90595374
1999.926851,25.98224677,64.05313518,62.39361833
2000.771689,24.5484343,58.88520974,62.4976951
2001.616387,19.82531101,60.47018072,66.8069886
2002.460943,16.57972099,59.02087429,65.3919041
2003.305358,22.641652,56.1603174,63.33337063
2004.149632,25.70809781,52.34633699,66.14068229
2004.993765,22.27748173,47.38997843,60.32911231
2005.837757,20.22114242,39.38602957,58.43999087
2006.681608,17.14079835,28.59419511,58.7880652
2007.525318,16.80036469,25.44491891,57.04969063
2008.368888,18.78562052,23.92704035,55.65092671
2009.212316,18.42448116,25.10543388,49.81381397
2010.055603,18.89420249,29.08281378,54.91705388
2010.898749,15.95126826,25.41345644,51.47679281
2011.741755,6.594245296,22.09161259,32.99855907
2012.58462,-2.615357221,17.21771145,35.12094544
2013.427344,-2.944065543,11.13993087,35.53385244
2014.269927,4.663142755,10.38698632,26.0866551
2015.11237,9.023349644,9.339806296,26.66950293
2015.954672,11.22408486,7.900012174,23.65446785
2016.796833,12.91131845,8.766057274,23.63887798
2017.638853,8.851365255,10.02121232,35.19203767
2018.480733,6.72758309,10.54708308,38.16006833
2019.322473,5.903589056,8.366549039,40.50239016
2020.164072,2.834770772,8.091248426,54.79357905
2021.00553,7.235628104,12.74019554,62.76410913
2021.846848,10.58086185,13.53525329,67.98269712
2022.688026,10.11292988,8.886599528,68.35690687
2023.529063,14.95711345,7.177296378,69.46776825
2024.36996,15.60524121,10.02894725,76.53337189
2025.210716,16.0436598,13.16064755,70.09444956
2026.051332,21.37592668,16.64881073,74.4918868
2026.891808,20.91253778,19.34479076,85.75086483
2027.732144,17.89787887,28.12196114,82.64759447
2028.572339,16.54473184,31.76441057,80.21154097
2029.412394,14.32730759,26.31790593,77.22183266
2030.252309,13.3266543,30.42177011,77.68496787
2031.092084,16.94858387,29.66894869,75.09700524
2031.931719,19.77325982,30.16321693,67.41238242
2032.771213,18.42633455,35.44483058,66.31065943
2033.610568,23.00842575,39.4929048,59.67570169
2034.449782,28.33798858,51.61070185,53.93696319
2035.288857,25.68024399,55.78906773,47.43229081
2036.127791,24.63130333,56.98679554,38.15974432
2036.966586,26.03664502,61.24719898,41.99113706
2037.805241,30.40505688,68.9510811,42.62895031
2038.643756,39.68551117,81.589361,33.01174489
2039.482131,43.82349222,84.9581032,27.39366275
2040.320366,48.66664491,80.93434164,27.42944493
2041.158461,57.13383159,76.13710224,18.51488034
2041.996417,57.57292965,73.63901992,5.915847667
2042.834233,60.89481714,73.02046083,-0.037929145
2043.671909,68.2977327,78.5448508,-3.871860633
2044.509446,66.46659114,81.05309254,-0.366960814
2045.346843,65.12160288,75.67358001,1.617303597
2046.1841,64.96743558,75.61890046,3.845001262
2047.021218,55.95742076,74.01321708,3.095993239
2047.858196,46.44459809,70.4063432,-5.258065693
2048.695035,43.53324512,57.78916638,-3.559126178
2049.531734,41.48398751,45.94537515,-0.316424688
2050.368294,39.11960767,45.20462799,9.854160194
2051.204714,35.56600786,38.9308165,21.66600641
2052.040995,24.50035509,40.57070942,22.27535165
2052.877137,15.49924273,39.20587883,30.05644749
2053.713139,13.58894092,38.47435744,35.78287675
2054.549002,9.222835026,47.73730794,39.78500229
2055.384725,10.17084545,39.30570379,46.09845177
2056.22031,14.34321132,33.6030465,52.59790655
2057.055755,12.8416299,37.76656039,59.90599394
2057.891061,16.4990212,37.69290935,59.36160895
2058.726228,19.47778513,33.94643713,59.29363479
2059.561255,16.36942568,27.88143782,60.98583925
2060.396144,16.66691075,28.66885765,63.77464474
2061.230893,16.4986431,32.66606387,62.44004178
2062.065504,18.91232248,35.96641238,56.48807465
2062.899975,22.25911324,36.02075555,51.31470381
2063.734308,13.21976775,32.89308389,46.67725946
2064.568501,4.46243613,27.22289728,45.04711307
2065.402556,6.885860753,23.58074122,37.85926304
2066.236471,7.667476552,25.9810188,28.08246435
2067.070248,5.134689594,27.52582097,22.93268571
2067.903886,8.759052044,26.34809479,25.53480191
2068.737385,16.71394718,23.09260166,29.54829526
2069.570746,23.40692626,26.47342921,27.08293701
2070.403967,26.93007809,32.49746979,26.7019581
2071.23705,24.67164973,33.61291539,20.0662831
2072.069994,24.03949964,37.08070709,14.62276208
2072.9028,32.59987782,41.03099324,21.55396283
2073.735467,38.40855815,44.54925996,23.25037996
2074.567995,40.47559594,45.91048273,26.81871812
2075.400384,48.33754071,41.32298137,28.45670894
2076.232636,47.60819645,40.88269261,25.36742997
2077.064748,39.74211938,45.26149724,30.51910174
2077.896722,44.48579824,44.80423868,33.2793266
2078.728558,49.50866621,47.47227901,37.00112109
2079.560255,46.40878578,47.99605342,42.38767614
2080.391814,47.31747336,42.8113131,42.47636206
2081.223235,49.45144222,39.16154352,38.57892019
2082.054517,45.82274143,29.60987525,34.22301836
2082.885661,37.03705175,21.67097116,33.13162414
2083.716666,28.26571825,13.42075004,31.34306129
2084.547533,27.56095369,10.26794686,28.09072854
2085.378262,31.48731929,14.63471408,31.05705698
2086.208853,28.1736509,12.97365081,32.57170938
2087.039306,22.92424406,13.29081767,27.46495038
2087.86962,25.95603485,8.759151418,24.93918615
2088.699797,28.41174973,13.08316639,15.85301651
2089.529835,27.25417192,27.40035687,8.789200698
2090.359736,25.03246263,34.54780323,4.149103702
2091.189498,17.50709674,40.19080123,0.376320655
2092.019122,14.36601508,42.77984588,0.634099403
2092.848608,15.97828309,52.6857744,-5.928787183
2093.677957,7.607233009,59.11565832,-2.457938275
2094.507167,-1.613776642,61.42899755,-2.692062123
2095.33624,-2.482757443,66.73291578,-10.77818872
2096.165175,-3.702799268,70.01347874,-1.859843403
2096.993972,0.332497671,74.54916663,10.94282021
2097.822631,13.32293509,74.85817489,13.41480676
2098.651152,18.41228373,78.42067666,14.4645984
2099.479536,15.03665318,78.84973474,17.23368167
2100.307782,18.27876275,75.49670873,15.64281097
2101.13589,23.12371631,75.51763788,17.22590351
2101.963861,25.40868968,72.19873579,23.60058947
2102.791694,32.95719251,67.47431577,35.08065959
2103.619389,38.20002221,63.33894175,48.25170351
2104.446947,38.49823,61.37373607,55.07794889
2105.274367,38.19436042,58.37802593,61.22939799
2106.10165,36.520973,52.59291857,64.61482434
2106.928796,41.67298667,48.06954362,71.75046312
2107.755804,48.4019169,49.03685657,80.79493674
2108.582674,50.66309757,54.24300884,77.06887496
2109.409407,53.55156441,51.49452153,76.87970762
2110.236003,48.71026658,43.35403154,77.0908119
2111.062462,39.70949401,34.737207,72.20826489
2111.888783,36.41040361,23.77334632,69.05628413
2112.714967,33.12961463,22.27061755,69.39033272
2113.541013,32.15631541,17.28293691,78.73764865
2114.366923,36.95301083,9.788208188,71.93285782
2115.192695,40.16938534,14.46688569,63.14704138
2116.01833,41.9267917,15.68421442,67.46381115
2116.843828,45.88922302,16.77249576,61.14628425
2117.669189,44.1646306,20.00318178,45.82531224
2118.494413,34.6807388,19.71268041,34.50150509
2119.3195,31.48952837,20.17841063,32.80946244
2120.144449,37.52310758,21.58272466,31.24469604
2120.969262,40.16959983,23.20561806,35.58250508
2121.793938,38.78665269,24.62588553,39.53897149
2122.618477,34.50754715,24.44151723,39.96156412
2123.442879,24.40797379,25.932284,39.23967598
2124.267144,21.77061499,29.92318568,28.55663644
2125.091273,26.2951767,32.72966119,25.96170464
2125.915264,26.52537677,30.87567855,27.88174063
2126.739119,30.46282626,28.81972629,22.736003
2127.562837,36.21463097,31.98037931,14.34217061
2128.386418,37.8019763,25.99566076,8.376635927
2129.209863,38.07070347,14.43195773,10.86847201
2130.033171,34.02641764,5.942773994,14.27453694
2130.856342,33.50066247,3.31206637,11.85576569
2131.679377,40.93865091,10.0744392,14.22929782
2132.502275,45.50436114,15.44796234,22.49999293
2133.325036,48.28282036,20.37913545,18.97923572
2134.147661,49.27473564,25.54082733,17.72777383
2134.97015,43.10514321,31.35309982,24.92323671
2135.792502,38.93906367,34.75737454,26.3166741
2136.614718,35.60240707,39.12304908,24.60039279
2137.436797,28.34587494,50.46755932,21.50967923
2138.25874,31.22842479,49.14894528,28.7976794
2139.080546,37.85359415,48.27220479,40.43097324
2139.902217,32.49174089,58.26202684,45.22693517
2140.723751,24.78054183,57.08431311,43.68705129
2141.545148,18.65418967,54.45111342,37.35848409
2142.36641,10.87323633,55.65182516,39.41852114
2143.187535,11.0964208,59.45110168,39.06691542
2144.008524,18.70714475,68.57622951,36.90797634
2144.829377,19.84247926,73.69440721,42.60365554
2145.650094,19.02637328,74.5542126,41.80583347
2146.470674,25.39141267,72.55108596,38.75408396
2147.291119,27.7797881,71.54869551,38.94458086
2148.111427,26.95453247,72.44744495,42.62098752
2148.9316,32.22676527,70.9749487,46.56180343
2149.751637,31.85367898,75.36314764,37.90322473
2150.571537,27.25225419,85.18592894,30.61626248
2151.391302,30.56806176,87.64691374,30.71771596
2152.210931,33.53136566,88.1797513,26.06193885
2153.030424,33.231191,89.03417599,21.92952157
2153.849781,30.58740405,85.67821661,22.96495784
2154.669002,26.00074385,83.20911488,31.38620122
2155.488088,27.3683012,80.71799724,37.20017454
2156.307038,27.00034141,77.88986779,41.22387369
2157.125852,26.50024427,67.54144725,57.32096759
2157.94453,31.66048177,42.07584242,66.15010198
2158.763073,25.31062894,29.74751117,65.93217572
2159.58148,16.57979087,33.36748732,73.36422358
2160.399752,18.08877716,24.11585139,78.33370771
2161.217888,13.22440032,17.29867682,81.71526597
2162.035888,6.716068411,19.36988586,87.17100918
2162.853753,10.02574318,20.2735948,90.09715194
2163.671482,10.57761913,20.40264983,97.99170359
2164.489076,3.829213414,18.07525701,104.290869
2165.306534,2.218718445,8.324598696,102.8257896
2166.123858,5.631678845,1.372513475,104.5025665
2166.941045,6.83246278,18.29157593,103.110231
2167.758098,10.27897228,28.21146331,99.09652054
2168.575015,11.95851803,28.14037006,92.74695762
2169.391796,6.030132709,38.8544529,80.21046432
2170.208443,3.534073642,43.51204485,77.85615722
2171.024954,7.308163218,50.19723957,67.31630513
2171.84133,7.842201198,54.93888476,51.62175684
2172.657571,4.51383961,52.17839884,49.22374742
2173.473676,2.478904673,50.429847,42.84982425
2174.289647,3.789153874,48.93939778,42.70179585
2175.105482,6.199364595,47.09143127,38.87737976
2175.921183,5.468252608,39.35450168,30.31836086
2176.736748,2.698034274,30.40284163,29.40218124
2177.552178,0.151230318,29.65923557,17.08231962
2178.367474,-0.075906795,44.78720966,12.87506527
2179.182634,5.91329771,54.86104718,19.08159551
2179.997659,12.95621496,53.65530392,11.496606
2180.81255,14.78524568,53.77916303,4.140288076
2181.627306,13.80015982,52.60885254,1.106376172
2182.441926,14.26409882,52.95368194,-6.014993444
2183.256412,17.35389791,46.50414054,-7.066300224
2184.070764,19.65422998,47.4077311,-2.653633384
2184.88498,22.29241211,50.60280581,-3.538680001
2185.699062,27.39702659,49.76206481,-0.363272353
2186.513009,29.37081909,55.17391625,8.450404478
2187.326821,26.30098477,49.6064815,13.66452371
2188.140499,22.46875039,53.46484944,16.43009322
2188.954042,21.26669785,61.74568625,21.73833102
2189.76745,22.40416063,58.39430885,23.61887157
2190.580724,21.28602559,63.92798532,20.32650909
2191.393864,17.7827259,60.99588956,31.56993865
2192.206869,17.83882967,55.0466377,41.14186924
2193.019739,19.77745003,53.95811717,37.75024288
2193.832475,21.46990057,43.40808635,40.57898707
2194.645077,25.07332178,36.8127297,47.28054638
2195.457544,24.29038543,36.98236191,57.40442392
2196.269877,22.72284334,42.29385344,71.34238141
2197.082075,27.80488097,49.84431619,80.04758294
2197.894139,30.31041298,53.7932959,78.68176408
2198.706069,31.3758127,46.47505751,75.20409099
2199.517865,33.77365867,38.02149479,73.82636322
2200.329526,28.8712349,37.90432184,73.16083936
2201.141053,20.8851964,37.53118054,67.39994804
2201.952446,16.3511952,38.69775501,59.15651921
2202.763705,14.50732022,40.65194652,59.67446639
2203.57483,15.13558032,41.94494073,59.59375796
2204.385821,18.4823721,36.21187003,53.58555779
2205.196677,24.01382239,29.86643946,52.27827389
2206.0074,25.16742849,26.58212204,48.2197737
2206.817988,21.41265839,32.58808747,34.51145614
2207.628443,21.72104485,39.89496137,28.14127043
2208.438764,25.07624246,34.69755982,25.56898635
2209.24895,25.47284333,34.78494211,21.74087272
2210.059003,24.28886697,33.31359256,18.32145637
2210.868922,25.07021581,25.36187929,14.64762238
2211.678707,28.59465217,20.3799585,14.67618629
2212.488359,33.35945085,20.68650054,12.70201603
2213.297876,36.7560811,23.54383015,11.98615735
2214.10726,33.81133871,30.28623615,16.56171705
2214.91651,26.32730591,39.97412623,23.85855163
2215.725627,24.0939542,38.11451137,29.0443066
2216.534609,22.33392469,31.6686319,26.48960595
2217.343459,15.33575327,33.24170985,21.85181987
2218.152174,12.35667652,35.15395995,21.47622252
2218.960756,9.485938157,36.07751707,24.45838306
2219.769204,0.055520491,44.29836933,32.31164018
2220.577519,-7.084002107,51.74619365,36.32625842
2221.3857,-6.616503229,53.30402901,34.25142886
2222.193748,-0.219015698,57.72082308,35.08859239
2223.001663,4.999505946,53.47654642,37.70270606
2223.809444,4.368178365,49.24267987,35.55265715
2224.617091,3.760762687,53.37595603,34.33796504
2225.424606,4.153079115,48.03653327,36.47347783
2226.231986,3.22234447,51.91571828,41.27913751
2227.039234,4.08074836,47.11410887,49.49170402
2227.846348,7.84284977,32.09882231,41.62933976
2228.653329,12.49532588,31.63386762,41.77849349
2229.460177,12.8025342,21.59436048,45.02863297
2230.266892,9.595426126,21.23049427,40.13599619
2231.073473,11.30321522,27.62079353,56.29691274
2231.879922,15.21135868,29.81768741,57.68215067
2232.686237,15.15024903,39.95435595,51.32943809
2233.492419,12.34436794,38.01316268,58.57905188
2234.298468,12.40498712,33.34761785,60.23795191
2235.104384,17.7464596,30.45114652,61.08484401
2235.910167,19.07501401,27.81281875,61.92671816
2236.715818,17.45002868,37.94450248,64.49540967
2237.521335,19.72505813,46.67337164,69.60782726
2238.326719,18.40542661,47.72639134,78.00287356
2239.13197,13.24700151,52.75724898,83.83216954
2239.937089,9.985621957,54.80759604,78.97387456
2240.742074,8.659468431,50.08503888,71.8070297
2241.546927,7.081191704,50.80168257,69.47691511
2242.351647,3.842152756,50.35506684,68.45726747
2243.156234,6.684101911,48.78659012,64.25044098
2243.960689,14.28950964,46.09150746,64.71070716
2244.765011,13.83830376,39.2020008,63.31421578
2245.5692,9.034356695,35.04424621,53.73280401
2246.373257,6.153237394,21.81685531,39.33674326
2247.177181,4.951575844,13.7463193,25.17193818
2247.980972,6.980279696,17.0271437,29.4528275
2248.784631,5.846615464,20.51965684,27.2300714
2249.588157,7.286704844,30.80275619,18.70914658
2250.391551,17.4730201,32.09591147,24.67439307
2251.194812,21.50656197,34.9080069,18.29419728
2251.997941,22.49868513,35.94662985,15.73733514
2252.800937,23.19512144,37.09321398,13.58495575
2253.603801,23.5958709,38.34775929,11.8370591
2254.406533,23.70093351,39.7102658,10.4936452
2255.209132,23.51030928,41.18073349,9.554714042
2256.011599,23.02399819,42.75916236,9.02026563
2256.813934,22.24200025,44.44555243,8.890299963
2257.616136,21.16431547,46.23990368,9.164817042
2258.418206,19.79094383,48.14221612,9.843816867
2259.220144,18.12188535,50.15248975,10.92729944
2260.02195,16.15714002,52.27072456,12.41526475
2260.823624,13.89670784,54.49692056,14.30771281
