Wavelength,HS_V2S1_AAB_C4_S2_I2
351.7692476,23.7653945
352.902517,29.35172884
354.0355789,34.25322436
355.1684331,38.46988105
356.3010798,42.00169891
357.4335191,44.84867795
358.5657509,47.01081816
359.6977753,48.48811954
360.8295924,49.2805821
361.9612023,49.38820583
363.0926049,48.81099073
364.2238004,47.54893681
365.3547887,45.60204406
366.48557,44.78300221
367.6161443,43.88939236
368.7465116,38.74521083
369.876672,30.03244758
371.0066255,22.28642262
372.1363723,16.39065617
373.2659122,10.86242718
374.3952455,7.112177599
375.5243721,6.53460839
376.6532921,6.385272169
377.7820055,3.535763968
378.9105124,-1.415062214
380.0388129,-5.9838253
381.166907,-7.473680297
382.2947947,-2.607215298
383.4224761,8.829249685
384.5499513,20.73223345
385.6772202,27.17979534
386.8042831,29.66225227
387.9311398,32.27135322
389.0577904,33.9008948
390.1842351,31.0991081
391.3104739,25.31256393
392.4365067,21.43508599
393.5623337,20.63372138
394.6879549,19.7746965
395.8133703,17.21800907
396.9385801,14.7900598
398.0635842,13.74346331
399.1883827,11.98871406
400.3129757,8.082956859
401.4373632,5.710502829
402.5615452,8.712272235
403.6855219,13.6028283
404.8092932,13.49058999
405.9328592,7.483277955
407.05622,1.317974185
408.1793756,0.388983919
409.3023261,4.736288023
410.4250715,10.00546995
411.5476118,12.35991523
412.6699472,12.09685305
413.7920776,11.7177123
414.9140032,11.44361065
416.0357239,9.371547956
417.1572398,5.586902303
418.278551,2.473084278
419.3996575,1.416828056
420.5205593,1.936919509
421.6412566,2.456772733
422.7617494,1.101265135
423.8820376,-1.673787784
425.0021215,-2.702750674
426.1220009,-0.3526933
427.241676,4.138761336
428.3611469,8.765313722
429.4804135,10.56975198
430.5994759,7.36529881
431.7183342,1.731550926
432.8369884,-1.432930774
433.9554385,-0.692538652
435.0736847,2.020726406
436.191727,5.189954026
437.3095654,8.892860065
438.4271999,12.70355465
439.5446307,14.36214855
440.6618577,12.31712985
441.778881,8.240019861
442.8957007,5.309273365
444.0123169,5.306557779
445.1287295,7.258579183
446.2449386,7.922409552
447.3609443,5.387057275
448.4767466,1.808825028
449.5923455,0.432391209
450.7077412,1.997802431
451.8229337,5.393494747
452.9379229,9.504768486
454.0527091,13.76567192
455.1672921,17.83676272
456.2816721,21.89427336
457.3958491,27.3453073
458.5098232,34.92324239
459.6235944,42.59600878
460.7371628,48.18841396
461.8505284,51.97490792
462.9636912,54.1588765
464.0766514,52.96034376
465.1894089,47.65151415
466.3019639,41.11342197
467.4143163,37.25648172
468.5264662,37.00083692
469.6384136,38.13835024
470.7501587,37.78461972
471.8617014,33.9214258
472.9730419,27.31616455
474.0841801,22.23061017
475.1951161,21.15913887
476.30585,20.45887017
477.4163818,16.16290342
478.5267115,10.63619097
479.6368392,8.572529161
480.746765,10.11705807
481.8564889,11.85204419
482.966011,12.55816877
484.0753312,15.14606853
485.1844497,22.33595633
486.2933665,31.97598393
487.4020817,39.0618131
488.5105953,42.21390473
489.6189073,44.44585748
490.7270178,47.43370226
491.8349268,50.37350318
492.9426345,53.37487699
494.0501408,56.19148094
495.1574458,57.10819912
496.2645495,56.90598938
497.3714521,58.26995467
498.4781534,60.35268855
499.5846537,59.35677116
500.6909529,53.27069448
501.7970511,42.92199156
502.9029483,30.69166381
504.0086446,19.62872469
505.1141401,11.6081904
506.2194347,6.054686691
507.3245286,1.905051002
508.4294218,-0.225111282
509.5341143,1.186022314
510.6386062,5.916027029
511.7428975,9.67014472
512.8469882,6.555345343
513.9508786,-2.537539813
515.0545684,-7.63856605
516.158058,-1.930359073
517.2613472,8.688349554
518.3644361,15.05523128
519.4673248,16.40252814
520.5700133,17.65070945
521.6725016,23.06407388
522.7747899,33.29332853
523.8768782,43.17890345
524.9787665,46.27461865
526.0804548,44.05505713
527.1819433,45.10494504
528.2832319,53.8062348
529.3843207,65.11333822
530.4852098,72.33251025
531.5858992,74.43644445
532.6863889,73.34801011
533.7866791,69.72773629
534.8867697,63.89736315
535.9866608,57.04733292
537.0863525,49.38043478
538.1858447,39.20803039
539.2851376,27.17343384
540.3842312,19.13499491
541.4831256,18.95813015
542.5818207,21.88737126
543.6803167,22.06668398
544.7786136,20.47261092
545.8767114,19.07964862
546.9746102,16.03708154
548.07231,10.71083749
549.1698109,4.741494529
550.2671129,-1.303949956
551.3642162,-5.795236859
552.4611206,-5.776779812
553.5578263,-2.403642447
554.6543334,-0.242711975
555.7506418,-0.505046629
556.8467516,-0.87111773
557.942663,-1.466790953
559.0383758,-4.634282212
560.1338902,-8.914203302
561.2292062,-9.655622852
562.3243239,-4.938011161
563.4192432,3.465369192
564.5139644,12.31191249
565.6084873,18.46450896
566.7028121,22.05994609
567.7969388,28.23014108
568.8908675,42.34501752
569.9845981,62.66849598
571.0781308,80.06169745
572.1714656,87.44123079
573.2646026,87.60652414
574.3575417,87.96033778
575.4502831,90.36673933
576.5428267,91.63149234
577.6351727,89.77795575
578.7273211,83.80477712
579.8192719,73.24845794
580.9110251,62.13665783
582.0025809,55.40956232
583.0939393,50.38241633
584.1851003,40.61254464
585.276064,27.18858728
586.3668304,17.66044011
587.4573995,14.74637205
588.5477715,13.54155873
589.6379463,9.105153882
590.727924,1.55974361
591.8177047,-4.889225651
592.9072884,-5.368309904
593.9966751,1.575468648
595.085865,11.47728489
596.1748579,16.59217344
597.2636541,13.95541172
598.3522535,9.281736702
599.4406563,8.652375943
600.5288623,10.25470231
601.6168717,9.336422799
602.7046846,5.839144628
603.7923009,2.145375271
604.8797208,-1.81792597
605.9669443,-7.060040254
607.0539713,-12.31329739
608.1408021,-15.30488292
609.2274365,-15.5643155
610.3138748,-13.37285082
611.4001168,-6.831993578
612.4861627,5.977835361
613.5720125,21.81675793
614.6576662,34.74453343
615.743124,44.01553781
616.8283858,53.70071604
617.9134517,64.7314703
618.9983217,73.1055468
620.082996,76.14011406
621.1674744,75.31975659
622.2517572,72.96150302
623.3358443,70.82606353
624.4197358,70.74103233
625.5034317,72.04689109
626.586932,71.02137374
627.6702369,65.4201004
628.7533464,55.93349053
629.8362605,43.07749737
630.9189792,27.30087545
632.0015027,12.2656973
633.0838309,4.193447504
634.1659639,5.833579528
635.2479018,12.93424359
636.3296446,20.17502917
637.4111923,27.93530657
638.492545,37.4083817
639.5737027,43.82756838
640.6546656,42.77402371
641.7354335,37.97320515
642.8160067,35.57662905
643.8963851,36.00003781
644.9765687,36.23272809
646.0565577,35.64252703
647.136352,35.90145887
648.2159518,36.95897663
649.295357,36.2643362
650.3745677,32.84221232
651.453584,28.88230538
652.5324059,25.60137256
653.6110335,21.31224611
654.6894667,15.23481862
655.7677057,9.182324947
656.8457504,5.138091955
657.923601,5.354082498
659.0012575,12.04736083
660.07872,22.23566013
661.1559884,28.75480947
662.2330628,29.88311288
663.3099433,30.03834397
664.3866299,30.26253512
665.4631227,27.13662166
666.5394216,21.17240489
667.6155269,18.13645753
668.6914384,20.6669319
669.7671563,23.75952309
670.8426806,21.33723379
671.9180114,14.60959053
672.9931486,10.27003094
674.0680924,11.5775997
675.1428427,15.69690285
676.2173997,19.97443916
677.2917633,25.34191663
678.3659337,31.6805668
679.4399109,35.69343245
680.5136948,35.6178041
681.5872856,32.95721559
682.6606834,29.9162298
683.7338881,30.08873604
684.8068997,38.01612652
685.8797185,52.53220206
686.9523443,64.72108154
688.0247773,67.20675052
689.0970174,63.0674194
690.1690648,61.8310294
691.2409195,66.8376779
692.3125815,71.85931697
693.3840508,71.11426993
694.4553276,65.21426463
695.5264119,57.35574228
696.5973036,51.64945152
697.6680029,52.9585811
698.7385099,61.19228719
699.8088244,68.61903867
700.8789467,68.29861663
701.9488767,62.55882428
703.0186145,57.99018612
704.0881601,55.44630892
705.1575136,51.7185196
706.226675,46.91382536
707.2956444,43.16839093
708.3644218,40.71648204
709.4330073,39.65167262
710.5014009,40.20853618
711.5696026,39.81122039
712.6376126,35.77180543
713.7054308,31.39494257
714.7730573,33.4369975
715.8404921,41.80357925
716.9077353,47.09494921
717.974787,42.22482557
719.0416471,31.79782927
720.1083157,26.26820968
721.1747929,30.51173807
722.2410788,39.32913094
723.3071733,43.13944737
724.3730765,38.67966153
725.4387884,31.60850361
726.5043092,28.4356611
727.5696387,30.64176445
728.6347772,35.68251443
729.6997246,39.88930678
730.764481,40.95981901
731.8290465,38.9800814
732.893421,35.54340669
733.9576046,31.9880304
735.0215973,28.03596714
736.0853993,23.99180763
737.1490106,24.49955708
738.2124311,34.43366226
739.275661,49.16830349
740.3387003,56.15582439
741.401549,50.30663479
742.4642072,41.37082066
743.5266749,41.18984375
744.5889522,50.04392824
745.6510392,60.0204932
746.7129358,64.6904092
747.7746421,62.05448021
748.8361581,55.27299476
749.897484,51.53882455
750.9586197,54.91947403
752.0195653,63.0999216
753.0803208,73.09553805
754.1408863,83.73745687
755.2012619,92.61603376
756.2614475,97.02323132
757.3214432,97.77135874
758.3812492,98.22944211
759.4408653,99.53077341
760.5002916,99.74010586
761.5595283,97.95691619
762.6185753,95.14521254
763.6774327,90.67966747
764.7361006,82.3127063
765.7945789,69.96795809
766.8528678,57.63398987
767.9109672,50.08775692
768.9688772,47.24029461
770.0265979,43.75286174
771.0841294,34.05652118
772.1414715,17.08695529
773.1986245,-1.224228332
774.2555883,-11.34409238
775.312363,-9.15265615
776.3689486,0.602124392
777.4253452,10.37976217
778.4815529,16.44435173
779.5375716,19.90517812
780.5934014,23.72040418
781.6490423,29.21689919
782.7044945,35.03234513
783.7597579,38.86688158
784.8148327,39.50843197
785.8697187,38.1257756
786.9244161,38.62071522
787.978925,44.54006581
789.0332454,54.09485664
790.0873772,60.76488318
791.1413206,60.83901679
792.1950757,57.98203265
793.2486423,57.37787264
794.3020207,58.62807378
795.3552108,57.781731
796.4082127,52.90773559
797.4610265,46.23935994
798.5136521,42.4769829
799.5660896,43.45937428
800.6183391,44.93502227
801.6704006,41.1454886
802.7222742,31.51583808
803.7739599,21.20378585
804.8254577,15.24396552
805.8767677,14.03461605
806.9278899,16.03127363
807.9788245,20.71369543
809.0295713,26.35272891
810.0801305,30.42588747
811.1305021,34.10435507
812.1806862,40.91670601
813.2306828,49.83700293
814.2804919,54.3818241
815.3301136,51.39024759
816.379548,47.18765913
817.428795,50.83543835
818.4778548,65.06613707
819.5267273,87.38051277
820.5754126,113.5660669
821.6239108,136.8877707
822.6722219,150.4965497
823.720346,153.8983109
824.768283,153.753996
825.8160331,156.2977139
826.8635963,161.0058051
827.9109725,163.4323558
828.958162,161.1408445
830.0051647,155.284913
831.0519806,150.5619098
832.0986098,152.1324428
833.1450524,157.195954
834.1913083,155.7226359
835.2373777,144.2658004
836.2832606,128.9562228
837.328957,113.3043264
838.3744669,95.13765855
839.4197905,75.25312605
840.4649277,58.95726974
841.5098787,50.12152729
842.5546433,49.59816352
843.5992218,55.69809615
844.6436141,61.74411284
845.6878203,59.11031457
846.7318404,47.14067167
847.7756744,34.49780664
848.8193225,28.29498229
849.8627846,27.02094334
850.9060608,25.44666516
851.9491512,21.73801717
852.9920557,17.44274616
854.0347745,14.33639907
855.0773075,14.23900365
856.1196549,18.59157704
857.1618166,24.86613508
858.2037927,27.03800078
859.2455833,23.93963456
860.2871883,21.44904874
861.3286079,21.72784371
862.3698421,19.46466719
863.4108909,12.67226718
864.4517544,7.432351863
865.4924326,9.560947725
866.5329255,18.01743871
867.5732333,27.148379
868.6133559,32.36786541
869.6532933,33.932491
870.6930457,36.05343922
871.7326131,41.81113853
872.7719955,49.94394613
873.811193,57.45076875
874.8502055,62.90123133
875.8890333,65.93663684
876.9276762,66.6254363
877.9661343,66.62612284
879.0044077,68.02599494
880.0424965,71.01476947
881.0804006,74.72757483
882.1181201,77.63865685
883.1556551,76.62047209
884.1930056,71.01391944
885.2301717,65.67996186
886.2671533,64.09203464
887.3039505,63.31250355
888.3405634,60.66389068
889.3769921,59.32192107
890.4132365,62.6406377
891.4492967,67.06731134
892.4851727,66.35070781
893.5208646,61.13915914
894.5563725,57.30257651
895.5916964,55.57678908
896.6268362,51.41666679
897.6617922,44.31925608
898.6965642,38.35606832
899.7311524,34.40806184
900.7655568,30.24489535
901.7997774,26.77329808
902.8338143,26.16211335
903.8676675,26.19486927
904.9013371,24.4654124
905.9348231,23.38910222
906.9681256,24.06985855
908.0012446,24.00441311
909.0341801,25.78536115
910.0669322,35.81707068
911.0995009,51.92259357
912.1318863,64.88996893
913.1640883,72.23020443
914.1961072,79.42397318
915.2279429,89.26205659
916.2595954,98.84252951
917.2910647,105.158892
918.3223511,107.3419099
919.3534543,104.7239962
920.3843747,97.25238436
921.415112,88.46934942
922.4456665,84.22773586
923.4760381,86.00035422
924.5062269,89.03959312
925.5362329,88.49379724
926.5660562,82.28870803
927.5956968,69.03680317
928.6251548,50.63864932
929.6544302,35.13599566
930.683523,28.73491702
931.7124333,27.84795408
932.7411612,26.28530291
933.7697066,24.59746795
934.7980697,25.84350584
935.8262504,29.99314323
936.8542488,37.57746888
937.8820649,51.23246767
938.9096989,69.36187789
939.9371506,84.21063539
940.9644203,91.4981478
941.9915079,97.27246182
943.0184134,109.4959902
944.0451369,127.5811696
945.0716785,144.4540374
946.0980382,155.1034884
947.124216,160.5813311
948.1502119,163.659069
949.1760261,162.861244
950.2016586,156.102616
951.2271093,147.5413342
952.2523784,142.9304932
953.2774659,141.1026098
954.3023718,136.121877
955.3270962,124.630208
956.3516391,109.7722774
957.3760006,100.2516961
958.4001806,101.2629501
959.4241793,106.1720323
960.4479967,105.8687488
961.4716329,102.8864964
962.4950878,104.5139635
963.5183615,107.5201631
964.541454,103.7374765
965.5643655,96.88149713
966.5870959,98.87996893
967.6096453,110.2593217
968.6320137,118.3493969
969.6542011,115.3180809
970.6762077,106.0232422
971.6980335,97.75452642
972.7196784,91.12493615
973.7411426,83.55080307
974.762426,76.85052652
975.7835288,74.89719406
976.804451,74.6597076
977.8251925,67.85655753
978.8457535,52.52849439
979.866134,36.24035164
980.886334,27.19494616
981.9063536,25.56937124
982.9261929,23.57384266
983.9458517,15.1359074
984.9653303,5.663499655
985.9846287,5.293793529
987.0037468,12.47845738
988.0226847,16.93514872
989.0414426,18.6234157
990.0600203,27.46359979
991.078418,44.33934257
992.0966357,58.14756917
993.1146734,62.04436987
994.1325312,60.2408319
995.1502092,58.06461064
996.1677073,55.18963295
997.1850256,50.59827179
998.2021641,46.17452454
999.219123,42.32713575
1000.235902,35.77260151
1001.252502,25.02432788
1002.268922,14.54436054
1003.285162,9.726203931
1004.301223,9.901630441
1005.317105,9.743582505
1006.332807,5.961605637
1007.348329,0.836049668
1008.363673,0.535708802
1009.378837,9.246431724
1010.393822,23.67614877
1011.408627,37.55642632
1012.423254,52.54215625
1013.437701,74.6104241
1014.45197,98.81659035
1015.466059,112.2448228
1016.479969,112.2553755
1017.4937,108.0611182
1018.507253,106.5501909
1019.520626,107.806382
1020.533821,110.7287535
1021.546837,114.2888338
1022.559674,116.2654296
1023.572333,115.4140893
1024.584812,112.234027
1025.597114,107.5792079
1026.609236,102.9650833
1027.62118,98.76973172
1028.632946,91.2835243
1029.644533,76.53586347
1030.655942,56.51699796
1031.667172,38.84843685
1032.678224,31.03939793
1033.689098,33.12950799
1034.699793,36.3882344
1035.710311,34.60875988
1036.72065,31.69727868
1037.730811,30.57254661
1038.740794,26.21640981
1039.750599,18.76476899
1040.760225,17.96890855
1041.769674,27.49498903
1042.778945,39.91289721
1043.788039,49.92080524
1044.796954,58.76097511
1045.805692,66.14768139
1046.814251,69.5110687
1047.822633,69.70719575
1048.830838,69.32521372
1049.838865,68.01708637
1050.846714,64.64776504
1051.854386,59.99912214
1052.86188,54.26886385
1053.869197,46.49647455
1054.876336,37.8598126
1055.883298,30.90924365
1056.890082,24.3781781
1057.89669,12.98866383
1058.90312,-4.317191459
1059.909373,-19.15126003
1060.915448,-21.47121529
1061.921347,-9.955466089
1062.927068,10.05131617
1063.932613,35.41408322
1064.93798,65.77363854
1065.943171,98.44667636
1066.948184,129.3518012
1067.953021,156.2821958
1068.957681,177.9521533
1069.962164,193.3741342
1070.96647,203.0159833
1071.9706,208.4279949
1072.974553,209.8205028
1073.978329,204.878986
1074.981929,193.8471436
1075.985352,182.8672356
1076.988598,174.4659089
1077.991668,160.6204216
1078.994562,134.5608596
1079.99728,102.2408352
1080.99982,75.25861579
1082.002185,59.41972659
1083.004374,52.60648628
1084.006386,48.72616635
1085.008222,44.86062715
1086.009882,44.66392301
1087.011365,51.53726874
1088.012673,63.76285522
1089.013805,78.77798829
1090.01476,94.33323611
1091.01554,105.0054513
1092.016144,105.3177801
1093.016572,97.23733114
1094.016824,89.29930572
1095.016901,87.41641632
1096.016801,90.70505264
1097.016526,94.90523096
1098.016076,95.69094693
1099.015449,91.48464694
1100.014648,84.44412239
1101.01367,75.95789412
1102.012517,65.73054967
1103.011189,59.05778043
1104.009685,65.9568717
1105.008006,86.92653756
1106.006152,107.99536
1107.004122,115.5492797
1108.001917,110.6733697
1108.999537,105.6255363
1109.996982,109.572074
1110.994251,120.770997
1111.991346,131.4124851
1112.988265,136.3821634
1113.98501,136.4195037
1114.981579,135.6535379
1115.977974,137.7030423
1116.974193,142.4519665
1117.970238,145.4190845
1118.966108,141.6507329
1119.961804,131.1635175
1120.957324,118.0866679
1121.95267,104.7912986
1122.947841,92.16202112
1123.942838,83.74617919
1124.93766,82.3553919
1125.932308,86.01002441
1126.926781,92.01553675
1127.921079,99.05767159
1128.915204,104.909441
1129.909154,109.754033
1130.902929,118.6856521
1131.896531,135.210396
1132.889958,158.2211139
1133.883211,187.4710975
1134.876289,224.0030896
1135.869194,264.6868553
1136.861924,303.9083527
1137.854481,340.3405671
1138.846864,375.6769423
1139.839072,406.2324443
1140.831107,421.5460454
1141.822968,416.1031074
1142.814655,399.8241426
1143.806168,389.3213638
1144.797507,387.3612778
1145.788673,378.8792174
1146.779665,351.7130331
1147.770483,313.0232244
1148.761128,277.7441181
1149.751599,247.999196
1150.741897,213.1433364
1151.732021,167.8092117
1152.721972,122.1006834
1153.71175,90.33417453
1154.701354,75.03402344
1155.690785,68.68705781
1156.680042,67.02608092
1157.669126,72.13415337
1158.658037,84.21162364
1159.646775,98.67545558
1160.63534,111.7862778
1161.623732,122.4757388
1162.611951,128.9049675
1163.599996,128.1406487
1164.587869,119.4442464
1165.575569,107.2610783
1166.563096,99.36748243
1167.55045,98.81223633
1168.537632,99.21754333
1169.52464,91.33568393
1170.511476,74.47529366
1171.498139,59.13239244
1172.48463,53.95710784
1173.470948,52.7168076
1174.457093,43.63394579
1175.443066,28.02857792
1176.428867,17.56347689
1177.414495,17.96372246
1178.399951,26.27533981
1179.385234,37.82181129
1180.370345,47.95633211
1181.355283,52.08842531
1182.34005,49.45847672
1183.324644,46.54076352
1184.309066,53.27921875
1185.293316,72.79316901
1186.277394,96.27462554
1187.2613,111.3485358
1188.245034,116.1399919
1189.228596,121.7088436
1190.211986,137.2347738
1191.195204,157.9122949
1192.17825,172.5644764
1193.161125,177.5400106
1194.143827,178.0417174
1195.126358,178.9270036
1196.108718,177.7552883
1197.090905,168.4823447
1198.072921,151.0057213
1199.054766,132.451167
1200.036439,119.192721
1201.01794,112.5947073
1201.99927,110.867663
1202.980429,110.6196017
1203.961416,108.1865876
1204.942232,103.439035
1205.922877,103.9275661
1206.90335,121.4348444
1207.883652,157.7538753
1208.863783,195.8302725
1209.843743,214.3282834
1210.823532,211.9724932
1211.80315,208.1429544
1212.782596,216.9639213
1213.761872,231.3426867
1214.740977,236.360196
1215.719911,228.3767607
1216.698674,215.9360805
1217.677266,206.2420681
1218.655688,195.1933206
1219.633938,174.4843414
1220.612018,146.2468666
1221.589928,122.4650828
1222.567667,111.4255404
1223.545235,111.8483717
1224.522632,116.7136261
1225.499859,118.2696535
1226.476916,114.0695215
1227.453802,109.6176212
1228.430518,111.7978487
1229.407064,121.7752425
1230.383439,135.0214208
1231.359644,143.9247226
1232.335678,141.5739717
1233.311543,127.9473817
1234.287237,110.7614353
1235.262761,97.03755429
1236.238115,87.04008552
1237.2133,78.76176442
1238.188314,73.00361893
1239.163158,71.53197644
1240.137832,74.11984354
1241.112336,77.08881665
1242.086671,73.29812997
1243.060836,58.90924223
1244.034831,40.66870208
1245.008656,29.97441089
1245.982311,31.43471709
1246.955797,40.88867515
1247.929113,49.74807369
1248.90226,51.5579978
1249.875237,49.80892689
1250.848045,54.82806322
1251.820683,69.20642367
1252.793152,84.52691974
1253.765451,95.17061395
1254.737582,105.4637873
1255.709542,120.3046219
1256.681334,137.988365
1257.652956,154.0789852
1258.624409,165.213796
1259.595693,171.019927
1260.566808,176.510376
1261.537754,186.0595506
1262.508531,194.9804643
1263.479139,195.0713965
1264.449577,184.1746256
1265.419847,164.7533167
1266.389948,140.865271
1267.359881,120.158841
1268.329644,111.187366
1269.299239,114.4215687
1270.268665,119.5148399
1271.237922,115.9458641
1272.207011,105.1376389
1273.175931,96.86941966
1274.144682,95.10343701
1275.113265,94.70547629
1276.08168,92.07160738
1277.049926,92.07141809
1278.018003,101.9364467
1278.985912,121.3650836
1279.953653,141.250178
1280.921226,150.8434586
1281.88863,146.3339813
1282.855866,135.7533363
1283.822934,131.2076648
1284.789834,131.8141802
1285.756566,124.8665441
1286.723129,106.6353886
1287.689525,87.06938516
1288.655752,74.29149964
1289.621812,69.38742246
1290.587704,72.40381991
1291.553428,79.94769119
1292.518984,82.64146741
1293.484372,76.13148295
1294.449592,67.25428467
1295.414645,60.93785009
1296.37953,51.53086436
1297.344247,34.79599541
1298.308797,17.99246092
1299.27318,11.41345844
1300.237394,16.84759588
1301.201441,28.9094774
1302.165321,43.27958383
1303.129034,57.90310479
1304.092578,69.00890026
1305.055956,75.38294006
1306.019166,84.05985152
1306.982209,99.34176293
1307.945085,111.9372298
1308.907794,113.8044708
1309.870335,113.1195498
1310.83271,119.1784228
1311.794917,126.2506802
1312.756957,125.7974996
1313.718831,119.6901503
1314.680537,112.4267858
1315.642076,104.8509696
1316.603449,98.36180707
1317.564654,92.67716915
1318.525693,83.05673145
1319.486565,68.95799783
1320.447271,56.96880021
1321.407809,50.05404996
1322.368181,44.19176254
1323.328387,37.41583745
1324.288426,33.35481262
1325.248298,35.14916114
1326.208004,40.51734295
1327.167543,44.4852447
1328.126916,45.85887641
1329.086122,46.29172821
1330.045162,44.01063467
1331.004036,37.19818866
1331.962744,30.58056925
1332.921285,28.92921253
1333.87966,29.29390237
1334.837869,26.80027152
1335.795912,21.17166075
1336.753788,13.56160206
1337.711499,5.262563572
1338.669043,2.218373483
1339.626422,11.70233539
1340.583635,31.66335889
1341.540682,51.02850077
1342.497562,60.99256333
1343.454278,60.42481252
1344.410827,54.28290672
1345.36721,51.33388898
1346.323428,57.56375313
1347.279481,69.60468348
1348.235367,80.63076744
1349.191088,90.47224859
1350.146643,102.4011253
1351.102033,113.806031
1352.057258,119.3944477
1353.012316,122.3354512
1353.96721,131.8351901
1354.921938,148.4660513
1355.876501,162.8677085
1356.830898,168.8147412
1357.785131,165.9854452
1358.739198,153.8880605
1359.693099,135.7266275
1360.646836,122.7143731
1361.600408,123.2024695
1362.553814,132.2511369
1363.507055,138.6440147
1364.460132,136.5670986
1365.413043,126.946177
1366.36579,113.78536
1367.318371,102.3180069
1368.270788,96.51283242
1369.22304,95.09608924
1370.175127,91.19391539
1371.12705,79.60239777
1372.078808,64.30383935
1373.030401,53.61294632
1373.981829,48.54559181
1374.933093,44.62356986
1375.884192,43.95519996
1376.835127,53.42709675
1377.785897,72.54694128
1378.736503,94.51015419
1379.686945,115.9914269
1380.637222,138.5649669
1381.587335,165.3073728
1382.537283,198.9726088
1383.487067,239.2627242
1384.436687,281.7010081
1385.386143,320.594258
1386.335435,350.6847556
1387.284562,367.3959721
1388.233526,370.52396
1389.182325,366.1221063
1390.130961,360.6430401
1391.079432,353.8994874
1392.02774,338.7917098
1392.975883,308.9205894
1393.923863,268.0066671
1394.871679,228.2036886
1395.819332,195.6773253
1396.76682,164.2967744
1397.714145,128.69754
1398.661306,94.69682184
1399.608304,70.12874241
1400.555137,54.21547416
1401.501808,41.54723769
1402.448315,29.74949078
1403.394658,19.95864161
1404.340838,12.93726626
1405.286855,6.999740566
1406.232708,0.990617656
1407.178397,-2.878738465
1408.123924,-3.385648971
1409.069287,-3.674427125
1410.014487,-4.675781298
1410.959524,-1.736331494
1411.904398,7.241579653
1412.849108,18.56866337
1413.793656,29.4461879
1414.73804,39.87950364
1415.682262,48.28054384
1416.62632,50.61537341
1417.570216,45.25538875
1418.513949,38.1384216
1419.457519,39.13774236
1420.400926,49.99598346
1421.34417,61.74169095
1422.287251,68.68192783
1423.23017,77.67544443
1424.172926,98.25172499
1425.11552,130.9045314
1426.057951,169.7768601
1427.000219,210.0073726
1427.942325,249.6480376
1428.884268,289.8328706
1429.826049,333.280523
1430.767667,378.5838783
1431.709123,417.8873251
1432.650417,443.7344272
1433.591549,457.1972651
1434.532518,467.9119516
1435.473325,484.3831781
1436.413969,501.8691409
1437.354452,504.1848263
1438.294772,482.2547698
1439.234931,444.9507894
1440.174927,407.4994032
1441.114761,375.6841589
1442.054434,343.7853441
1442.993944,303.6314281
1443.933292,255.1782595
1444.872479,207.7179158
1445.811504,170.1050487
1446.750367,145.0551938
1447.689068,132.5851793
1448.627607,129.3250502
1449.565985,126.0282076
1450.504201,116.6064747
1451.442256,105.8311245
1452.380149,99.38572296
1453.31788,93.78893901
1454.25545,84.24312358
1455.192859,74.72828319
1456.130106,73.60691502
1457.067191,83.21617754
1458.004115,95.95793359
1458.940878,99.68937206
1459.87748,89.68740776
1460.81392,75.52099997
1461.7502,70.61183144
1462.686317,74.1452563
1463.622274,71.07294714
1464.55807,53.45050203
1465.493705,32.95943202
1466.429178,25.75760964
1467.364491,32.60759676
1468.299643,42.95068506
1469.234633,52.59666716
1470.169463,65.31311592
1471.104132,79.38665683
1472.03864,86.40959094
1472.972988,85.18390567
1473.907174,84.36760659
1474.8412,88.7129706
1475.775066,94.41352809
1476.70877,100.4882634
1477.642314,112.4368768
1478.575698,130.7479441
1479.508921,146.0770414
1480.441983,150.4173839
1481.374885,146.0969864
1482.307627,141.024152
1483.240208,139.8802431
1484.172629,140.548896
1485.104889,136.7020833
1486.036989,126.6731199
1486.968929,119.6843174
1487.900709,125.9013518
1488.832329,140.7983466
1489.763788,149.2925754
1490.695087,145.1540521
1491.626227,135.8565038
1492.557206,127.5070286
1493.488025,116.5045809
1494.418685,100.4912409
1495.349184,86.11570087
1496.279523,78.81620717
1497.209703,75.28421071
1498.139723,71.66204572
1499.069583,69.78517101
1499.999283,71.2342317
1500.928824,71.17073506
1501.858205,62.60254789
1502.787426,46.75559327
1503.716488,34.4901748
1504.64539,34.2964471
1505.574133,43.20842265
1506.502716,53.36420985
1507.43114,62.56859647
1508.359404,72.59566292
1509.287509,81.72912331
1510.215454,85.92014058
1511.14324,85.37160988
1512.070867,85.96686556
1512.998335,92.79121172
1513.925643,102.3784791
1514.852793,105.8197358
1515.779783,101.7685045
1516.706614,98.55970405
1517.633286,99.87291663
1518.559799,99.50563212
1519.486153,93.69421375
1520.412348,85.36263342
1521.338384,75.84866199
1522.264261,64.72305135
1523.18998,54.81270209
1524.115539,49.16321129
1525.04094,47.37233435
1525.966182,47.72655086
1526.891265,48.00879862
1527.81619,44.4651687
1528.740956,35.49198326
1529.665563,24.51297248
1530.590012,14.58779084
1531.514302,4.954150748
1532.438434,-3.873906488
1533.362407,-7.040909101
1534.286222,0.860510323
1535.209879,20.70088837
1536.133377,47.54204088
1537.056717,74.99616011
1537.979898,99.25605645
1538.902921,117.7552244
1539.825786,128.8197557
1540.748493,135.0364158
1541.671042,141.9037953
1542.593432,151.1730753
1543.515665,159.2018309
1544.43774,162.648464
1545.359656,162.7527252
1546.281415,162.0841856
1547.203015,158.6863577
1548.124458,147.5485367
1549.045743,128.3619787
1549.96687,107.1022856
1550.887839,89.87795421
1551.80865,79.62376081
1552.729304,76.26218806
1553.6498,75.87141682
1554.570138,73.9637668
1555.490319,72.62092002
1556.410342,79.07902769
1557.330208,94.65883414
1558.249916,109.8393848
1559.169466,113.5019434
1560.08886,105.615055
1561.008095,97.81565914
1561.927174,99.76449272
1562.846095,108.093208
1563.764859,112.6194584
1564.683465,110.0396049
1565.601914,106.5545713
1566.520206,108.5255515
1567.438341,113.7623701
1568.356319,112.5552587
1569.27414,98.50924756
1570.191803,78.24011191
1571.10931,65.88928687
1572.026659,68.05224162
1572.943852,80.60077374
1573.860888,98.98448811
1574.777766,121.6307708
1575.694488,143.5799733
1576.611053,157.4655868
1577.527462,162.2430507
1578.443713,163.5800882
1579.359808,164.7794281
1580.275747,163.2326225
1581.191528,157.9545057
1582.107153,154.8069112
1583.022622,158.5182604
1583.937933,163.2027564
1584.853089,158.6681292
1585.768088,144.6338913
1586.68293,130.6511091
1587.597616,122.7357295
1588.512146,116.3724349
1589.426519,103.5528561
1590.340736,84.94764035
1591.254797,71.03128484
1592.168702,67.65436585
1593.08245,68.00364062
1593.996042,64.68246037
1594.909478,60.48356893
1595.822758,61.68429039
1596.735882,67.29503487
1597.64885,69.0578275
1598.561662,61.28063667
1599.474318,48.33948132
1600.386819,38.89516648
1601.299163,34.97490945
1602.211351,32.49405248
1603.123384,29.64597552
1604.035261,27.89800357
1604.946982,26.90850329
1605.858547,23.99498124
1606.769957,18.15769615
1607.681211,11.99228965
1608.592309,8.890492524
1609.503252,9.699478637
1610.414039,13.51152908
1611.324671,20.47166221
1612.235147,32.16337495
1613.145468,48.02120448
1614.055634,62.02953925
1614.965644,67.62282627
1615.875499,65.67663064
1616.785198,62.7523193
1617.694743,63.97781516
1618.604132,71.28479924
1619.513366,84.02575437
1620.422444,98.3723793
1621.331368,109.2479556
1622.240136,116.2576352
1623.14875,126.4291706
1624.057208,145.7571093
1624.965512,169.4653525
1625.87366,186.8923699
1626.781654,192.8189264
1627.689492,189.0254209
1628.597176,180.2672909
1629.504705,172.1186706
1630.412079,167.4821468
1631.319299,165.9093342
1632.226364,168.9492826
1633.133274,178.1074692
1634.040029,187.0385615
1634.94663,186.2431168
1635.853076,173.4428172
1636.759368,154.541433
1637.665505,138.7831202
1638.571488,131.1283247
1639.477316,127.1135676
1640.38299,119.9960036
1641.28851,110.2268467
1642.193875,102.2371358
1643.099086,96.91142836
1644.004142,93.37293508
1644.909045,93.12204435
1645.813793,95.89639758
1646.718387,96.76161549
1647.622827,91.91877043
1648.527112,82.33893047
1649.431244,72.60596323
1650.335222,71.67225609
1651.239045,88.73648064
1652.142715,122.3067313
1653.046231,159.0956834
1653.949593,185.805168
1654.852801,197.9927009
1655.755855,200.8188884
1656.658755,203.5993899
1657.561502,210.5263256
1658.464095,218.8291056
1659.366534,224.9365882
1660.26882,225.8915669
1661.170952,219.3370841
1662.07293,207.8492787
1662.974755,196.9158148
1663.876426,186.6463714
1664.777944,172.1845074
1665.679308,151.9298316
1666.580519,129.4982269
1667.481576,108.4339292
1668.382481,90.08005695
1669.283231,75.3078617
1670.183829,64.70994536
1671.084273,60.16195587
1671.984564,66.79015781
1672.884702,86.21223304
1673.784687,108.0631945
1674.684518,117.4416091
1675.584197,111.4189586
1676.483722,100.359388
1677.383095,92.81602024
1678.282314,87.44108672
1679.181381,82.70534924
1680.080294,85.10994718
1680.979055,98.92668263
1681.877663,115.3678315
1682.776118,123.7840478
1683.67442,127.7071768
1684.57257,137.7045558
1685.470567,152.9248401
1686.368411,160.3945351
1687.266102,151.3998255
1688.163641,133.365974
1689.061027,123.1976661
1689.958261,127.7400376
1690.855342,136.4156268
1691.752271,139.1549823
1692.649047,142.050408
1693.545671,154.8013596
1694.442143,172.5018664
1695.338462,181.9970706
1696.234629,179.710863
1697.130643,172.8239984
1698.026505,166.6003485
1698.922216,160.2939945
1699.817773,154.4588414
1700.713179,152.5581048
1701.608433,153.9466544
1702.503534,152.6758886
1703.398484,145.2206278
1704.293281,135.3943346
1705.187927,129.3056229
1706.08242,125.8742918
1706.976762,115.2610807
1707.870952,90.01785686
1708.76499,56.88113255
1709.658876,32.76988009
1710.55261,25.68552705
1711.446193,24.74049869
1712.339624,17.81828404
1713.232903,12.14962301
1714.12603,21.66447294
1715.019006,42.82688511
1715.911831,62.25238649
1716.804504,78.34674223
1717.697025,98.28288936
1718.589395,122.7865387
1719.481613,146.4641933
1720.37368,166.6571494
1721.265595,182.6954131
1722.15736,190.5077814
1723.048973,187.8988632
1723.940434,182.6108183
1724.831745,183.5538912
1725.722904,187.398736
1726.613912,185.2534214
1727.504768,175.5024548
1728.395474,159.6164257
1729.286029,136.4511419
1730.176432,110.0524319
1731.066685,90.14076173
1731.956786,78.58347484
1732.846737,68.67755169
1733.736537,59.64782817
1734.626185,57.81864857
1735.515683,63.31938183
1736.405031,69.15592305
1737.294227,73.9599788
1738.183272,84.67008391
1739.072167,105.3676602
1739.960911,130.205256
1740.849505,148.6200234
1741.737948,154.9844909
1742.62624,152.4748636
1743.514382,147.9116462
1744.402373,145.1070415
1745.290214,144.7525423
1746.177904,146.1564433
1747.065444,146.6362057
1747.952833,143.8444107
1748.840073,140.0435822
1749.727161,140.537726
1750.6141,146.443559
1751.500888,151.9800629
1752.387526,153.4850073
1753.274014,158.1567297
1754.160351,174.7510592
1755.046539,198.3879574
1755.932576,215.8661002
1756.818464,222.3559806
1757.704201,223.4311161
1758.589788,227.0031494
1759.475225,238.259157
1760.360513,253.6942694
1761.24565,259.4431299
1762.130638,245.6436502
1763.015476,221.6182982
1763.900164,205.5939317
1764.784702,199.9393499
1765.66909,190.863779
1766.553329,172.2316463
1767.437418,151.8420084
1768.321358,134.4201994
1769.205148,116.769373
1770.088788,100.6596022
1770.972279,93.15315293
1771.85562,90.89117457
1772.738812,82.35221605
1773.621854,70.20557433
1774.504747,69.62967698
1775.38749,81.09464023
1776.270084,88.23167512
1777.152529,83.61769363
1778.034825,76.86823419
1778.916971,79.13841026
1779.798968,91.78949348
1780.680816,106.2622439
1781.562515,112.0448805
1782.444065,109.4901666
1783.325465,110.2401711
1784.206717,120.6008089
1785.087819,131.6284666
1785.968773,130.405971
1786.849577,116.609283
1787.730233,101.4791371
1788.610739,92.47888118
1789.491097,88.13304996
1790.371306,86.76603732
1791.251367,89.16663833
1792.131278,91.82969189
1793.011041,87.39576199
1793.890655,75.17230951
1794.77012,64.83815026
1795.649437,64.98416645
1796.528605,72.54627617
1797.407625,78.26846369
1798.286496,78.40567255
1799.165218,76.54386272
1800.043792,76.74963526
1800.922218,78.86886273
1801.800495,80.94115723
1802.678624,82.77827877
1803.556604,83.24502759
1804.434436,77.02904785
1805.31212,60.66596385
1806.189656,40.6329968
1807.067043,29.19830012
1807.944283,31.35938652
1808.821374,41.07883521
1809.698317,52.13103598
1810.575112,66.1704957
1811.451758,85.85386828
1812.328257,106.1088126
1813.204608,119.0780646
1814.080811,124.1475672
1814.956866,127.1362303
1815.832773,132.2973556
1816.708532,138.0795684
1817.584143,139.5493076
1818.459607,136.5298653
1819.334923,137.0559289
1820.210091,147.0689898
1821.085111,161.8015959
1821.959984,172.3425337
1822.834709,173.079198
1823.709286,161.1557778
1824.583716,138.9189673
1825.457998,116.8822663
1826.332133,104.8525953
1827.20612,102.3266999
1828.07996,102.7293964
1828.953653,100.5427874
1829.827198,93.77813792
1830.700596,86.48238575
1831.573846,84.22150197
1832.446949,83.87543113
1833.319905,76.610414
1834.192714,61.16631273
1835.065375,45.52789123
1835.93789,36.11065593
1836.810257,31.86140419
1837.682477,29.24220719
1838.55455,28.39289771
1839.426476,31.55984965
1840.298255,37.17064129
1841.169887,40.38860137
1842.041372,39.86784196
1842.91271,38.18482814
1843.783901,35.78496084
1844.654946,31.86570592
1845.525844,30.94857796
1846.396594,40.33517412
1847.267199,59.53159954
1848.137656,79.02538748
1849.007967,90.54545779
1849.878131,92.84006057
1850.748148,90.45886993
1851.618019,91.77933099
1852.487743,101.2654444
1853.357321,112.3802884
1854.226753,116.57971
1855.096037,115.3933621
1855.965176,115.8608429
1856.834168,119.0951386
1857.703014,119.8153421
1858.571713,114.5786357
1859.440266,104.5214344
1860.308673,92.16954549
1861.176933,82.58934692
1862.045047,82.2059634
1862.913016,88.86156779
1863.780838,91.71172265
1864.648513,86.008243
1865.516043,78.13045624
1866.383427,74.81074402
1867.250665,76.52321829
1868.117756,80.0363626
1868.984702,80.92046301
1869.851502,76.0640006
1870.718156,67.38753474
1871.584664,61.72968903
1872.451026,64.87623114
1873.317243,74.49267025
1874.183314,81.21135288
1875.049239,79.46750342
1875.915018,73.3529114
1876.780651,70.03087144
1877.646139,72.45553742
1878.511482,78.78096034
1879.376679,85.40894375
1880.24173,91.42897446
1881.106635,101.0750674
1881.971396,118.8057618
1882.83601,140.0434629
1883.70048,151.6379505
1884.564804,145.7791258
1885.428982,129.1691142
1886.293016,115.5253742
1887.156904,113.4989307
1888.020646,122.6434323
1888.884244,135.5332836
1889.747696,143.0504417
1890.611003,141.7963857
1891.474165,136.0999821
1892.337182,131.2954398
1893.200054,127.7299821
1894.06278,121.9233579
1894.925362,111.4012537
1895.787799,98.35860486
1896.650091,88.53656403
1897.512238,85.62348183
1898.374239,86.47607483
1899.236097,83.20229005
1900.097809,72.91457097
1900.959376,63.85454769
1901.820799,65.71469006
1902.682077,74.30361857
1903.54321,73.91990309
1904.404199,57.33613555
1905.265043,35.67227832
1906.125742,25.36004788
1906.986297,32.48813693
1907.846707,50.60798002
1908.706973,66.48420514
1909.567094,69.91102725
1910.427071,63.02771578
1911.286903,56.17811425
1912.146591,54.79504648
1913.006135,56.69657157
1913.865534,59.46500725
1914.724789,63.11010926
1915.5839,66.58691313
1916.442866,67.80138065
1917.301688,67.73559828
1918.160366,68.84820146
1919.0189,68.66886706
1919.87729,62.90669838
1920.735536,54.56557101
1921.593638,50.46789809
1922.451595,50.51874543
1923.309409,48.85297875
1924.167079,43.44527241
1925.024604,38.79409018
1925.881986,39.71409681
1926.739224,46.16242395
1927.596318,53.62749033
1928.453269,55.59448303
1929.310075,48.65205613
1930.166738,37.81227349
1931.023257,32.30057023
1931.879633,35.54443844
1932.735865,43.11629933
1933.591953,48.90196658
1934.447897,49.98640273
1935.303698,46.22870933
1936.159356,38.48010912
1937.01487,30.00317999
1937.87024,25.85837003
1938.725468,25.54510645
1939.580551,21.59516472
1940.435492,11.46790562
1941.290289,3.316464065
1942.144942,5.188587678
1942.999453,16.24812341
1943.85382,29.50521317
1944.708044,37.08362015
1945.562124,36.12287523
1946.416062,32.69804366
1947.269856,34.81075946
1948.123508,41.4039781
1948.977016,45.50165285
1949.830381,47.2659428
1950.683603,53.28662451
1951.536683,64.60759912
1952.389619,76.97489694
1953.242412,88.43341517
1954.095063,98.41469573
1954.947571,105.2522502
1955.799935,107.8768886
1956.652157,106.5017918
1957.504237,101.8066959
1958.356173,94.76075697
1959.207967,87.45265113
1960.059618,83.21219734
1960.911127,84.04569905
1961.762493,88.88318874
1962.613716,94.45887195
1963.464797,95.40784661
1964.315735,86.03385618
1965.166531,66.48130428
1966.017184,45.72169133
1966.867695,34.78942988
1967.718064,36.89237343
1968.56829,45.88337966
1969.418374,54.02590122
1970.268315,59.18122549
1971.118114,63.96205491
1971.967771,70.30306096
1972.817286,76.1283802
1973.666659,76.47753769
1974.515889,69.55255033
1975.364977,60.82185002
1976.213924,55.65220873
1977.062728,51.61845434
1977.91139,46.41799796
1978.75991,46.58944325
1979.608288,57.14660127
1980.456524,69.7975909
1981.304619,73.89757032
1982.152571,71.36199684
1983.000382,69.5789875
1983.84805,69.64877597
1984.695577,69.66765038
1985.542962,69.69708923
1986.390206,71.18339767
1987.237308,76.8861938
1988.084268,87.24644552
1988.931086,95.40280208
1989.777763,92.52411008
1990.624298,78.70574452
1991.470692,63.16402661
1992.316944,52.65045847
1993.163055,45.35499419
1994.009024,39.57037245
1994.854852,41.22353404
1995.700538,54.74811436
1996.546083,71.79635057
1997.391487,80.53711281
1998.23675,82.85968041
1999.081871,88.40009215
1999.926851,95.78593297
2000.771689,97.67074842
2001.616387,98.30326115
2002.460943,106.529045
2003.305358,118.9310446
2004.149632,125.7341484
2004.993765,124.3460812
2005.837757,118.5038909
2006.681608,111.945885
2007.525318,104.6513794
2008.368888,92.16913668
2009.212316,71.85020741
2010.055603,49.70822136
2010.898749,36.2523486
2011.741755,34.73322164
2012.58462,37.81361038
2013.427344,39.29903677
2014.269927,43.93100412
2015.11237,57.80332734
2015.954672,75.25870351
2016.796833,86.89425457
2017.638853,95.32914793
2018.480733,110.5382736
2019.322473,132.2722132
2020.164072,148.8468649
2021.00553,154.3900566
2021.846848,156.0713799
2022.688026,160.2376539
2023.529063,162.7810956
2024.36996,158.852955
2025.210716,152.3842635
2026.051332,150.6095253
2026.891808,154.0709685
2027.732144,155.0625773
2028.572339,146.3222782
2029.412394,130.5942734
2030.252309,118.1926593
2031.092084,115.0301054
2031.931719,116.9497008
2032.771213,117.358598
2033.610568,117.7437512
2034.449782,125.2837768
2035.288857,140.6586361
2036.127791,157.6847889
2036.966586,175.2936595
2037.805241,197.4292687
2038.643756,219.4672829
2039.482131,226.9483027
2040.320366,213.3662891
2041.158461,191.8057848
2041.996417,180.8342622
2042.834233,183.5179963
2043.671909,189.3896028
2044.509446,191.4307904
2045.346843,191.2115818
2046.1841,191.3335663
2047.021218,190.1512734
2047.858196,184.3861089
2048.695035,175.832153
2049.531734,171.4048629
2050.368294,173.3241762
2051.204714,175.6554175
2052.040995,173.3772544
2052.877137,167.2671251
2053.713139,159.2916894
2054.549002,151.1212093
2055.384725,146.7313408
2056.22031,149.0441184
2057.055755,153.7928728
2057.891061,152.1031906
2058.726228,138.4629046
2059.561255,113.9022121
2060.396144,85.3611791
2061.230893,63.11082114
2062.065504,53.72122955
2062.899975,54.48054191
2063.734308,56.63388216
2064.568501,53.902081
2065.402556,48.39545844
2066.236471,48.58213516
2067.070248,60.38266953
2067.903886,80.47432446
2068.737385,98.33761596
2069.570746,104.6184763
2070.403967,100.0480668
2071.23705,96.32681289
2072.069994,103.9782503
2072.9028,120.6892792
2073.735467,136.6278671
2074.567995,147.2911319
2075.400384,154.5058355
2076.232636,158.7696441
2077.064748,157.3931077
2077.896722,148.4360064
2078.728558,132.6276975
2079.560255,113.0857203
2080.391814,95.00658513
2081.223235,84.16694653
2082.054517,83.1293714
2082.885661,86.5027104
2083.716666,83.18779352
2084.547533,69.26514784
2085.378262,54.98430006
2086.208853,52.05440495
2087.039306,57.95789824
2087.86962,60.68685546
2088.699797,57.11560704
2089.529835,57.32360661
2090.359736,69.76628002
2091.189498,91.05273393
2092.019122,111.6198368
2092.848608,123.8033257
2093.677957,123.8662686
2094.507167,113.7795681
2095.33624,102.5562013
2096.165175,98.55663711
2096.993972,98.78590561
2097.822631,93.53372532
2098.651152,82.63066345
2099.479536,77.17091792
2100.307782,83.12205681
2101.13589,93.60692697
2101.963861,99.03518205
2102.791694,96.19483258
2103.619389,88.29979069
2104.446947,81.77750806
2105.274367,80.40460238
2106.10165,80.69503061
2106.928796,77.03114433
2107.755804,71.46808458
2108.582674,73.23591959
2109.409407,86.36318984
2110.236003,102.0422201
2111.062462,106.5858394
2111.888783,95.29908264
2112.714967,76.96057615
2113.541013,64.82941062
2114.366923,64.75820454
2115.192695,73.20006064
2116.01833,83.64731585
2116.843828,92.85252879
2117.669189,103.0746711
2118.494413,118.4336425
2119.3195,138.8209581
2120.144449,159.7270097
2120.969262,177.5517168
2121.793938,193.0579655
2122.618477,209.9203457
2123.442879,229.6194732
2124.267144,248.1634935
2125.091273,260.1019832
2125.915264,264.4496673
2126.739119,264.4959853
2127.562837,264.0531236
2128.386418,264.6468134
2129.209863,262.6020948
2130.033171,249.1063684
2130.856342,219.8167076
2131.679377,185.2998628
2132.502275,161.9939703
2133.325036,151.3417747
2134.147661,141.0335571
2134.97015,126.3228712
2135.792502,114.2919392
2136.614718,109.5314251
2137.436797,110.2495942
2138.25874,115.0615303
2139.080546,123.5298967
2139.902217,133.9564262
2140.723751,146.766666
2141.545148,165.7226876
2142.36641,191.0247454
2143.187535,215.634983
2144.008524,232.0581208
2144.829377,237.8035935
2145.650094,232.6425215
2146.470674,217.6297965
2147.291119,198.3297251
2148.111427,181.1119644
2148.9316,165.7584405
2149.751637,149.4348573
2150.571537,134.3107227
2151.391302,122.2573656
2152.210931,108.100704
2153.030424,88.04417198
2153.849781,68.93446515
2154.669002,59.52278188
2155.488088,58.11373123
2156.307038,57.30454844
2157.125852,54.8615285
2157.94453,52.83589606
2158.763073,52.3085761
2159.58148,54.43502526
2160.399752,60.61358148
2161.217888,68.22796379
2162.035888,71.85719515
2162.853753,69.70531955
2163.671482,63.8528169
2164.489076,55.92629436
2165.306534,47.37082145
2166.123858,40.82267935
2166.941045,36.80507638
2167.758098,32.22564739
2168.575015,25.44148384
2169.391796,18.94878442
2170.208443,14.19964964
2171.024954,9.200625224
2171.84133,4.127157837
2172.657571,3.3376981
2173.473676,9.167173385
2174.289647,17.5989984
2175.105482,22.22885526
2175.921183,21.72386588
2176.736748,20.9902463
2177.552178,23.88537536
2178.367474,28.73662622
2179.182634,32.07880656
2179.997659,32.15987622
2180.81255,30.12468377
2181.627306,31.03730842
2182.441926,38.18130924
2183.256412,45.37183009
2184.070764,43.88704653
2184.88498,35.80277489
2185.699062,30.53266329
2186.513009,31.17471743
2187.326821,33.64997792
2188.140499,35.27789357
2188.954042,36.26085227
2189.76745,36.50268924
2190.580724,36.75832057
2191.393864,40.76355451
2192.206869,52.54979255
2193.019739,70.73745126
2193.832475,87.25195308
2194.645077,95.38025771
2195.457544,98.09675552
2196.269877,102.8913546
2197.082075,110.4647296
2197.894139,116.1829985
2198.706069,119.4203979
2199.517865,122.9075517
2200.329526,126.5302054
2201.141053,127.7117104
2201.952446,123.2504496
2202.763705,110.4603313
2203.57483,93.18309168
2204.385821,81.98015178
2205.196677,80.4258421
2206.0074,78.60678456
2206.817988,67.50665391
2207.628443,50.19619794
2208.438764,33.0318944
2209.24895,17.65517342
2210.059003,6.829249692
2210.868922,7.114031613
2211.678707,19.9985029
2212.488359,37.0830683
2213.297876,48.8295072
2214.10726,54.0609771
2214.91651,57.35607551
2215.725627,61.16242707
2216.534609,65.00770557
2217.343459,70.22036979
2218.152174,79.35885975
2218.960756,90.64292685
2219.769204,98.95194078
2220.577519,102.3598187
2221.3857,102.7531085
2222.193748,102.1158772
2223.001663,101.6429005
2223.809444,100.7275028
2224.617091,95.06510728
2225.424606,81.43138644
2226.231986,64.87146484
2227.039234,53.42828561
2227.846348,47.10195382
2228.653329,41.08139306
2229.460177,36.53680651
2230.266892,39.0051681
2231.073473,47.77565704
2231.879922,53.40114867
2232.686237,47.39359986
2233.492419,31.58547518
2234.298468,15.29481787
2235.104384,5.783336074
2235.910167,5.553819449
2236.715818,14.72363958
2237.521335,28.87428285
2238.326719,38.795177
2239.13197,39.72566966
2239.937089,36.76656797
2240.742074,36.68044714
2241.546927,39.65754362
2242.351647,41.6394865
2243.156234,39.2001182
2243.960689,31.40161894
2244.765011,21.50272361
2245.5692,15.43104121
2246.373257,15.44019337
2247.177181,18.88974494
2247.980972,24.35752233
2248.784631,33.04231324
2249.588157,44.69990439
2250.391551,58.03457041
2251.194812,72.57823204
2251.997941,78.52621508
2252.800937,84.68000711
2253.603801,91.03960811
2254.406533,97.60501808
2255.209132,104.376237
2256.011599,111.353265
2256.813934,118.5361019
2257.616136,125.9247477
2258.418206,133.5192026
2259.220144,141.3194664
2260.02195,149.3255392
2260.823624,157.537421
