Wavelength,HS_V2S2_AAB_C1_I1,HS_V2S2_AAB_C1_I2,HS_V2S2_AAB_C1_I3
351.7692476,18.18243333,59.48711973,-3.365035657
352.902517,15.58890679,49.5674903,5.755007064
354.0355789,13.20316753,40.40893183,14.14038641
355.1684331,11.02521557,32.01144432,21.79110239
356.3010798,9.0550509,24.37502776,28.70715499
357.4335191,7.292673525,17.49968215,34.88854423
358.5657509,5.738083442,11.3854075,40.33527009
359.6977753,4.391280653,6.03220381,45.04733258
360.8295924,3.252265157,1.440071072,49.02473169
361.9612023,2.321036954,-2.390990712,52.26746744
363.0926049,1.597596044,-5.46098154,54.77553981
364.2238004,1.081942427,-7.769901413,56.54894881
365.3547887,0.774076104,-9.31775033,57.58769444
366.48557,0.201808912,-7.907300417,60.11688297
367.6161443,0.252382595,-6.961963865,56.97891757
368.7465116,-7.760266934,-9.291318658,54.38743811
369.876672,-16.08146888,-10.90135502,43.38481028
371.0066255,-11.78057403,-4.899659079,40.92731581
372.1363723,-1.266749493,7.041686033,51.51995117
373.2659122,3.412085591,17.61882008,44.34526991
374.3952455,7.010726785,25.13335631,36.28041001
375.5243721,17.02084063,33.32753646,40.15308244
376.6532921,28.30563678,43.91981804,33.29498166
377.7820055,35.58942758,54.75302932,31.59048196
378.9105124,40.72089452,62.78664134,23.10229984
380.0388129,43.98503721,66.36673275,13.9842465
381.166907,44.21657558,66.46424458,12.5104628
382.2947947,45.86369146,67.64210675,0.673025791
383.4224761,53.47475757,74.14650495,7.750864622
384.5499513,62.01948922,82.95569238,16.55106837
385.6772202,63.97941119,86.88027614,13.6294653
386.8042831,61.5710009,84.58263559,13.74298872
387.9311398,61.21835463,80.11042859,4.972057478
389.0577904,61.00914757,74.47295272,1.56396795
390.1842351,54.10908087,65.2306281,2.287222527
391.3104739,42.04684321,53.0289158,0.789146775
392.4365067,32.89219398,41.63764685,0.807831454
393.5623337,26.90477491,32.04991091,3.88537658
394.6879549,18.52845025,23.09154523,5.372904846
395.8133703,10.44431105,16.56244537,2.808466699
396.9385801,9.397422279,14.80805217,9.632234759
398.0635842,11.94216554,15.0563992,10.59635659
399.1883827,8.865628268,12.37301686,14.78893784
400.3129757,1.614369556,7.069357711,14.01563149
401.4373632,1.321430761,4.398359672,8.391229698
402.5615452,9.925254242,6.49561218,26.39192332
403.6855219,16.42087497,9.092213293,36.10166914
404.8092932,14.81747871,8.159493495,34.43873772
405.9328592,10.60720858,4.963453737,33.0946945
407.05622,8.827690247,2.08089987,33.52586973
408.1793756,9.160713489,-0.007509352,31.66089546
409.3023261,11.53454932,-0.326444695,29.76303887
410.4250715,16.54380683,1.972600098,34.40749506
411.5476118,21.51102018,3.489765044,35.88168752
412.6699472,23.05862626,0.591253903,34.1349367
413.7920776,21.98199605,-3.702962829,24.39706343
414.9140032,21.08922163,-4.332217926,21.65767098
416.0357239,21.15325658,-2.404007042,17.12977497
417.1572398,21.28591402,-2.688562279,12.19406925
418.278551,20.74515683,-6.094998195,14.14483549
419.3996575,20.77290257,-8.05104255,8.220799078
420.5205593,24.78765306,-3.480099239,8.038160823
421.6412566,32.87499435,6.303832014,7.210902218
422.7617494,38.24754169,13.45375489,11.71710584
423.8820376,36.63106022,14.00189355,4.42825363
425.0021215,33.34382322,13.93979125,-6.898491145
426.1220009,33.20559627,19.68569952,3.408149139
427.241676,35.49200972,29.64941673,-2.137722927
428.3611469,40.4541956,38.91665426,8.282434378
429.4804135,45.91129656,44.93361103,28.6295222
430.5994759,45.24600922,48.07172032,21.58276178
431.7183342,37.91489198,50.19302716,20.32699034
432.8369884,29.29530002,51.03388536,26.36085825
433.9554385,21.4014134,47.93588358,27.60798616
435.0736847,15.34220153,41.95382762,26.95520001
436.191727,15.4505866,39.00330646,35.57787518
437.3095654,21.43948736,40.8965881,47.2060751
438.4271999,23.80868887,41.04872929,52.72156354
439.5446307,16.29931386,34.42418639,45.78128626
440.6618577,7.510680121,25.57192585,36.63860035
441.778881,8.93157779,20.42662353,38.20330107
442.8957007,17.12923548,17.91305982,44.20885033
444.0123169,21.83102776,16.34156175,53.11016912
445.1287295,23.47591879,18.80091295,48.31312068
446.2449386,27.53094897,25.66112873,52.45020012
447.3609443,32.0528859,30.87367372,55.13561321
448.4767466,32.89301739,30.37941435,45.54685895
449.5923455,31.43630535,27.04054263,47.26820467
450.7077412,31.97373511,25.85096197,37.7611888
451.8229337,35.26562801,28.56377174,38.21768106
452.9379229,36.80900547,33.75027617,37.45142532
454.0527091,34.65239319,41.0576083,29.15932197
455.1672921,32.90430195,51.54888167,39.54702266
456.2816721,32.8530263,62.70530396,38.74183113
457.3958491,30.75902714,69.30131633,35.10222577
458.5098232,25.35412976,70.25093502,32.27896605
459.6235944,19.17936023,69.66466926,30.35196856
460.7371628,15.79542322,71.97711413,30.88456099
461.8505284,17.99080777,77.99458364,32.5954166
462.9636912,22.63463112,83.2637268,46.07786598
464.0766514,20.64969226,81.58192768,37.50382516
465.1894089,9.840869939,73.0961521,20.50979945
466.3019639,0.798650615,65.54826008,11.09426553
467.4143163,1.545543952,64.76746166,11.92718776
468.5264662,5.723074925,68.21877287,22.52186998
469.6384136,5.129758247,70.39796836,20.45269924
470.7501587,1.424590803,68.86198272,18.34339378
471.8617014,-2.362483433,62.82803433,14.4800562
472.9730419,-6.067880398,53.35830166,16.22507945
474.0841801,-6.118831088,45.46036526,17.910321
475.1951161,-1.569939799,41.67267776,20.9237579
476.30585,0.163133319,36.67366821,20.16541733
477.4163818,-4.081452894,26.39223048,4.452154542
478.5267115,-8.338900881,16.13370284,-0.851684395
479.6368392,-9.200380326,13.06243175,-5.865728994
480.746765,-8.070706877,16.86050272,-3.89557199
481.8564889,-4.99017429,21.55493708,-0.436628823
482.966011,1.4141764,23.00115324,-3.506820471
484.0753312,11.94364733,22.85720924,1.640108741
485.1844497,25.57902413,25.52530502,5.990029435
486.2933665,38.78955829,31.98019786,17.31380696
487.4020817,49.06330381,38.60546156,27.14020917
488.5105953,57.62930173,42.1186261,30.13440681
489.6189073,64.80688483,42.07077677,31.4727983
490.7270178,67.79464849,39.03988861,24.22235052
491.8349268,67.84553728,35.29048193,18.72589839
492.9426345,69.78845681,35.03398414,16.14039324
494.0501408,71.5726459,39.01456666,22.13934808
495.1574458,68.64795488,42.93796846,23.42425709
496.2645495,64.66536123,43.70650419,17.40915393
497.3714521,62.7921363,41.70050416,27.47109752
498.4781534,58.78438265,38.28966871,27.99722543
499.5846537,51.17317707,35.46599439,23.04585003
500.6909529,42.07261396,33.48777048,26.14480881
501.7970511,30.1746534,28.52064786,14.88069723
502.9029483,16.75358623,18.90477193,-3.105199896
504.0086446,8.542043353,10.01053008,-7.313008593
505.1141401,6.161464755,6.645978943,-1.560035747
506.2194347,2.497565866,6.709443293,-5.690542492
507.3245286,-3.516656584,6.728417942,-9.363639448
508.4294218,-4.761735201,7.072822498,-6.597184162
509.5341143,1.257686987,9.365317906,-3.527202411
510.6386062,9.316892086,13.28253881,5.279311306
511.7428975,15.18792336,16.12557975,5.958192092
512.8469882,17.50934319,14.12932329,8.533904448
513.9508786,15.12711238,7.089752302,5.220462007
515.0545684,11.04644742,0.916112301,-6.114071787
516.158058,11.05820934,-0.132725841,1.46342612
517.2613472,14.52058677,0.54072376,1.474250983
518.3644361,16.5146893,0.148752509,-5.415396827
519.4673248,15.70222055,1.802847789,0.945718293
520.5700133,13.52630259,6.695719668,3.196218107
521.6725016,13.15301989,11.13662717,-1.137622369
522.7747899,17.75601581,12.53424303,7.6885061
523.8768782,24.01015099,11.55429798,14.64219156
524.9787665,24.34546079,10.20092596,8.820582895
526.0804548,17.88256776,10.36812647,9.349580367
527.1819433,13.27991624,12.47185458,6.87066168
528.2832319,18.80395675,15.16774318,9.456913883
529.3843207,31.93125055,17.00199539,22.5164757
530.4852098,43.28884876,17.78136442,25.57995954
531.5858992,47.54300426,17.55487659,23.05896803
532.6863889,45.31249781,15.28911394,19.40095045
533.7866791,41.3823278,10.50075232,16.80823959
534.8867697,42.0103366,5.208215456,16.4394478
535.9866608,48.17856657,2.284123999,13.89505527
537.0863525,55.57023114,2.126482483,10.11079927
538.1858447,59.71585634,1.793230379,8.954321919
539.2851376,57.69975628,-0.476386547,8.524999719
540.3842312,53.38117189,-0.062769937,-4.678610707
541.4831256,56.69619388,8.638937003,-4.78931117
542.5818207,68.52964202,22.7298159,6.725741479
543.6803167,79.28231154,35.56472219,6.975868054
544.7786136,84.98043547,46.35188191,14.7708961
545.8767114,88.29454044,56.19888058,25.83841714
546.9746102,89.53972258,62.95109511,27.19525653
548.07231,89.0874035,65.98811542,20.67027442
549.1698109,87.66809357,67.34383389,28.17326384
550.2671129,81.64467826,67.26909047,28.83728963
551.3642162,69.81784888,65.58505122,22.78009148
552.4611206,58.62687388,63.92696768,32.07071237
553.5578263,52.9764871,62.60766606,32.34575709
554.6543334,50.33855215,59.28288159,39.33116083
555.7506418,46.2652222,52.51153559,40.33861711
556.8467516,39.85062953,43.88164657,32.296457
557.942663,32.07371621,35.40728949,39.26735962
559.0383758,23.32631802,27.28814866,41.3895269
560.1338902,15.74686157,19.08366481,37.29289773
561.2292062,12.0413267,10.75588822,32.06047305
562.3243239,11.22723303,3.377377036,27.57727462
563.4192432,10.60678657,-0.42609238,27.4582858
564.5139644,8.342053769,-0.067627714,29.27124668
565.6084873,4.291087942,0.414137888,27.15933998
566.7028121,2.182281139,-2.327315304,18.92034048
567.7969388,6.335786146,-5.009585422,15.71726149
568.8908675,16.7741802,-0.855500231,17.94672651
569.9845981,30.62551225,11.56082226,30.21241135
571.0781308,42.62496154,25.166835,41.82726467
572.1714656,46.26158237,32.32522369,43.5764892
573.2646026,42.35974684,33.6490538,42.43767451
574.3575417,40.1994604,34.72656247,30.81868213
575.4502831,43.67543778,37.31418957,37.09629832
576.5428267,47.87366177,40.23814407,47.16894899
577.6351727,51.17838079,44.45816645,42.1175809
578.7273211,54.65956356,49.7989076,53.57015163
579.8192719,54.86248156,52.78259246,52.44697976
580.9110251,51.21339762,52.79633343,44.06229979
582.0025809,49.49615314,53.32991164,50.19891961
583.0939393,51.01148904,55.51540958,52.65959903
584.1851003,49.18494841,56.56893206,59.81756816
585.276064,39.94612593,54.25572355,52.63617927
586.3668304,28.05155017,48.61043979,39.11553372
587.4573995,20.66158423,40.83815043,41.82113261
588.5477715,20.00551705,33.33303123,36.69740868
589.6379463,22.19568041,27.47635546,38.95327304
590.727924,21.30357677,20.83078561,37.71596544
591.8177047,18.31572727,11.38537562,24.54323747
592.9072884,20.73002901,2.789746488,33.77158315
593.9966751,30.7157615,1.11460595,35.8319271
595.085865,43.18948668,6.868018672,35.21539045
596.1748579,52.35116954,11.92497925,50.79737516
597.2636541,53.98937786,8.006597079,50.40720435
598.3522535,49.11049398,-1.879320647,46.47819897
599.4406563,46.05246425,-6.980044298,50.45128748
600.5288623,50.75960049,-3.510746655,52.59839291
601.6168717,57.04484361,1.477208911,60.90714911
602.7046846,55.80632174,1.763394862,66.24359702
603.7923009,49.20733761,0.298452928,57.36261961
604.8797208,44.03488286,2.605245737,53.41766639
605.9669443,39.42136975,8.402078683,48.53763396
607.0539713,32.6162569,14.47446785,35.96807094
608.1408021,26.2221697,21.0957336,30.81011708
609.2274365,22.24530989,30.70803669,24.15654601
610.3138748,19.41235118,43.16016385,19.77501388
611.4001168,19.92492213,57.10047396,9.080254076
612.4861627,29.08672519,73.28196523,5.838163079
613.5720125,45.82088268,91.66977715,22.33555649
614.6576662,62.61613714,108.7651157,25.11143295
615.743124,75.63865516,121.7149226,30.61741787
616.8283858,86.659725,131.8072022,35.63214808
617.9134517,96.19583635,140.6700344,35.41469065
618.9983217,101.9129961,145.412323,43.54421347
620.082996,103.839641,141.8273802,37.6146849
621.1674744,104.946882,130.5672604,32.73654211
622.2517572,104.7235817,116.4056663,40.94076275
623.3358443,99.50353475,104.5698626,44.62322078
624.4197358,90.58308307,98.32909853,48.74939143
625.5034317,83.04853749,95.15194345,58.77470028
626.586932,75.96169707,87.60362112,64.92087975
627.6702369,63.39947745,72.7660883,62.7267276
628.7533464,46.55781754,56.64035414,55.56975171
629.8362605,32.56730128,44.63781999,44.74594254
630.9189792,20.61384163,33.61875295,35.27430642
632.0015027,6.334912611,20.52096324,26.57332774
633.0838309,-3.703469568,11.69606029,14.86502316
634.1659639,-2.204114233,13.46295038,15.96174574
635.2479018,3.339349928,20.29937694,19.18070687
636.3296446,3.733293226,23.23861979,15.38564327
637.4111923,4.172155075,23.82847275,11.96823688
638.492545,12.1150046,28.91468262,13.60638602
639.5737027,21.75299724,36.93270726,26.55004218
640.6546656,24.81669499,41.38944898,18.68601638
641.7354335,25.37143665,43.43557487,11.27989084
642.8160067,30.51030137,49.13069729,17.37666881
643.8963851,38.21745906,58.50336193,15.30119055
644.9765687,44.44557115,66.96208272,27.36885937
646.0565577,51.01923538,74.38834852,37.84751956
647.136352,59.85223799,85.01584111,39.07114092
648.2159518,66.74578781,98.56819397,50.10661763
649.295357,67.28434852,108.698726,57.88763244
650.3745677,64.86001415,112.1183969,55.39701658
651.453584,64.77136241,112.3730928,56.45387183
652.5324059,64.87235772,113.0018133,55.02305384
653.6110335,62.38513335,113.4318191,49.74203637
654.6894667,62.24705198,111.7109931,43.56958609
655.7677057,66.26211706,105.9926848,42.95943614
656.8457504,66.65896132,96.18576298,47.05813252
657.923601,63.23221728,87.82533691,32.82247522
659.0012575,66.37561468,86.57470599,31.15232958
660.07872,73.26175268,87.24231849,46.76200179
661.1559884,69.45379888,80.07394976,40.21590702
662.2330628,57.03455091,66.33670202,29.23745818
663.3099433,50.59151717,55.14433669,23.321293
664.3866299,51.44280681,49.23632695,20.52331993
665.4631227,51.39846475,44.35310435,17.37981866
666.5394216,50.02937113,38.39089583,13.2455088
667.6155269,51.20153354,33.55993874,19.85836369
668.6914384,53.78027586,31.55027012,21.32869307
669.7671563,53.56173112,30.89035142,30.72750559
670.8426806,48.86978965,28.79792868,36.87074198
671.9180114,43.15365208,24.12460856,32.80499739
672.9931486,40.22950832,18.15417242,35.89628094
674.0680924,37.5790384,13.31856209,37.74183363
675.1428427,32.24761312,12.05677699,45.84949051
676.2173997,28.06701076,15.211443,48.08511785
677.2917633,27.55813345,19.80651264,56.43800153
678.3659337,27.2867244,21.7009448,66.31813234
679.4399109,27.01642586,22.06309528,69.70253914
680.5136948,29.0211537,24.86178638,78.07433298
681.5872856,27.87418112,28.0727968,81.72088113
682.6606834,17.33446401,27.55426225,76.50872147
683.7338881,5.241837146,27.80487943,62.23897574
684.8068997,4.568338262,36.99696255,70.26093587
685.8797185,13.20859026,54.44898175,81.09422233
686.9523443,19.40428492,71.9689279,79.6283808
688.0247773,20.41181029,83.407621,79.39676937
689.0970174,22.0030468,89.81755247,64.74841922
690.1690648,28.29021126,97.43625988,57.36437105
691.2409195,37.28930291,107.8919982,59.63317959
692.3125815,41.37343597,113.9123112,57.47707966
693.3840508,37.03118357,110.7405461,46.24319136
694.4553276,31.40931606,103.1194201,36.99541746
695.5264119,30.26442279,95.88599613,35.30510645
696.5973036,30.42438813,88.78851288,22.79358114
697.6680029,29.7501565,83.04679241,21.08326504
698.7385099,29.88102333,82.13125278,23.01693417
699.8088244,29.31494265,84.23737969,23.91036156
700.8789467,25.85788085,82.04550441,31.65896289
701.9488767,22.11616199,71.95050949,21.42157397
703.0186145,21.39807091,57.83338253,19.60739849
704.0881601,23.40035686,45.2809553,20.56755272
705.1575136,27.62930323,36.90542273,10.86818512
706.226675,34.57916914,31.4269582,12.80444367
707.2956444,41.93491542,25.14426911,8.901681766
708.3644218,47.21406141,17.57066099,2.476758127
709.4330073,52.91376268,13.40213613,5.947561617
710.5014009,61.49884034,15.56872237,5.609904618
711.5696026,69.43668346,20.88541847,1.087000324
712.6376126,72.92084267,24.09133238,2.260340487
713.7054308,74.67167423,23.46792573,3.049084391
714.7730573,78.9938514,22.76881434,2.08006895
715.8404921,83.38516939,25.05733276,11.79587328
716.9077353,81.40233137,25.54015538,21.57810281
717.974787,73.29188315,18.67196545,8.464265414
719.0416471,65.78571333,8.139761551,4.656110088
720.1083157,61.28620121,0.990769814,13.9457313
721.1747929,56.42430169,-1.098845265,10.54699599
722.2410788,49.01029095,-0.354446489,24.74315103
723.3071733,39.23365416,0.288773713,36.66899986
724.3730765,28.22342579,-1.455046219,34.96971557
725.4387884,17.78237089,-5.562278473,41.10366159
726.5043092,9.411005617,-9.713828395,47.03052673
727.5696387,4.721454922,-10.93019683,48.24392732
728.6347772,4.718508319,-8.247142956,56.65546724
729.6997246,8.323786924,-4.122655994,66.91141294
730.764481,13.64203104,-1.814143917,67.32013956
731.8290465,16.76299283,-2.698200892,78.2984026
732.893421,12.80889465,-5.615959762,72.54723524
733.9576046,4.23874453,-6.845154089,62.68387049
735.0215973,-1.065982438,-3.356604798,67.1620987
736.0853993,-1.327589183,3.640740063,55.77753575
737.1490106,0.343852579,11.2660731,56.17102383
738.2124311,3.340328197,18.35423366,64.95635707
739.275661,7.275056985,23.70944046,66.98787537
740.3387003,8.859819353,24.40239946,63.95886281
741.401549,7.017814243,19.4044772,51.30946011
742.4642072,7.731091522,13.79934203,38.58549466
743.5266749,16.79826135,14.23878117,29.39156716
744.5889522,28.36521341,19.94151951,35.71513722
745.6510392,31.28886639,24.86010426,36.74463134
746.7129358,25.83590621,27.13934502,28.72869234
747.7746421,21.42297996,28.55517372,33.63499915
748.8361581,22.2974619,29.10796539,25.05797681
749.897484,26.05770393,28.94727486,16.66885326
750.9586197,30.26960667,30.10312366,19.1300498
752.0195653,36.29843779,33.45250321,10.87221497
753.0803208,47.57221331,38.7697972,5.770270845
754.1408863,62.4359311,46.93273378,14.01913591
755.2012619,74.53056579,57.79232512,18.38340531
756.2614475,80.59888314,67.50255736,20.48963038
757.3214432,81.79759449,72.81386423,21.78864318
758.3812492,82.71670299,76.8176267,7.388685048
759.4408653,88.08442421,84.15247274,14.30395518
760.5002916,95.2974126,92.61047824,27.0250662
761.5595283,98.53337252,96.64487748,21.79948737
762.6185753,97.06112636,95.18000828,28.00489606
763.6774327,90.99354221,90.22816526,21.44102037
764.7361006,79.89329428,82.14406565,8.851558959
765.7945789,68.05879124,70.25227792,14.35001511
766.8528678,60.46694925,56.76032733,14.34479332
767.9109672,56.69892062,46.46746135,18.67198168
768.9688772,54.23476455,41.21101548,35.5959569
770.0265979,52.15864311,38.44061454,42.73003726
771.0841294,48.7043647,35.13091052,57.72076219
772.1414715,41.98122617,29.43706812,79.29252472
773.1986245,36.54513878,22.10208683,81.22225684
774.2555883,40.29945926,17.89054749,84.66997506
775.312363,52.21587226,20.44423808,107.7526307
776.3689486,63.32518432,27.00904028,121.8587141
777.4253452,69.32748885,32.127514,134.1980086
778.4815529,73.02107729,34.5151631,150.4112201
779.5375716,77.64714968,38.00273237,151.9878122
780.5934014,83.83502906,44.71505164,158.7637014
781.6490423,89.93141991,50.81573407,165.5936079
782.7044945,93.93585864,53.61221993,162.5279917
783.7597579,95.8559354,56.07311786,151.2596268
784.8148327,95.67828699,59.2746586,145.7251431
785.8697187,92.48031576,60.85472191,132.0989185
786.9244161,88.84720291,63.49236285,108.1620976
787.978925,87.93474168,72.10954765,101.4302017
789.0332454,86.04160115,83.05881179,89.30215588
790.0873772,78.2487954,87.4623818,78.25078299
791.1413206,68.21443596,83.43170285,68.88840389
792.1950757,64.42423813,78.16304897,52.07412041
793.2486423,69.17748255,79.49736227,48.4731425
794.3020207,76.78348108,88.29851853,47.81244544
795.3552108,80.57603445,98.21947161,42.91921512
796.4082127,77.07993746,101.9012926,47.95692859
797.4610265,68.96917206,98.60346038,41.75082448
798.5136521,64.54118249,94.663088,25.28097212
799.5660896,65.94845342,94.04913479,33.10615109
800.6183391,64.8506195,92.21595662,43.27629072
801.6704006,55.70978646,82.77622915,37.47826721
802.7222742,43.29276076,66.58931462,33.85508896
803.7739599,35.84630396,51.52117432,25.14130649
804.8254577,35.29659222,43.41634092,20.63490658
805.8767677,34.34731182,39.11306802,30.18476493
806.9278899,26.94864545,33.58903245,21.06625421
807.9788245,17.24633916,29.9640579,10.67874302
809.0295713,12.1656825,32.64372117,12.23880042
810.0801305,12.95595849,38.15631843,10.00816187
811.1305021,16.73151643,42.97149236,14.64935259
812.1806862,21.18959698,49.9380677,16.62661497
813.2306828,24.88573708,58.52796956,20.78035944
814.2804919,22.47843067,59.93773401,28.69063859
815.3301136,10.41544604,50.23639788,14.36578168
816.379548,-0.829198249,39.51936774,1.062568689
817.428795,1.840691139,41.00098139,13.17241794
818.4778548,13.97461746,56.8893911,25.68231613
819.5267273,23.25921172,78.88017724,40.75238377
820.5754126,28.62758535,97.63557426,58.58502448
821.6239108,35.46296093,108.9697752,66.78768403
822.6722219,42.97710658,113.5858559,75.67469412
823.720346,45.26769543,114.0273865,79.51469695
824.768283,41.48761372,112.7111399,81.42991683
825.8160331,38.90983299,111.360177,86.42894695
826.8635963,41.64764619,110.9146441,89.7034026
827.9109725,44.60627828,112.0649179,89.49652308
828.958162,43.85842265,114.5110159,84.86992402
830.0051647,41.44506747,115.7127498,81.48358845
831.0519806,40.79325207,115.0290654,72.61573636
832.0986098,46.46849725,118.2295458,66.70678756
833.1450524,58.52578741,129.2497799,77.54453362
834.1913083,66.66116824,140.1057999,82.39186131
835.2373777,64.1281355,140.0782724,65.49785923
836.2832606,57.9429703,129.5035339,50.3043139
837.328957,53.91259087,114.4088099,35.78539223
838.3744669,46.82584613,96.57512811,20.07929071
839.4197905,34.43148906,77.98554575,3.099393443
840.4649277,26.35703985,65.67978336,-15.75512491
841.5098787,29.40050195,64.80032497,-5.951598798
842.5546433,37.54241725,73.58475014,1.033088485
843.5992218,44.58422326,86.75513001,3.259176696
844.6436141,51.17248809,97.56586299,17.10842489
845.6878203,55.9548722,100.0975535,13.37386142
846.7318404,54.92166577,95.68823208,4.212037066
847.7756744,49.02174847,92.1279705,5.973682363
848.8193225,42.95535423,92.99957457,10.48642261
849.8627846,38.83194084,93.37607833,16.01467348
850.9060608,36.06156794,88.66650996,20.67190596
851.9491512,34.26392617,82.09334452,13.71760934
852.9920557,32.21848514,79.50559535,16.50499665
854.0347745,28.58040586,81.42761078,18.35821407
855.0773075,25.68640718,84.34896192,20.6874735
856.1196549,26.56239679,86.44735227,32.52211242
857.1618166,28.93199925,87.99720208,34.88610339
858.2037927,26.31004078,87.52008671,37.42460127
859.2455833,16.45080862,82.59649173,22.84752153
860.2871883,7.306557436,74.61236086,16.41384715
861.3286079,6.010812584,66.49285414,22.69590292
862.3698421,5.546134832,57.60214939,14.88271972
863.4108909,-2.403102685,47.43630677,15.26327322
864.4517544,-10.62937104,39.83647448,13.0453418
865.4924326,-9.916371916,37.48760569,17.97787061
866.5329255,-4.61414215,37.37864392,27.80970023
867.5732333,-0.487938039,36.18564047,23.98275809
868.6133559,4.252178016,34.93847513,29.08455287
869.6532933,9.48583587,35.64795973,29.97388751
870.6930457,11.94098595,38.03651385,30.20894719
871.7326131,11.91342866,40.07269765,36.04219551
872.7719955,11.58071998,38.33893462,42.05867043
873.811193,11.70183611,30.58282646,46.44803769
874.8502055,12.12548717,20.31593927,33.13773906
875.8890333,11.64286167,13.8391349,28.81791561
876.9276762,9.602563094,12.50052734,29.11992869
877.9661343,7.981952077,13.26586365,24.82436403
879.0044077,7.888007285,13.88078334,28.1318923
880.0424965,7.971900179,13.65453326,29.15982991
881.0804006,9.479579468,13.68861051,26.46526492
882.1181201,14.53566478,16.23364063,29.00812398
883.1556551,17.78085334,20.34183289,38.22004509
884.1930056,13.04225384,22.81148205,38.88468929
885.2301717,7.321315794,24.22350583,44.82527924
886.2671533,9.830697873,26.35081777,54.19772465
887.3039505,14.84331646,26.98479158,57.93220424
888.3405634,15.11326934,25.04598587,65.19611473
889.3769921,16.4603164,24.19633723,61.03551992
890.4132365,24.1925607,26.18153281,56.78998088
891.4492967,33.06357392,27.67066478,64.21559755
892.4851727,37.16137435,26.98013317,62.50805736
893.5208646,37.78474139,28.3181498,56.39264215
894.5563725,40.15624415,34.90378921,55.91977493
895.5916964,44.63206979,41.47878175,58.33317007
896.6268362,45.30776935,40.78906015,57.0136279
897.6617922,41.02631491,34.7318462,45.26397312
898.6965642,36.9373975,30.37734323,35.47687192
899.7311524,32.53136385,28.30417385,23.79952105
900.7655568,24.15949487,24.15224443,17.68871115
901.7997774,17.38011755,18.50433377,12.00782974
902.8338143,17.29811245,15.13169054,2.854658535
903.8676675,14.64645565,12.29876098,9.398429789
904.9013371,3.710487901,7.627092453,-4.401812933
905.9348231,-3.363911857,6.633402698,-11.70411366
906.9681256,-0.99797593,12.9751767,11.45228128
908.0012446,0.131535443,19.39614757,12.24473057
909.0341801,-0.328547497,20.72378149,14.46586936
910.0669322,8.915598707,23.22211851,32.99400558
911.0995009,25.53918109,32.2066627,51.94689409
912.1318863,38.65746843,43.57679561,66.23553177
913.1640883,49.61250876,52.13458424,63.31207668
914.1961072,63.9260913,57.53680016,69.64504641
915.2279429,77.75805549,61.71715238,75.41469999
916.2595954,86.8656061,66.9322365,73.70442151
917.2910647,93.42742203,73.95160535,81.88901222
918.3223511,99.56900892,80.24864632,86.04550892
919.3534543,103.5780324,81.97111288,88.488417
920.3843747,101.5238846,77.21923527,89.18230445
921.415112,94.21429084,68.65128422,82.03656299
922.4456665,89.48136284,62.026678,66.75111948
923.4760381,87.96492702,58.42318835,70.46862059
924.5062269,79.86199002,53.4000682,71.64661775
925.5362329,64.404789,46.94336305,52.12001415
926.5660562,50.31418135,42.73047354,49.03018933
927.5956968,36.06189014,36.98173462,41.53860046
928.6251548,16.52473106,24.30286576,26.72333164
929.6544302,1.895429797,12.331383,11.64935917
930.683523,2.480986484,11.40982723,15.60801029
931.7124333,7.868607935,15.4037294,31.01551804
932.7411612,5.570488959,12.89043519,15.47877057
933.7697066,1.049027216,7.449350783,15.48052985
934.7980697,2.281032847,9.206455944,23.39945662
935.8262504,7.218635373,18.24331399,14.31949664
936.8542488,13.46331982,27.8273828,22.43551349
937.8820649,21.98987524,34.28455966,23.16616137
938.9096989,30.38329067,37.92911532,25.34881022
939.9371506,31.88585671,39.01332192,37.64563978
940.9644203,25.14911187,37.16583678,29.02544163
941.9915079,20.19149114,34.88314726,31.03189429
943.0184134,25.36493573,37.37109864,46.80090648
944.0451369,35.43832656,46.20448955,52.60905105
945.0716785,41.7387913,55.98244345,63.7320247
946.0980382,44.36215447,61.08275157,73.50414044
947.124216,47.23901283,62.77319422,73.06814415
948.1502119,48.0097915,64.11318547,81.70125274
949.1760261,41.2004099,63.9013813,82.85770274
950.2016586,30.23296974,62.87920786,73.56497412
951.2271093,25.94217623,66.20212553,82.43900954
952.2523784,31.56432093,73.9367787,94.49374649
953.2774659,39.49225511,79.73637945,100.3361595
954.3023718,42.45448201,79.53314984,103.5625151
955.3270962,38.04900474,73.18651708,99.75263343
956.3516391,28.38761024,64.34068439,86.16974504
957.3760006,23.78499255,62.99738166,74.13905518
958.4001806,33.24875975,75.88833374,89.64525228
959.4241793,48.00272381,94.72274454,114.9791491
960.4479967,54.53276168,107.4590102,121.7054609
961.4716329,57.90937404,115.1986238,130.2883067
962.4950878,68.18034532,124.9033409,145.1738778
963.5183615,76.10984097,134.1551045,158.6871747
964.541454,69.1390397,136.1575042,164.3449444
965.5643655,59.46545339,133.8944664,150.7510307
966.5870959,66.91986073,137.4634214,158.9575408
967.6096453,85.34743764,149.2875476,182.5802272
968.6320137,95.8176465,161.1177942,188.0533815
969.6542011,97.32955178,165.3361102,195.2774298
970.6762077,99.6296543,162.4588499,189.5897103
971.6980335,103.4476596,156.5493705,175.6072799
972.7196784,102.6933617,148.3039233,169.8610396
973.7411426,95.90678167,137.582724,158.6738179
974.762426,90.62041126,129.5366761,145.8779457
975.7835288,94.36542111,128.8844167,136.2914044
976.804451,100.7196972,129.7505115,127.4797689
977.8251925,95.16339843,121.2027217,109.9160624
978.8457535,76.33465379,101.6001668,84.82984758
979.866134,58.11377648,80.43013999,52.90830418
980.886334,51.9134016,68.63494122,36.42702848
981.9063536,57.58591664,70.03108167,34.80941763
982.9261929,65.52692518,77.17747712,37.37555775
983.9458517,64.70987317,77.17774442,46.85215338
984.9653303,58.78888087,68.67061073,26.7237998
985.9846287,62.4175016,63.85563834,23.32340433
987.0037468,71.70066814,65.85796921,48.02513058
988.0226847,68.23002149,62.73672345,45.24289004
989.0414426,57.50643001,51.16194593,35.55981435
990.0600203,62.06695214,43.60798852,52.06742578
991.078418,80.7978587,48.19433786,77.70189167
992.0966357,94.71457029,59.68314925,94.02591955
993.1146734,98.63595507,69.2699043,117.8459744
994.1325312,99.44302771,71.46158468,124.0510955
995.1502092,100.6509112,64.34366432,122.7951862
996.1677073,100.7349405,49.93413177,130.1510557
997.1850256,96.03467752,34.01053409,123.3237402
998.2021641,86.55358154,23.79932514,118.2939189
999.219123,78.90686982,23.66749752,110.9218048
1000.235902,75.20266928,30.46589296,106.2235535
1001.252502,67.49179763,35.70840093,99.98619267
1002.268922,52.25445593,35.4983596,80.29957671
1003.285162,37.53303924,33.91272632,67.59485859
1004.301223,29.88854673,35.5663748,49.6316732
1005.317105,26.46765558,41.26489309,42.9139715
1006.332807,21.59585172,48.92181775,37.22271506
1007.348329,12.37080828,53.19175055,26.01928633
1008.363673,1.114095635,50.93243809,22.51671933
1009.378837,-3.5078426,49.06027968,-2.062490226
1010.393822,1.779989185,55.19608861,6.639198959
1011.408627,7.377717613,64.90142315,13.02141414
1012.423254,11.57384171,72.33319606,-9.428277543
1013.437701,26.37801454,80.84511638,11.89817219
1014.45197,47.6054221,91.04447281,36.85883588
1015.466059,56.20786928,96.12343637,36.09845102
1016.479969,52.84127912,94.33701605,33.1726897
1017.4937,52.60081312,89.04936186,42.73276424
1018.507253,58.0075055,79.74901374,46.4245006
1019.520626,65.41782248,66.710638,44.11886792
1020.533821,75.33630688,56.48278631,51.64900472
1021.546837,84.61991333,54.55083575,60.48884927
1022.559674,91.99598065,60.79174936,70.80024944
1023.572333,105.37592,72.2463139,76.7525923
1024.584812,124.134887,82.39722741,96.75939412
1025.597114,133.8275564,84.55900003,108.0172402
1026.609236,131.7054855,81.35686962,102.0281634
1027.62118,130.6938815,80.39710768,118.9692487
1028.632946,134.8447556,81.43585318,128.4281849
1029.644533,136.842003,78.82778899,126.2333015
1030.655942,132.6815376,71.17300349,120.295863
1031.667172,123.386616,62.34368375,113.1354677
1032.678224,115.201733,58.64810475,103.5252217
1033.689098,115.9493914,62.51549308,94.00151246
1034.699793,119.9926318,66.41894947,104.5382622
1035.710311,115.6160129,62.48665237,85.91118279
1036.72065,106.3035239,54.73857938,70.47722728
1037.730811,97.42548907,49.79575279,81.53768711
1038.740794,80.95339901,45.87321485,65.08818796
1039.750599,58.37703896,41.30029491,41.74180767
1040.760225,46.83408866,39.53991097,33.24730811
1041.769674,48.78856762,39.88545608,42.65147526
1042.778945,49.40813882,37.86129652,42.64868016
1043.788039,44.06686395,35.04786398,35.79044917
1044.796954,40.02128852,36.01908855,47.43095447
1045.805692,39.68812202,39.78016637,52.11920548
1046.814251,41.10122743,42.19919433,49.73608025
1047.822633,43.07413911,40.55297395,45.07798185
1048.830838,42.40950825,33.40910319,40.51584657
1049.838865,38.78623071,23.37246298,33.07526649
1050.846714,40.51729866,18.69965054,25.64345761
1051.854386,53.56997506,25.25586018,34.01911931
1052.86188,73.43731709,39.93575371,33.13794342
1053.869197,94.22202132,57.18069716,21.4934258
1054.876336,115.2339255,77.28762708,17.54875573
1055.883298,141.3709597,104.4028429,15.85481091
1056.890082,179.5672295,138.7291077,11.925535
1057.89669,226.0934959,173.4657776,14.15846294
1058.90312,269.8779352,203.1440135,5.891704261
1059.909373,313.9301644,233.2477077,0.741245063
1060.915448,368.7005989,273.6657387,18.41617644
1061.921347,429.4243191,324.9537427,21.0273812
1062.927068,486.9357571,378.7102244,30.36684178
1063.932613,545.3680981,427.8376855,42.85848838
1064.93798,606.9425907,470.4114161,59.07090614
1065.943171,659.5797892,506.4979509,79.99699654
1066.948184,694.1856242,535.8656231,75.5631805
1067.953021,714.6531505,557.3409458,88.25085039
1068.957681,726.3378825,568.6379913,86.66016444
1069.962164,728.4358808,567.0961708,76.0755708
1070.96647,715.0204002,549.9781054,81.37820904
1071.9706,682.5504088,517.511099,59.61311368
1072.974553,637.1546206,476.0453909,45.80956258
1073.978329,584.8127048,432.6423499,41.7533612
1074.981929,524.8585329,390.6449301,33.05322946
1075.985352,463.0146784,352.5549429,29.11222599
1076.988598,407.700886,317.2081376,31.51585415
1077.991668,351.581786,276.6639097,37.06119185
1078.994562,285.7852189,227.0584484,27.303959
1079.99728,222.259691,176.5732195,22.14731988
1080.99982,174.4676725,134.7677104,28.36146155
1082.002185,137.3667185,102.7953424,35.55222146
1083.004374,104.5986073,78.40796486,55.52910367
1084.006386,79.2519134,61.69082302,88.16255149
1085.008222,63.18646507,53.86326768,98.73287077
1086.009882,55.19684695,54.74048213,101.1116114
1087.011365,54.75857802,62.25999923,129.5657316
1088.012673,60.91642638,75.50236493,141.5203841
1089.013805,71.7404694,95.16260709,151.832921
1090.01476,82.66748624,118.1030753,163.2163722
1091.01554,87.11932103,137.7041064,157.6193288
1092.016144,83.5513925,151.3291875,165.2511076
1093.016572,78.63132449,161.7241805,150.4674903
1094.016824,78.18366515,171.0821937,145.4474207
1095.016901,78.82607048,178.6113786,151.6821167
1096.016801,77.06431548,185.1943856,134.3497894
1097.016526,76.92640132,193.1771828,138.0858897
1098.016076,78.30293371,199.0698895,139.0228687
1099.015449,74.84327014,196.6370308,135.2677991
1100.014648,66.95289006,186.457506,121.7752567
1101.01367,57.81426409,171.8919055,107.2109049
1102.012517,45.98330303,152.4904879,99.1429494
1103.011189,37.28659333,131.513578,70.4686205
1104.009685,43.60598829,119.4298846,67.51840591
1105.008006,61.55107801,120.9723493,75.90815927
1106.006152,75.27667369,127.9976352,85.97445438
1107.004122,79.70297618,129.6002031,104.6942871
1108.001917,81.84392313,122.809196,99.88709365
1108.999537,84.75497801,112.6046467,92.39551277
1109.996982,84.83861653,105.3698845,90.54450638
1110.994251,82.63149101,103.2284744,90.68508961
1111.991346,83.3524948,102.9021355,91.12117801
1112.988265,83.68559082,98.15668848,90.48072052
1113.98501,72.79496817,85.99193417,83.26735407
1114.981579,52.53221128,72.32440539,58.6339688
1115.977974,39.5502323,66.81173013,50.91362393
1116.974193,42.51565663,71.18723357,52.65132165
1117.970238,52.19919097,77.87487019,46.10203792
1118.966108,56.32336177,79.99970842,45.98161126
1119.961804,55.54319213,78.88216805,36.41218305
1120.957324,59.51656207,79.87959662,28.74253251
1121.95267,69.83996914,84.15678447,30.64836445
1122.947841,81.70432882,91.33392562,30.54149817
1123.942838,100.5018591,106.0745497,35.97499002
1124.93766,135.2640593,131.7566206,66.4486064
1125.932308,181.5464545,163.9921947,111.7314293
1126.926781,229.1558784,199.6012177,158.591211
1127.921079,276.360054,242.4724599,231.3143668
1128.915204,327.267465,294.7755461,310.2685454
1129.909154,385.7832527,352.7957373,389.3573329
1130.902929,452.4457438,412.3311872,481.4071952
1131.896531,520.0297949,469.6642019,564.1641856
1132.889958,578.3431783,520.8053896,634.9492217
1133.883211,628.137394,565.3685997,692.2664892
1134.876289,678.4485821,605.2746749,745.5445388
1135.869194,725.8117814,637.3327493,797.2102022
1136.861924,754.2041068,654.499752,820.0291412
1137.854481,759.9300256,655.6671708,814.8304481
1138.846864,757.2137821,646.8114151,795.1332758
1139.839072,755.5376152,630.4317314,772.2105197
1140.831107,745.68179,599.9053118,730.7652774
1141.822968,712.6236353,548.9411726,652.11308
1142.814655,657.2740218,484.308357,565.6995518
1143.806168,599.8046688,423.7101324,484.9288873
1144.797507,556.0585011,377.3247422,417.5255599
1145.788673,516.0912396,335.1779315,362.6861437
1146.779665,460.6489093,281.8982788,290.8910237
1147.770483,392.4711917,220.0969663,211.4848511
1148.761128,329.7957204,165.7540246,160.5485341
1149.751599,276.751302,125.3616172,128.3405453
1150.741897,224.6177688,92.51356438,93.53135782
1151.732021,175.2670327,63.21265736,63.64507135
1152.721972,140.0059858,42.56528052,46.53583655
1153.71175,120.0131682,36.43304713,51.22903238
1154.701354,107.8747357,42.0989479,60.00832419
1155.690785,101.5623753,50.21807235,76.1889783
1156.680042,101.9362348,56.89798918,96.97621846
1157.669126,107.2738944,69.0313174,111.9904491
1158.658037,116.2808324,91.72908807,151.9877816
1159.646775,127.298968,117.5258123,186.0004105
1160.63534,136.9300405,136.2129925,205.7553582
1161.623732,142.7698774,146.5969492,233.5411532
1162.611951,145.3296896,151.9917709,243.5201418
1163.599996,146.0233156,152.1306984,246.1762377
1164.587869,142.3313594,145.0287265,246.2579414
1165.575569,132.5585763,134.1797861,232.7321626
1166.563096,125.0902734,128.6709867,236.1375623
1167.55045,128.8886157,133.410126,248.1189949
1168.537632,137.3287734,141.307377,252.27405
1169.52464,132.8022655,138.1976854,249.2972556
1170.511476,109.014703,119.3519898,221.3126599
1171.498139,82.30753481,98.3171939,183.1387889
1172.48463,68.90396192,88.76867594,164.152879
1173.470948,61.26870399,84.30800306,155.625515
1174.457093,48.58735649,72.54074218,121.9098827
1175.443066,38.73638793,56.7985219,92.12833405
1176.428867,37.16531405,46.90839904,88.25829699
1177.414495,37.79972584,44.30964944,72.26915508
1178.399951,47.41825588,48.22448927,55.30675178
1179.385234,75.99117641,60.19623567,72.49084135
1180.370345,107.1613768,77.93766949,88.74355328
1181.355283,121.5079096,96.47731723,85.45525189
1182.34005,129.1263014,113.2104925,92.74784586
1183.324644,147.1862165,127.4001061,87.66645727
1184.309066,172.956208,140.4465833,96.9946348
1185.293316,198.1562768,156.3252261,112.0164362
1186.277394,222.9482583,175.7224485,120.2437053
1187.2613,243.906806,191.8458602,154.071508
1188.245034,253.2014191,198.9841394,150.7423989
1189.228596,255.6520683,201.4319295,151.6153359
1190.211986,262.1262491,205.492686,180.3658735
1191.195204,268.5879439,208.8593329,186.6512962
1192.17825,263.4213233,205.6137869,195.2682088
1193.161125,247.3249742,195.1322982,191.1612893
1194.143827,230.8807084,181.0838252,187.1268233
1195.126358,218.0177033,164.4123335,194.1336876
1196.108718,201.5119599,141.7836574,194.9694103
1197.090905,177.6158523,114.5240397,189.863446
1198.072921,155.398362,92.09796043,164.6760268
1199.054766,141.9096608,79.04485014,154.2556908
1200.036439,132.8803138,69.35087653,151.9894574
1201.01794,127.581725,61.13984659,140.2277271
1201.99927,131.0163876,61.52150093,152.1348539
1202.980429,137.1946118,71.08661982,166.9718059
1203.961416,134.6117553,80.1748884,175.7012068
1204.942232,127.3718732,84.7895428,174.3365169
1205.922877,131.5245631,93.40576333,172.9255076
1206.90335,154.315997,115.3329868,195.2605716
1207.883652,188.4570257,149.210102,221.9605848
1208.863783,219.5649754,183.1387178,250.2134352
1209.843743,232.8062943,203.7276826,268.387594
1210.823532,224.5309142,208.1044461,253.1277576
1211.80315,211.3705494,206.9304042,223.2133663
1212.782596,212.3013091,211.1203796,228.4889898
1213.761872,223.1930675,219.3823032,235.9189697
1214.740977,225.219086,223.4048218,217.413257
1215.719911,212.1370135,219.536034,213.5539474
1216.698674,194.8250767,211.1745066,203.0735052
1217.677266,182.001381,201.7517793,199.6816199
1218.655688,167.5407012,188.3833581,203.5680838
1219.633938,142.983016,167.5802691,178.4199885
1220.612018,114.3302539,144.7262651,151.3476543
1221.589928,94.25150739,128.4124792,135.9566979
1222.567667,86.49628667,119.9718759,135.003845
1223.545235,88.28364578,116.776892,139.3551256
1224.522632,94.3373625,117.1229907,147.193742
1225.499859,94.51245708,117.3005717,167.2476101
1226.476916,85.75082112,114.6679616,172.1124283
1227.453802,81.56209873,113.7426135,178.8368193
1228.430518,91.85997331,119.8781366,192.2697244
1229.407064,108.6038535,131.0359067,198.9749489
1230.383439,122.9738111,141.6666492,210.7229152
1231.359644,134.4822242,148.0169157,207.9051444
1232.335678,139.1352899,146.7661785,200.6783705
1233.311543,131.277515,135.8977369,179.5137667
1234.287237,117.1249324,119.5474117,149.7216706
1235.262761,109.3645836,106.4415843,134.8644099
1236.238115,110.0497716,100.9713057,119.633776
1237.2133,110.9762553,99.80319339,104.9320622
1238.188314,107.6503305,98.50107194,89.71573436
1239.163158,102.7126117,97.46301863,83.27565408
1240.137832,99.35906965,99.46920212,77.61190219
1241.112336,97.95450711,102.5982226,71.32288015
1242.086671,94.8575585,98.60234577,63.69437773
1243.060836,84.90480337,82.94300365,39.77344396
1244.034831,69.18191879,63.80093855,10.09467793
1245.008656,55.50033756,53.71629618,-0.874061116
1245.982311,51.00743409,56.47634548,0.837452293
1246.955797,56.42379212,67.28541594,-8.629771525
1247.929113,61.61028826,77.98117446,3.033595502
1248.90226,53.95196302,82.23096756,15.20741009
1249.875237,39.47916178,83.78349741,-1.313496676
1250.848045,37.1096511,92.73068675,1.112691101
1251.820683,47.14940491,109.0068557,18.73168734
1252.793152,52.72930735,122.0892361,34.39671721
1253.765451,51.09472643,128.2048281,43.59276679
1254.737582,53.55747369,133.2577229,46.81484967
1255.709542,61.30740564,140.2656143,64.42426005
1256.681334,69.01097758,148.6142527,74.45607132
1257.652956,79.83743665,160.2850865,79.97430499
1258.624409,94.01905398,173.0015232,103.9398856
1259.595693,101.8477478,178.363735,106.6359815
1260.566808,103.7018836,177.5420293,100.6747973
1261.537754,111.8517084,182.2770371,121.1704965
1262.508531,127.1619136,194.771007,135.6386642
1263.479139,139.9135185,203.435165,147.5624164
1264.449577,147.2478569,199.2402106,146.5653282
1265.419847,148.8021205,184.2655022,129.8151687
1266.389948,140.1857928,166.133337,120.9830596
1267.359881,125.2662269,151.3047514,106.4685747
1268.329644,118.8445829,143.4992848,109.2482116
1269.299239,127.8028269,143.7701015,115.4038607
1270.268665,140.3423218,147.8479131,118.8837507
1271.237922,140.7531812,146.444868,125.1790714
1272.207011,128.9608135,134.8600366,111.8310387
1273.175931,117.0694749,119.3108652,106.5365927
1274.144682,110.9142559,107.5462931,111.5796598
1275.113265,105.94212,97.70847315,115.1041231
1276.08168,98.85986607,83.27385967,112.2332101
1277.049926,94.72372899,65.99865072,105.3651636
1278.018003,100.3924025,56.34277021,106.790557
1278.985912,114.8648236,60.78556829,128.5301954
1279.953653,131.6025297,73.81614291,144.8037625
1280.921226,143.4030817,81.47010318,147.8104107
1281.88863,141.4435783,73.17136298,162.4683118
1282.855866,127.6238226,55.79611106,144.3796978
1283.822934,121.1917332,48.2212964,142.6073367
1284.789834,128.0159712,54.59677884,172.7678009
1285.756566,127.9983488,60.05508397,165.107344
1286.723129,114.5460404,57.49952418,151.9810716
1287.689525,106.4093099,55.84355583,141.9144435
1288.655752,108.7623896,60.90423438,140.8804786
1289.621812,108.4980079,70.15596997,142.4626206
1290.587704,108.4023829,83.99647896,137.7002098
1291.553428,120.6798558,104.70749,154.6699912
1292.518984,136.3634314,128.0653639,169.2519939
1293.484372,140.9421361,148.2244218,161.0646396
1294.449592,140.1627356,165.5452067,153.1693472
1295.414645,140.1153659,181.155838,162.4514677
1296.37953,132.113272,191.6015771,153.5372396
1297.344247,116.010708,195.8210639,128.3318575
1298.308797,106.9291266,199.7152614,116.0717965
1299.27318,113.1764335,209.0050698,113.4329215
1300.237394,127.6057479,222.187563,133.1061078
1301.201441,138.098694,233.4257953,152.4283445
1302.165321,142.3275498,240.6793271,160.4485193
1303.129034,148.8909554,245.3559864,158.6958798
1304.092578,155.8658776,243.4530422,161.9291934
1305.055956,148.5581215,228.8792881,166.40133
1306.019166,131.2097134,207.6745862,147.9918744
1306.982209,124.1599774,191.9151313,152.5289499
1307.945085,123.8566704,179.614771,155.2130504
1308.907794,113.0812849,161.6292474,134.5918198
1309.870335,100.8071148,141.8229305,126.1267163
1310.83271,102.2397555,127.5509387,130.1336903
1311.794917,103.9346027,113.1107706,129.5856321
1312.756957,91.60202734,92.63886529,109.5051852
1313.718831,77.91511531,72.2124898,93.30036275
1314.680537,73.51487371,57.11730089,94.5282361
1315.642076,70.59004709,45.75384288,82.06665309
1316.603449,66.3968807,38.20844545,59.58361461
1317.564654,63.9557704,33.86902371,60.95054228
1318.525693,58.21080428,27.80742073,45.62628236
1319.486565,51.67849279,22.1330257,16.75835274
1320.447271,57.80947549,26.28016031,17.0723678
1321.407809,73.09376662,37.93626271,24.94000077
1322.368181,78.67110549,42.09235332,23.58430941
1323.328387,70.84517276,34.28532773,19.02342921
1324.288426,64.76996542,28.64210034,14.21383126
1325.248298,74.19050164,39.04910137,3.409104921
1326.208004,96.50354777,62.10490446,8.568306385
1327.167543,115.7888714,83.03040134,24.56699356
1328.126916,124.5636035,94.23360088,23.4470471
1329.086122,131.4089949,99.46945675,30.02023853
1330.045162,140.7299102,101.0371858,37.00054102
1331.004036,148.2485389,97.48107207,17.25515104
1331.962744,156.6665532,94.16470484,16.01042774
1332.921285,170.8153882,99.95154208,33.61531659
1333.87966,186.221022,113.6616669,33.84574621
1334.837869,198.6429712,125.7894592,35.03376358
1335.795912,209.4172576,130.854419,35.25272518
1336.753788,215.8984133,130.1097151,36.90530953
1337.711499,215.3614971,127.6002038,43.62754804
1338.669043,218.0502995,130.2104855,36.20548916
1339.626422,236.3666386,144.265556,49.04831139
1340.583635,264.4096866,166.8582926,80.14013033
1341.540682,287.160125,188.5395456,90.8430698
1342.497562,299.2162614,203.3511388,104.2471271
1343.454278,298.4144716,207.4803065,117.8615528
1344.410827,281.1851522,198.1446001,110.3621499
1345.36721,256.5541676,183.2185486,92.68182307
1346.323428,242.6014904,177.8167019,94.77742689
1347.279481,242.060338,185.3673427,107.126149
1348.235367,239.5546587,195.335025,108.0911041
1349.191088,225.1521193,199.0790595,105.0331781
1350.146643,204.9424129,195.9693024,94.60420313
1351.102033,184.9908056,186.6850822,94.71975229
1352.057258,161.05985,170.9269881,88.01956618
1353.012316,133.9961613,153.078387,63.00358986
1353.96721,116.7331426,142.6434166,49.71580635
1354.921938,111.5891062,143.9452226,58.99997108
1355.876501,103.7069565,150.5184172,69.37928584
1356.830898,88.17776921,153.1955502,59.61414628
1357.785131,73.87739579,147.535964,63.14483153
1358.739198,58.8033492,133.5441208,63.70708816
1359.693099,36.43562715,115.8786762,52.82586202
1360.646836,18.99278119,102.5679323,47.83363713
1361.600408,21.44180818,97.66738196,47.72090128
1362.553814,35.17331337,97.32767799,62.56468518
1363.507055,41.9610599,95.53536799,62.92160604
1364.460132,38.80338128,90.02190754,62.31441716
1365.413043,33.23151588,81.30155237,58.03952464
1366.36579,28.35821771,71.3567684,45.6008037
1367.318371,23.44353408,65.74676826,37.22985439
1368.270788,22.88923383,72.06633889,22.27206396
1369.22304,34.94438757,92.75199042,22.5702746
1370.175127,57.09041828,122.0412565,22.92047826
1371.12705,76.1886884,153.333808,16.85618553
1372.078808,92.60230592,187.7421287,-2.197906125
1373.030401,122.7888549,230.7250611,-11.92930928
1373.981829,169.7698331,281.8365086,7.0713422
1374.933093,220.7549547,336.4101541,4.339172707
1375.884192,276.8942836,396.2764656,0.143116737
1376.835127,349.7860702,466.2332369,25.55764278
1377.785897,432.5924508,541.2724668,65.08165524
1378.736503,508.5281797,609.9361593,104.4744139
1379.686945,575.4723864,666.7950592,135.8750759
1380.637222,638.3258558,712.0429632,170.4524226
1381.587335,695.0698647,744.373845,203.6848194
1382.537283,741.0663752,761.5152294,222.0435594
1383.487067,773.0736876,764.2792239,245.5728366
1384.436687,790.290335,756.7115595,257.693797
1385.386143,794.8602982,742.7727566,257.0590022
1386.335435,784.5214732,721.4445115,271.968972
1387.284562,752.8010473,686.4385081,262.396815
1388.233526,702.503995,635.9922244,236.1215427
1389.182325,645.2434619,580.0999892,214.7837718
1390.130961,586.9685768,531.0547178,197.3990077
1391.079432,527.2108034,490.1024611,184.9448401
1392.02774,466.1016438,448.45709,166.1564114
1392.975883,401.5514483,398.5628064,148.7858986
1393.923863,331.1071587,343.1390914,123.3834025
1394.871679,262.8086371,293.4969622,92.64146746
1395.819332,208.6257791,255.7505271,74.58267856
1396.76682,166.0452123,223.3227302,69.69588379
1397.714145,125.7664345,190.5046484,50.22677437
1398.661306,91.03794759,162.9146163,45.76394515
1399.608304,67.63126356,144.5415054,65.98874732
1400.555137,50.0645663,128.4823013,69.51309324
1401.501808,33.77980835,108.4191723,74.91007261
1402.448315,21.89024387,86.01013433,75.6983271
1403.394658,15.71298721,64.14183489,74.88968289
1404.340838,11.90846868,42.26105054,67.16296166
1405.286855,6.371957584,19.08697612,49.24347338
1406.232708,-0.359412799,-3.810623705,41.4072861
1407.178397,-1.122426773,-21.58043442,17.26509112
1408.123924,7.89136607,-30.11001634,-1.400691358
1409.069287,23.10300263,-30.24589233,-6.568298448
1410.014487,46.94498562,-23.35888765,-26.0118292
1410.959524,89.17028888,-3.800417016,-25.60669603
1411.904398,150.0344986,35.45211964,-0.975440002
1412.849108,220.3077427,91.77067306,28.60553967
1413.793656,298.2457161,157.1434061,58.06313132
1414.73804,391.0071692,229.2154585,91.27662567
1415.682262,499.7103921,309.1512801,131.1279355
1416.62632,612.9416402,392.8863745,166.4062429
1417.570216,718.9693593,472.8569515,197.3340881
1418.513949,820.3630413,547.3141089,224.5086069
1419.457519,926.50238,621.0759556,270.3389605
1420.400926,1034.175203,695.0839319,326.4872063
1421.34417,1130.282743,760.558878,372.3424554
1422.287251,1210.112394,807.1159051,397.2806953
1423.23017,1277.774443,833.1730139,412.8964296
1424.172926,1332.57525,844.9319799,433.9029924
1425.11552,1368.045277,847.7218949,438.1007215
1426.057951,1381.181943,840.6712333,437.3702301
1427.000219,1372.628059,817.9655716,419.4323087
1427.942325,1342.157633,775.0766875,386.2014655
1428.884268,1291.867053,714.8497804,348.5055318
1429.826049,1229.315044,646.4460277,296.9631643
1430.767667,1161.228888,577.4815406,256.8324499
1431.709123,1085.643148,508.4077497,225.5257943
1432.650417,994.8930162,436.3499212,184.4205373
1433.591549,889.2132315,364.091948,143.0758572
1434.532518,785.3640465,302.5377339,108.4627689
1435.473325,702.8796896,260.9627121,80.07344664
1436.413969,639.1268826,234.7849055,66.56902358
1437.354452,573.3755288,209.1831074,46.43508733
1438.294772,498.9402031,177.1012743,9.723810972
1439.234931,428.5021043,146.0820765,-12.73994549
1440.174927,369.7340907,126.1490116,-14.80908176
1441.114761,322.5877183,119.1026454,-12.4199793
1442.054434,288.0100326,117.8694811,6.292134875
1442.993944,258.1087038,111.2100357,29.05776858
1443.933292,221.6211535,95.44305565,21.08062669
1444.872479,184.4672082,80.71883252,15.72399615
1445.811504,156.6749397,77.46656724,31.28320214
1446.750367,133.8655128,84.73663994,40.25790905
1447.689068,114.7738878,97.46633179,43.40211727
1448.627607,106.408427,111.0241858,57.74020243
1449.565985,101.2129452,117.1388746,62.12546687
1450.504201,86.4431337,110.9683173,46.73027179
1451.442256,71.61189324,100.0982191,46.43450478
1452.380149,70.65102005,94.28590303,60.0657647
1453.31788,73.39519525,92.65442895,76.12868064
1454.25545,64.59793625,90.56831128,80.88188536
1455.192859,50.6070778,90.30933627,74.65339757
1456.130106,47.39750939,96.88277422,77.23294796
1457.067191,59.98174958,110.1212981,78.61966903
1458.004115,80.96794969,124.2046676,85.8255559
1458.940878,97.13640676,130.9969688,94.73033393
1459.87748,100.6703467,126.8854166,88.61908691
1460.81392,101.0279776,119.8834765,76.84694775
1461.7502,115.2241889,123.6458629,79.38808852
1462.686317,142.4213845,139.3701416,101.9388625
1463.622274,163.1850096,150.6346087,110.2654207
1464.55807,165.9343833,143.6004235,100.275459
1465.493705,160.4080272,126.9094013,85.59055517
1466.429178,163.6913456,121.7285517,76.15387142
1467.364491,179.090829,133.8044986,91.44095876
1468.299643,193.9228098,148.2070309,103.773812
1469.234633,200.6462874,153.4552357,102.7004212
1470.169463,206.5091893,153.9374231,109.0400324
1471.104132,213.4045535,153.7826966,113.5686934
1472.03864,208.8692768,147.0022871,111.6074216
1472.972988,189.9308755,131.3114939,103.0215814
1473.907174,172.9052313,116.0048648,96.13189359
1474.8412,166.7586765,108.0980466,103.5356097
1475.775066,160.8346123,103.8556348,107.7980398
1476.70877,148.9661465,100.6769142,104.7405916
1477.642314,141.1493608,102.7695275,96.58243033
1478.575698,142.1217568,108.1451951,108.6806456
1479.508921,140.8219548,106.4255632,130.2570429
1480.441983,130.2528688,96.10409169,122.1755174
1481.374885,117.2736318,87.22952094,126.9040255
1482.307627,107.7492767,84.13628549,131.5919729
1483.240208,101.6242453,81.8430275,134.2815937
1484.172629,99.05195679,77.69625606,148.6100636
1485.104889,96.26375904,72.72778662,156.085079
1486.036989,88.21761443,66.94770804,162.7221256
1486.968929,82.53598993,63.1514976,165.8158277
1487.900709,91.76738229,67.14020633,196.0609459
1488.832329,110.1372551,77.16824393,227.1533245
1489.763788,118.1194707,82.99159507,241.5101251
1490.695087,110.5060551,80.50893823,245.6242636
1491.626227,101.1207878,76.26697583,243.7603296
1492.557206,97.48228007,73.67189762,244.5332609
1493.488025,89.7898328,67.50152838,230.7360163
1494.418685,71.8789627,56.74800474,211.9871007
1495.349184,54.18172334,49.72925487,185.0957991
1496.279523,46.27371936,50.82951509,181.2613954
1497.209703,45.10713991,54.53006721,173.534819
1498.139723,45.83867429,56.35064267,154.7390056
1499.069583,47.63478935,58.603394,152.5794018
1499.999283,50.82284454,63.53879639,133.5969932
1500.928824,55.93299699,68.54213268,142.6232295
1501.858205,60.69768475,70.91235881,141.2177132
1502.787426,63.23928173,73.57457021,117.3137636
1503.716488,69.27019302,80.71140397,123.0149025
1504.64539,84.58559228,90.67108469,117.6648458
1505.574133,104.4294455,99.80435893,129.5416935
1506.502716,121.3023734,109.4325302,142.2861632
1507.43114,135.5722984,122.235731,150.0430042
1508.359404,148.9542044,134.737216,175.5506792
1509.287509,158.3803493,140.2310249,175.7146176
1510.215454,161.9706503,137.8387754,179.2474744
1511.14324,161.7612251,133.6133325,179.4997563
1512.070867,162.5353377,134.2937506,172.3338998
1512.998335,169.7664109,140.8992219,175.102972
1513.925643,179.9546619,146.3238159,173.7774596
1514.852793,179.8848111,143.4903056,170.9081496
1515.779783,166.4569833,137.0523906,154.9925362
1516.706614,153.1404728,137.0107647,138.4594849
1517.633286,145.5934332,139.7670697,143.4028576
1518.559799,132.7689931,131.7266489,135.3040723
1519.486153,112.1255444,113.1561453,94.7110889
1520.412348,95.4025074,98.69230401,86.0967132
1521.338384,86.59283563,94.85200588,82.82853729
1522.264261,81.31677588,95.48229548,62.90504661
1523.18998,79.32056067,94.88718606,69.30077273
1524.115539,79.39568278,92.71898189,64.44051031
1525.04094,76.6323915,90.68591856,57.01058271
1525.966182,71.96193017,89.93955893,54.53239267
1526.891265,70.72650208,89.85142474,42.65733135
1527.81619,70.02526751,87.8052788,47.19487484
1528.740956,60.01412865,80.36091179,43.79118853
1529.665563,40.25826371,66.68466982,22.78564862
1530.590012,22.00268575,50.48789231,12.27617425
1531.514302,11.5531963,36.00671174,2.48329747
1532.438434,4.248254414,23.90894282,3.580134648
1533.362407,-1.85072509,14.16631864,-0.443512475
1534.286222,1.27963135,9.646945307,-9.400211156
1535.209879,17.62512443,12.61797527,6.882570442
1536.133377,37.76136948,22.01036014,16.0176278
1537.056717,52.55525414,36.64663161,27.98034892
1537.979898,62.09299388,53.38307719,43.72133503
1538.902921,67.0055433,62.94291115,51.25222165
1539.825786,67.34413863,59.50945593,49.64326736
1540.748493,68.12968427,52.31817312,38.16060485
1541.671042,74.3656132,55.38829341,46.86659945
1542.593432,86.03811095,69.03955673,60.01493235
1543.515665,99.76327633,81.90325572,67.98245477
1544.43774,109.0280407,86.89476134,77.40600761
1545.359656,109.7132789,87.48970651,78.56757414
1546.281415,107.4015494,90.39579266,76.74715602
1547.203015,106.7588835,95.15545232,83.8654115
1548.124458,101.4830538,94.08550015,88.41180471
1549.045743,87.91326146,84.44222295,64.844811
1549.96687,71.82999816,72.78771468,51.93687269
1550.887839,56.48508282,64.89905316,58.24425411
1551.80865,43.74149595,61.56481102,49.42632693
1552.729304,39.5810033,63.3133404,56.07550242
1553.6498,43.99638624,70.34662778,70.09678762
1554.570138,50.90225588,81.45526033,76.00321962
1555.490319,60.98695713,96.69529416,82.67888507
1556.410342,78.87513416,116.625797,96.77136131
1557.330208,102.8586709,139.4530117,113.8785375
1558.249916,125.5516155,161.5486244,113.5628063
1559.169466,138.4213147,178.6694936,122.5788955
1560.08886,140.8363979,188.9511042,121.6180272
1561.008095,147.8211387,198.0941302,106.4625763
1561.927174,172.9494897,215.2271935,109.6571236
1562.846095,206.480726,240.4346665,120.9836911
1563.764859,230.5957874,264.2993714,127.2156399
1564.683465,246.3661538,281.3593363,122.5194082
1565.601914,264.9811982,295.4989778,130.5235613
1566.520206,286.7554393,310.7941542,134.634938
1567.438341,306.2295815,323.4766086,132.3524362
1568.356319,319.5162479,324.1308471,144.1726347
1569.27414,318.7606423,307.564387,134.8017781
1570.191803,301.9833118,281.9065057,104.1046434
1571.10931,283.3224168,262.2675654,78.20174991
1572.026659,273.2999191,252.9802881,71.65030182
1572.943852,265.1591921,245.8216989,71.2587693
1573.860888,253.0352129,235.8094613,64.49250285
1574.777766,242.0191631,225.9245906,68.2534412
1575.694488,233.0718826,216.3331691,69.13809517
1576.611053,216.8466204,200.5255813,69.92196964
1577.527462,189.0500083,174.6149488,62.56717114
1578.443713,158.7008664,143.9355128,40.77697075
1579.359808,133.9686627,116.5177437,32.51459486
1580.275747,110.2113061,94.08011822,24.1938467
1581.191528,81.39110066,74.92892169,17.22052264
1582.107153,55.5941913,61.66240774,9.620895169
1583.022622,45.23115757,57.37313054,1.585002938
1583.937933,44.94172565,56.47081291,14.05241565
1584.853089,39.11481823,50.44252044,22.47086958
1585.768088,28.67039868,41.43172603,19.52457631
1586.68293,26.39648834,37.56024506,36.89338039
1587.597616,32.98839965,38.26469529,49.8901007
1588.512146,38.2799864,35.5947993,44.59553027
1589.426519,35.13218994,24.94917682,59.26742846
1590.340736,24.54769168,10.00902332,53.7986122
1591.254797,16.65964574,0.970463604,37.76939542
1592.168702,19.46193026,3.510891544,60.16037334
1593.08245,25.18028475,9.630755259,71.19780641
1593.996042,22.40476493,9.078894756,70.21857134
1594.909478,14.20928734,4.356479017,83.5521834
1595.822758,11.5738631,3.731386189,96.50583745
1596.735882,17.22010379,6.994177396,105.6096352
1597.64885,22.2789607,7.1104765,115.7691336
1598.561662,18.2362138,1.169764608,124.1601383
1599.474318,10.19675325,-5.679376604,114.0151441
1600.386819,9.62231905,-6.61533516,106.5729635
1601.299163,16.04357692,-1.227247555,117.5161226
1602.211351,19.78344373,5.124851218,113.822182
1603.123384,19.00179418,9.084674289,103.9108989
1604.035261,20.9536792,12.15568546,97.4079896
1604.946982,28.57515908,15.73540272,84.63035109
1605.858547,34.5029796,17.90914917,81.63492159
1606.769957,33.15868702,17.72016112,73.73288972
1607.681211,30.38884459,18.33145198,54.10561606
1608.592309,30.48012958,21.84154082,50.63433011
1609.503252,28.69162177,26.49451318,40.69259935
1610.414039,24.61717329,31.48531429,23.17144947
1611.324671,24.58582699,38.22899216,25.0910529
1612.235147,32.89456834,48.40079178,16.24063389
1613.145468,49.15821921,62.58414598,21.73944149
1614.055634,64.87037745,75.52934629,48.89056951
1614.965644,69.71639754,78.93437654,41.95908486
1615.875499,65.80694582,74.10275572,36.41483555
1616.785198,61.60207187,70.09865332,46.35473363
1617.694743,60.10738171,69.68449718,41.60384375
1618.604132,63.37690815,70.7352597,48.64594356
1619.513366,73.93991932,75.74931654,64.12646628
1620.422444,87.72913856,86.75548595,70.77487445
1621.331368,96.3284436,97.23042301,82.8319645
1622.240136,98.66546569,101.2565212,84.58037746
1623.14875,103.8146663,105.4979177,81.08843101
1624.057208,118.0015003,119.9964446,96.88502849
1624.965512,136.301474,141.9005512,116.2906782
1625.87366,149.9241608,158.8687212,127.196352
1626.781654,153.2975258,163.6396393,124.9223774
1627.689492,146.2106551,158.7854312,122.2198229
1628.597176,136.5816707,152.6759266,124.0344797
1629.504705,133.9669552,153.3659133,115.3271097
1630.412079,135.9619758,162.4530531,120.8295932
1631.319299,136.2591153,176.5947878,120.3403424
1632.226364,142.542766,194.2245044,95.334735
1633.133274,160.5589764,213.1200001,109.9105498
1634.040029,176.6038261,226.5623899,121.2093407
1634.94663,180.4765704,230.2341391,95.2514342
1635.853076,177.2267779,225.5534999,99.95102021
1636.759368,169.7214462,216.0950798,90.83684809
1637.665505,159.3538962,207.6191767,69.82251971
1638.571488,152.5664915,203.5882244,80.9600622
1639.477316,151.9571247,199.9099736,78.91153446
1640.38299,155.1932962,193.5190137,80.43994024
1641.28851,159.3736732,187.8393974,84.87117343
1642.193875,159.5719149,183.1613041,83.28241817
1643.099086,152.8980698,174.0662983,87.98512624
1644.004142,144.6756049,160.5329212,79.43375031
1644.909045,141.6478926,149.5679644,82.99146733
1645.813793,140.9382251,142.4970932,93.74431645
1646.718387,134.4141153,131.5632796,90.04838443
1647.622827,120.3744847,111.4806599,85.4869977
1648.527112,103.0177274,85.93629243,82.14584015
1649.431244,87.86031061,65.12194377,81.1795349
1650.335222,83.70582572,61.94043711,81.20662424
1651.239045,96.43750411,82.18074722,93.75724304
1652.142715,117.4259423,115.5215494,123.28341
1653.046231,133.8902463,145.1539308,142.4212267
1653.949593,144.6404484,163.5511557,154.1729274
1654.852801,150.0166006,171.9614302,168.3647438
1655.755855,146.1338486,174.1293815,160.8585459
1656.658755,138.5613583,175.8762625,155.0522766
1657.561502,137.3536613,181.6808871,173.4914416
1658.464095,142.0706542,190.4720396,180.2035009
1659.366534,146.9770809,197.6447629,184.2174586
1660.26882,147.8168021,198.1957513,197.7814427
1661.170952,142.9410925,190.8394248,184.103561
1662.07293,136.951604,180.4927872,163.3861956
1662.974755,133.310791,171.0749383,165.8610593
1663.876426,126.2684082,159.2206697,154.0941511
1664.777944,110.0542255,139.8433539,130.1791805
1665.679308,86.74130701,112.9587537,111.7315914
1666.580519,62.65787963,84.01120706,81.92255679
1667.481576,43.16008242,60.009448,58.74454952
1668.382481,28.27557998,43.77755414,46.58503673
1669.283231,14.925411,33.17644773,37.64365461
1670.183829,4.912540452,27.25223381,35.95232105
1671.084273,4.624205614,29.66982723,42.58738592
1671.984564,16.38091125,43.54848122,56.20042012
1672.884702,33.52127815,63.79998572,74.16387649
1673.784687,45.17820129,77.98332063,101.0862498
1674.684518,46.88993701,78.29928468,111.9251263
1675.584197,43.19862349,69.73339827,102.1385421
1676.483722,38.08845861,61.35864312,96.33916964
1677.383095,30.80544877,55.23555572,99.79344237
1678.282314,23.5528698,50.04716462,97.2425566
1679.181381,23.39679118,48.55236237,91.25175424
1680.080294,33.29433343,54.74035912,102.5331556
1680.979055,48.35094801,67.57004951,113.7018599
1681.877663,62.06207003,80.78765021,118.4218727
1682.776118,73.23208717,88.83615015,115.7921924
1683.67442,86.09605935,93.50054565,107.4336873
1684.57257,102.9737181,101.6086555,110.7047811
1685.470567,119.8235612,113.4763113,108.4348611
1686.368411,129.2765842,119.0296638,101.3330193
1687.266102,125.1661739,110.6640582,91.4408882
1688.163641,111.673205,96.90363887,64.11913694
1689.061027,106.2402773,95.13151633,45.84494291
1689.958261,118.0875594,109.1400167,51.1289885
1690.855342,133.9568272,124.5697901,60.47577386
1691.752271,141.6096016,130.404026,59.94574566
1692.649047,147.6881864,131.3653486,62.63546524
1693.545671,158.4809225,134.1888034,72.93536227
1694.442143,166.4244411,135.5299373,80.17365252
1695.338462,165.30592,129.6084768,85.87721326
1696.234629,159.3506796,117.8808294,82.17845254
1697.130643,152.575484,104.6817562,76.83029729
1698.026505,142.5879603,89.56463822,78.55704052
1698.922216,128.9168724,72.28473375,73.37931921
1699.817773,119.5350582,60.13080931,67.32970477
1700.713179,121.3958789,59.05145992,84.06233636
1701.608433,128.5956832,63.52010064,101.3420996
1702.503534,130.2759947,65.47193562,104.4660444
1703.398484,126.20127,64.68319296,114.6642824
1704.293281,124.122149,64.33166717,119.6944096
1705.187927,126.2481623,65.69013968,120.8120931
1706.08242,126.8697639,67.4279274,124.5638383
1706.976762,118.8998861,63.59138676,127.3739795
1707.870952,97.93531888,48.28679032,112.8725317
1708.76499,68.35212486,27.03426874,83.12131884
1709.658876,47.63760495,14.94061243,65.3834334
1710.55261,48.02989534,17.65801973,59.4651043
1711.446193,53.93205414,22.6561023,70.34318217
1712.339624,43.82351393,19.12891947,55.48955379
1713.232903,28.19730549,16.44624899,30.27210651
1714.12603,30.05021382,27.42833916,41.45752566
1715.019006,44.11528193,46.33600313,44.92130638
1715.911831,52.71880613,60.87984084,38.91683711
1716.804504,57.20698015,71.09250647,36.19887261
1717.697025,65.69325457,82.33776994,40.55564673
1718.589395,75.01308362,94.04632228,41.32716496
1719.481613,79.39462444,104.5241521,33.35871302
1720.37368,80.79673675,116.532176,32.32525363
1721.265595,84.46963734,131.3788357,36.05385105
1722.15736,87.64389865,142.5532843,45.54127735
1723.048973,81.33145611,143.680153,40.66392154
1723.940434,70.23741793,141.279562,31.74894289
1724.831745,71.1146007,146.6626501,42.32447404
1725.722904,82.25867128,156.6685238,52.10464556
1726.613912,84.96951763,158.5554844,46.24886962
1727.504768,75.46935563,148.893406,38.00179809
1728.395474,61.90568725,132.0858636,38.47508949
1729.286029,44.33295638,110.3120673,27.95075392
1730.176432,25.49462903,86.98232039,9.022075513
1731.066685,15.87197529,67.87049065,7.768260939
1731.956786,12.55341766,52.51213801,9.65655802
1732.846737,2.550291127,36.61552713,5.197485686
1733.736537,-10.04986179,23.36630927,-7.708665661
1734.626185,-9.739951715,19.38294841,-9.859192358
1735.515683,2.037107644,21.45567536,1.913370615
1736.405031,10.81337338,20.62328317,-0.374909953
1737.294227,13.63950664,17.17934244,6.22280677
1738.183272,20.14818228,20.59927573,9.199893004
1739.072167,37.24923272,36.46848875,25.67299966
1739.960911,60.50468887,59.41405447,52.71537935
1740.849505,76.5536948,77.52430834,59.89718133
1741.737948,79.01658276,83.62954823,75.31367962
1742.62624,78.49970911,83.13012021,75.22191466
1743.514382,84.66238576,86.47089999,81.72806964
1744.402373,93.05664127,96.26622138,98.60446406
1745.290214,102.1227705,109.6949369,96.06742507
1746.177904,117.5674462,126.0790898,107.6825295
1747.065444,134.1090541,142.4394037,119.9678236
1747.952833,140.8139799,151.5338575,122.9435024
1748.840073,139.8592903,152.4244662,131.5231261
1749.727161,142.0364993,154.5553479,130.7476042
1750.6141,152.893681,165.1086056,144.2255124
1751.500888,167.1059417,178.2382784,170.8161054
1752.387526,174.5932482,184.9239845,179.0303255
1753.274014,176.387862,188.8020939,184.3271963
1754.160351,183.772082,199.838145,203.6045597
1755.046539,198.1652581,216.2900844,226.5231404
1755.932576,208.8303763,226.9992385,231.575961
1756.818464,208.9573629,227.798092,237.9119995
1757.704201,201.4447097,224.8040908,245.3947909
1758.589788,195.552426,225.9964329,239.3483563
1759.475225,200.887444,234.5077436,241.0664664
1760.360513,214.2919474,244.4552561,252.5215522
1761.24565,216.8089497,243.1077357,242.4649932
1762.130638,196.7804116,224.6658191,219.1899959
1763.015476,170.1805296,201.6538297,198.4730787
1763.900164,160.8029244,192.6329727,173.4328192
1764.784702,166.0046956,197.259566,178.1961097
1765.66909,165.3855905,198.2599735,164.9390273
1766.553329,154.4801566,188.755225,128.7360466
1767.437418,142.9695011,176.7380247,119.4383017
1768.321358,132.139821,164.2774253,96.3122977
1769.205148,117.4116872,146.2181703,73.48767135
1770.088788,104.078646,127.6339183,47.50292389
1770.972279,103.3042084,120.2900274,29.63740173
1771.85562,110.8963239,121.03485,51.06598648
1772.738812,108.4965428,114.5400673,46.68119219
1773.621854,94.55383002,99.49411,18.74865017
1774.504747,86.35579474,89.42038151,18.69036689
1775.38749,87.48431149,87.30012358,33.21339543
1776.270084,87.71271801,83.24431433,32.46738351
1777.152529,85.81714907,74.0966419,25.71511738
1778.034825,84.12391346,65.51282159,34.10461331
1778.916971,82.22792378,61.35302689,32.41118854
1779.798968,86.10644463,61.90893053,25.44273517
1780.680816,96.96635698,63.74831014,40.69710399
1781.562515,102.0347548,60.62732875,39.973406
1782.444065,97.37269916,52.86914473,28.13455161
1783.325465,96.58574548,50.11496228,41.53974668
1784.206717,107.8266041,58.7160971,52.80987829
1785.087819,122.4894663,71.24047947,63.82982112
1785.968773,126.9611348,73.41859119,73.35979844
1786.849577,117.00851,61.67539412,60.41041015
1787.730233,100.1839698,46.97492133,55.39960182
1788.610739,84.95533562,38.79303157,54.1259836
1789.491097,73.89304196,36.49867109,37.86278828
1790.371306,67.75305823,38.5710892,33.29266597
1791.251367,66.56425987,46.62677123,28.18675421
1792.131278,65.51014956,57.76381956,23.34897527
1793.011041,56.98677888,64.38627642,23.63386216
1793.890655,40.10799723,65.63022767,3.810241083
1794.77012,24.38383316,70.50667021,-8.303702683
1795.649437,20.52180658,85.70281453,-3.636732741
1796.528605,30.38874847,107.8357464,10.85619353
1797.407625,45.85528436,128.9091952,17.97794116
1798.286496,55.09639433,142.2028368,14.67557219
1799.165218,54.43291279,145.9846426,14.10572173
1800.043792,52.61349627,146.0077483,0.535881078
1800.922218,56.34910983,148.3482746,5.89714596
1801.800495,61.5595967,151.5721228,11.0942821
1802.678624,65.87181957,152.3768184,1.241087222
1803.556604,71.82536021,150.8233506,17.9045845
1804.434436,75.18237558,145.1731947,26.90198617
1805.31212,68.99261901,131.2910291,25.77398554
1806.189656,55.52836181,109.5808548,28.20441884
1807.067043,42.02356618,86.64390135,21.70512441
1807.944283,31.5143929,69.16640714,29.21590914
1808.821374,23.53453109,58.32645168,37.60214144
1809.698317,19.40960942,51.8123651,40.9970995
1810.575112,23.08776432,49.79826108,51.76371935
1811.451758,35.06042403,54.25936103,64.59545404
1812.328257,47.77222411,62.54100525,80.44851401
1813.204608,53.22779526,68.12187416,90.2336831
1814.080811,53.1262461,69.29974401,91.42097408
1814.956866,54.59478052,71.05868591,94.62687908
1815.832773,60.99751624,76.87116197,93.24148597
1816.708532,70.30237827,83.19418707,92.45871765
1817.584143,76.39297327,84.3301127,101.7902872
1818.459607,77.12076811,81.86731534,81.62852085
1819.334923,81.94008774,84.66204955,73.50468065
1820.210091,97.88011158,96.79055663,94.75427284
1821.085111,115.7100979,112.1557593,100.2395975
1821.959984,124.8456658,122.9832798,110.4098895
1822.834709,127.0744469,126.0008721,104.9644229
1823.709286,125.2911679,121.1375837,101.6931568
1824.583716,117.6858134,111.8932904,100.3937046
1825.457998,107.9250193,104.6496446,81.00235293
1826.332133,101.9857597,102.0044181,86.77977924
1827.20612,99.24195381,101.7529475,89.21030076
1828.07996,100.0035245,103.4915281,74.2401275
1828.953653,105.3876294,106.5167115,82.40108859
1829.827198,108.3315884,106.1478518,84.26820346
1830.700596,105.8659225,103.3255797,69.16225778
1831.573846,106.7937428,106.7905154,74.3039415
1832.446949,112.7318107,117.9009571,79.23132338
1833.319905,114.1944794,126.8446895,77.60067347
1834.192714,109.4460938,126.7953599,67.76926972
1835.065375,105.2741506,120.4701804,50.17288275
1835.93789,102.4652093,113.4019628,42.2540251
1836.810257,96.60519655,108.4104632,28.20239706
1837.682477,87.57485607,105.9643408,25.06222114
1838.55455,79.59769528,106.9164508,25.71020111
1839.426476,76.16504961,112.5963702,19.34683527
1840.298255,76.17514279,119.4545675,32.63154153
1841.169887,73.99343172,118.911279,36.43316018
1842.041372,65.48240265,107.8510486,30.31603916
1842.91271,52.17578877,92.59239473,23.82626504
1843.783901,38.30157232,79.74875894,7.79094541
1844.654946,26.84728754,70.77797415,6.379436511
1845.525844,20.0499407,66.02477833,4.703642396
1846.396594,20.58071249,66.62704053,6.192717841
1847.267199,27.58017453,71.24666517,28.66976123
1848.137656,35.77835566,76.3359652,45.59835318
1849.007967,40.58666369,78.51630125,47.62719716
1849.878131,36.5959231,73.97081404,57.62425577
1850.748148,22.45274199,64.01555233,60.01286283
1851.618019,14.85114964,60.7628643,49.29060016
1852.487743,30.03847273,72.00124318,81.96229189
1853.357321,53.22346615,85.98397898,114.6230991
1854.226753,60.94932592,87.37467875,112.7252863
1855.096037,57.77787182,77.88988617,120.8103824
1855.965176,61.58880055,69.65485839,124.5656767
1856.834168,73.83845608,69.06505482,132.9145192
1857.703014,84.40190776,74.05328876,152.445486
1858.571713,90.06067326,80.68060018,156.3200802
1859.440266,94.11320275,86.73374145,162.1468618
1860.308673,98.27687555,90.83310858,170.7885751
1861.176933,105.1120291,93.85671649,167.5538747
1862.045047,116.5685625,98.62120729,170.3755185
1862.913016,126.2732569,103.8604019,177.1866721
1863.780838,127.6800566,105.6990735,169.7068957
1864.648513,125.5692444,105.4728903,158.6232365
1865.516043,126.1325892,106.3884101,161.6495692
1866.383427,126.0045883,106.9907128,159.9470231
1867.250665,121.1385442,105.4486069,150.3553087
1868.117756,113.901013,102.5664623,141.3515917
1868.984702,104.8147138,97.23920073,125.887447
1869.851502,89.50963961,86.45391313,103.4126021
1870.718156,68.1930596,70.96426716,83.1610297
1871.584664,50.46503811,56.7900468,71.0424347
1872.451026,46.4458253,49.20079782,53.67328491
1873.317243,51.99853788,45.82655587,60.27573084
1874.183314,50.61357825,39.45885492,61.40738439
1875.049239,37.93546863,27.90531699,37.75254865
1875.915018,29.14959957,15.99988067,35.27297487
1876.780651,34.13198286,9.310809807,27.81730747
1877.646139,44.98913186,10.36490053,29.68082509
1878.511482,52.709749,18.10366637,42.84082274
1879.376679,58.21637629,28.32221081,43.81362542
1880.24173,64.83653547,36.96900662,48.05578444
1881.106635,74.56144466,44.36092457,49.69945609
1881.971396,91.16875576,54.27682558,52.03179095
1882.83601,113.8225044,66.82076838,63.4443788
1883.70048,131.6555765,75.37165577,71.64453464
1884.564804,135.2090829,74.74878925,67.08805615
1885.428982,128.3548248,68.74027959,57.54119052
1886.293016,123.3070878,65.46703374,43.17823811
1887.156904,127.9300978,68.62020445,39.9607278
1888.020646,140.9913262,75.88673664,39.64994366
1888.884244,154.8184011,82.76200148,40.1747287
1889.747696,160.1551275,85.88447472,53.41649333
1890.611003,154.9761934,84.9329208,48.52726843
1891.474165,147.8018745,82.41038467,52.29094853
1892.337182,146.8228508,80.96091554,51.35532643
1893.200054,150.2189646,80.90225602,43.92680041
1894.06278,149.8901461,80.23798508,58.39801507
1894.925362,141.748344,77.39366206,48.15526452
1895.787799,130.2448503,73.20444009,43.80112367
1896.650091,121.6723731,69.78828655,46.75731345
1897.512238,117.3786946,69.39751336,42.70135765
1898.374239,115.2482422,72.54116065,63.82518908
1899.236097,111.7850401,74.52466631,71.51039299
1900.097809,102.8221428,68.9476262,62.65868909
1900.959376,89.22327691,57.62137077,56.57663885
1901.820799,80.44158922,50.4797913,51.5884444
1902.682077,80.73070867,51.65229031,61.41001204
1903.54321,76.5265154,52.31085785,67.43861288
1904.404199,56.35855931,43.10357918,53.81007531
1905.265043,32.26276375,27.79433639,36.83445429
1906.125742,22.08794285,18.74450037,40.59863044
1906.986297,28.72880621,23.1308665,52.73955106
1907.846707,45.81197029,36.10682659,67.3077103
1908.706973,61.50631238,44.68728497,94.3430694
1909.567094,61.75261584,40.30643678,99.19267018
1910.427071,48.49794788,28.73962542,87.84827795
1911.286903,39.93302236,22.84071097,84.72600675
1912.146591,44.84973953,26.67271071,89.96477176
1913.006135,54.76053945,33.4425943,89.99958035
1913.865534,60.72042432,37.04977611,86.69701759
1914.724789,63.20676753,38.61997734,91.37711585
1915.5839,65.82486329,41.31479819,89.9188155
1916.442866,68.29591518,44.78121092,96.14739478
1917.301688,70.62403024,48.73349723,94.87538943
1918.160366,76.75250573,55.82545891,92.29117766
1919.0189,85.04825829,64.26479294,120.1499428
1919.87729,86.64260553,66.8199616,116.0142346
1920.735536,80.2398994,63.42346535,95.77469447
1921.593638,73.76136069,62.44756257,110.1830374
1922.451595,71.62231067,67.39621569,108.6831186
1923.309409,72.48768704,74.07796468,114.0389656
1924.167079,75.48853455,78.83289593,125.0672224
1925.024604,82.00495767,81.24968032,124.7828885
1925.881986,91.28449011,81.92588316,143.7598623
1926.739224,99.96424898,82.73711142,148.2628
1927.596318,107.7641557,84.76768582,148.9868939
1928.453269,112.7304519,82.26798986,158.0315442
1929.310075,106.411708,67.90323002,147.1588989
1930.166738,88.96338299,47.50998705,129.5337633
1931.023257,76.28466285,37.06408898,119.2255856
1931.879633,79.83759199,42.16845602,115.6330445
1932.735865,91.27015994,51.55245672,124.7348543
1933.591953,95.39930898,52.81577763,125.7472598
1934.447897,90.297672,45.78295651,114.7701594
1935.303698,83.49337658,37.28554457,113.6650649
1936.159356,76.07274278,31.16839121,106.1844037
1937.01487,66.75971852,29.69419667,89.33372921
1937.87024,60.7400264,36.19161543,81.39561494
1938.725468,58.33386466,48.07797031,84.2397098
1939.580551,50.55690179,56.44700611,84.71411477
1940.435492,38.31995893,59.83094636,63.90928468
1941.290289,34.76620388,66.87647302,52.15889868
1942.144942,41.6742244,81.69714902,68.72686254
1942.999453,49.5164898,100.1275804,63.30722145
1943.85382,57.29481063,118.1198817,62.75649933
1944.708044,65.81514956,131.1304767,72.92670054
1945.562124,67.02199008,133.8111023,57.0121567
1946.416062,60.34341843,129.1912745,46.3586643
1947.269856,57.55232146,126.4415277,28.28965375
1948.123508,59.87344653,125.2938319,25.3945066
1948.977016,54.60655184,117.0398029,25.40862407
1949.830381,40.92772441,103.162327,-10.44925722
1950.683603,32.86169391,95.18226173,-8.361795549
1951.536683,35.86900186,95.38666271,-1.461514185
1952.389619,44.07051722,95.22892126,-9.932224718
1953.242412,51.82889406,89.39115149,7.975016592
1954.095063,55.49135787,79.14879926,7.812157394
1954.947571,55.5151767,67.52069704,7.920064249
1955.799935,55.8361632,57.33405669,19.66634625
1956.652157,57.20084259,50.2431254,28.47982657
1957.504237,56.95013887,44.65635992,28.1786094
1958.356173,52.67605461,37.22299012,30.91933536
1959.207967,47.06878087,29.39125779,42.51579537
1960.059618,48.75765924,27.11340779,43.62099922
1960.911127,59.19974626,30.64196014,65.37518351
1961.762493,67.81983616,34.23654778,71.98252963
1962.613716,69.22342001,36.53041479,74.02040635
1963.464797,69.0509649,39.29432129,93.53367663
1964.315735,69.72031998,39.93727381,95.83141295
1965.166531,67.34868902,35.7476372,101.6107104
1966.017184,62.6080569,30.66973265,99.506569
1966.867695,62.60131988,31.78380153,108.5626144
1967.718064,71.72721169,41.47586012,123.8903038
1968.56829,86.26760868,55.53540473,129.8487956
1969.418374,97.79536236,68.53652166,144.4561671
1970.268315,101.6536704,78.85872184,141.3223699
1971.118114,102.2880862,87.67867331,148.452645
1971.967771,107.3116633,96.33091406,156.3361322
1972.817286,116.8241368,104.8825545,148.3850616
1973.666659,121.1621921,110.0959925,156.275053
1974.515889,113.1749127,108.8802118,142.4913333
1975.364977,102.4652312,105.5935624,124.2361369
1976.213924,102.8422869,106.4972311,127.0081103
1977.062728,106.9383904,107.8663345,120.0979004
1977.91139,98.7564238,102.9409739,100.7060734
1978.75991,86.32139133,97.82062513,82.61651111
1979.608288,88.48029418,103.4846411,81.31227787
1980.456524,97.71891416,114.1982017,87.10867369
1981.304619,94.20852191,114.56447,78.05751838
1982.152571,82.61255871,104.6744509,61.56028084
1983.000382,77.48765199,96.03116394,68.88354993
1983.84805,75.76506675,91.75065855,64.13530264
1984.695577,71.62607888,89.50845661,47.33021767
1985.542962,69.53866159,89.69831718,61.8792575
1986.390206,71.25920606,91.8180464,69.91488528
1987.237308,74.32190994,95.36338434,79.10327114
1988.084268,80.43535321,101.4856645,95.23412249
1988.931086,88.79752239,106.353369,102.3231766
1989.777763,89.03459917,101.7736697,111.415683
1990.624298,75.65171876,86.70833322,104.3378762
1991.470692,60.94833396,69.70133323,90.05838256
1992.316944,56.50340098,57.4142075,87.42046691
1993.163055,54.19294544,48.70531559,89.24680288
1994.009024,43.92346613,42.78792015,87.81061354
1994.854852,35.12100875,44.92943693,81.85982099
1995.700538,41.77376328,57.4558785,89.58404362
1996.546083,56.04884941,71.10558103,106.8732876
1997.391487,58.69153088,76.25057936,102.4524643
1998.23675,52.52666688,78.32569789,86.5591562
1999.081871,55.85224926,87.52581469,84.58407136
1999.926851,65.23456044,99.35168097,94.31804197
2000.771689,64.35888223,103.5011479,85.39850803
2001.616387,60.22709187,103.2982995,64.10128736
2002.460943,67.21800048,107.1070388,71.96301959
2003.305358,76.24135102,112.1467889,65.71181701
2004.149632,75.91546064,113.0182067,41.21691378
2004.993765,74.35890821,112.3695205,49.08768389
2005.837757,78.90715001,112.6595205,53.23223189
2006.681608,82.04136018,109.9259845,50.58105231
2007.525318,76.38206683,100.3620427,51.24227932
2008.368888,66.89616638,85.50784522,36.7362569
2009.212316,60.68603663,69.40200348,32.12941801
2010.055603,54.49600147,54.53203175,30.08112122
2010.898749,45.86849343,42.16389941,20.85869827
2011.741755,42.9474074,32.16949579,20.0680102
2012.58462,46.51845404,21.60168127,28.78477009
2013.427344,45.36750507,10.72275349,35.81870909
2014.269927,42.30641783,8.149040015,26.43654114
2015.11237,53.24499911,19.03512562,40.16838028
2015.954672,74.78388316,33.166387,68.09620805
2016.796833,87.26908924,38.27374311,71.74131096
2017.638853,88.94342335,38.79896514,75.27074454
2018.480733,95.41593672,46.89073303,83.53721819
2019.322473,108.7747637,60.79925592,102.8029505
2020.164072,114.9474028,67.9332644,110.2823252
2021.00553,111.2867559,65.94281473,97.38505956
2021.846848,110.6434169,64.48806739,98.06332277
2022.688026,116.0764631,67.65978414,106.6344794
2023.529063,116.8525364,70.11585823,104.7250508
2024.36996,109.8471949,68.88281199,97.04514155
2025.210716,104.6577383,67.55357621,103.2291575
2026.051332,108.7112424,70.79708899,104.5061834
2026.891808,118.0438352,79.20097643,107.8240272
2027.732144,123.0023684,87.8998734,117.6258769
2028.572339,119.3493699,91.43971018,114.5990993
2029.412394,110.8831071,90.36562179,117.5962298
2030.252309,104.588513,90.02434203,110.9369604
2031.092084,106.6340742,93.11305532,102.0697332
2031.931719,115.8058598,95.69668178,105.4312122
2032.771213,122.7928742,94.32859026,100.1769897
2033.610568,127.1051093,96.85540584,91.07558984
2034.449782,142.575239,115.1603251,90.3013457
2035.288857,171.6178514,144.63109,112.8337039
2036.127791,195.5913991,167.2432402,124.447332
2036.966586,205.9999659,178.1310704,112.891563
2037.805241,217.948404,189.1171334,116.626213
2038.643756,237.8002365,202.6607204,120.426848
2039.482131,245.7950947,203.6339045,119.8601164
2040.320366,228.9570988,184.9805866,90.52879116
2041.158461,206.9092575,163.9407915,51.20216119
2041.996417,202.6882429,159.0913504,49.69663881
2042.834233,209.56696,165.0439565,48.68858924
2043.671909,209.4247321,165.634231,40.69041927
2044.509446,202.4566186,159.0511475,29.50869541
2045.346843,199.8461943,155.0583923,28.9879325
2046.1841,203.881674,157.6611272,26.77675596
2047.021218,206.5108428,161.0874493,23.56714733
2047.858196,199.6016551,158.2519373,36.14276547
2048.695035,184.9776148,149.1556742,27.39629998
2049.531734,173.7209508,140.4662556,19.05475938
2050.368294,171.0294832,136.1086425,22.6159796
2051.204714,168.8456315,132.3625049,23.65471895
2052.040995,159.1327197,125.2128235,20.61837035
2052.877137,144.4191672,116.9405963,14.08305714
2053.713139,131.3475155,111.2927809,16.68085537
2054.549002,122.7670523,107.0876215,16.99520014
2055.384725,117.6462224,101.0345546,11.86090187
2056.22031,113.1236512,93.23853126,15.89368768
2057.055755,107.3763743,85.89349112,18.74637978
2057.891061,100.8880672,78.01735308,16.1015702
2058.726228,91.167372,64.57262153,16.31196306
2059.561255,72.55919255,43.06941538,12.67011682
2060.396144,48.14504637,20.13298905,-1.086767624
2061.230893,29.99301277,5.931241983,-12.96301444
2062.065504,22.01179531,2.013509207,-7.52145697
2062.899975,17.56829179,2.565329081,-4.019726389
2063.734308,13.8212611,5.517024236,3.990850272
2064.568501,13.33756268,13.39853366,19.37744504
2065.402556,17.34116241,27.39783177,23.27075816
2066.236471,27.5810242,47.39168817,34.99068823
2067.070248,46.00683919,72.92492366,57.58460886
2067.903886,68.94450037,100.5905621,75.45717564
2068.737385,88.54792645,123.8450268,85.27379583
2069.570746,98.32912258,137.737115,89.92227526
2070.403967,97.37643056,144.6913163,85.22077158
2071.23705,93.99511329,153.8566054,79.58529065
2072.069994,99.17374116,171.6313469,86.66576845
2072.9028,113.6252794,195.5014155,100.7747193
2073.735467,129.5460474,218.9468148,116.6374817
2074.567995,142.1098286,236.9776256,121.9777994
2075.400384,150.0197163,246.291539,119.5003463
2076.232636,151.0952445,246.358031,123.1451492
2077.064748,146.0221112,241.075961,112.1355438
2077.896722,139.5933516,234.5251656,104.5746097
2078.728558,132.1605552,225.4498921,113.4247703
2079.560255,119.5218003,210.803635,105.8006235
2080.391814,104.2724292,193.5036194,98.09115996
2081.223235,95.60517227,181.5698077,90.8145386
2082.054517,97.61194929,179.7224488,90.8789117
2082.885661,105.1575263,183.4856121,106.857476
2083.716666,108.935748,182.14346,109.6109108
2084.547533,104.3172299,170.064508,101.7411129
2085.378262,98.29564502,154.231241,87.78876827
2086.208853,101.2104116,145.2771603,79.35636407
2087.039306,109.8856337,143.2919292,76.5932479
2087.86962,112.9408081,140.5835752,66.45279388
2088.699797,111.1418178,135.0565046,58.55771966
2089.529835,113.1068645,130.9549354,57.45853185
2090.359736,119.4812661,130.8878261,53.96860561
2091.189498,128.3974899,135.0986863,56.17724801
2092.019122,140.8770967,142.6746672,66.66105972
2092.848608,151.1679113,148.1033737,67.73782564
2093.677957,147.4218915,142.0788986,68.93298194
2094.507167,127.4998018,121.4793798,44.23069989
2095.33624,104.6882597,96.44250902,13.89737806
2096.165175,92.53259743,80.72930874,18.11216612
2096.993972,89.44980314,75.74146411,20.8823768
2097.822631,83.85913539,71.07103677,35.97024564
2098.651152,71.15376829,60.44984724,36.72678123
2099.479536,60.73598984,50.54435254,25.5191545
2100.307782,63.47926628,51.34732592,45.59369415
2101.13589,75.60782384,61.97621385,58.11345027
2101.963861,83.18911533,70.69421015,72.03440961
2102.791694,79.71423588,68.00302899,76.45879492
2103.619389,70.73841445,56.15420697,66.60802447
2104.446947,63.57567896,45.11749589,69.57186231
2105.274367,59.4157426,41.84447089,66.99890603
2106.10165,55.51139359,45.05087378,66.76849773
2106.928796,51.03257489,49.39249576,63.14733454
2107.755804,49.89069028,53.02926416,61.85930935
2108.582674,56.94593945,58.95729044,69.76491105
2109.409407,71.20292847,68.94578949,76.28877079
2110.236003,86.28894592,79.20979375,83.74069563
2111.062462,95.28439357,82.40822858,86.63395022
2111.888783,92.99932104,74.1267654,79.63126168
2112.714967,80.66786175,59.30926744,55.34369497
2113.541013,67.72291002,49.10331656,48.05070165
2114.366923,63.37246884,49.26752289,46.56982385
2115.192695,69.19251202,55.73617723,46.60624885
2116.01833,78.83756558,61.54418657,68.34011613
2116.843828,83.390848,64.48739956,71.70538379
2117.669189,80.90093945,67.47330283,71.47729485
2118.494413,78.21215489,73.62515032,69.76832503
2119.3195,81.09291733,83.03849255,72.44151202
2120.144449,86.57900026,92.00482842,88.37991993
2120.969262,86.93937203,94.88799299,90.99678667
2121.793938,80.71137155,91.60896319,97.43116943
2122.618477,75.23077051,90.01948013,97.29970018
2123.442879,73.83522641,94.23380264,104.025644
2124.267144,69.98335612,98.21717775,117.7438719
2125.091273,61.17755746,97.25248859,105.6254086
2125.915264,55.09132232,95.23571097,104.221049
2126.739119,55.49120479,96.38239393,106.2828769
2127.562837,56.95026063,99.66962752,106.2158047
2128.386418,56.96548332,102.5309077,115.6848589
2129.209863,58.47702792,101.6617119,110.4129324
2130.033171,57.16146725,90.33267506,106.9435557
2130.856342,43.53534841,65.06225679,94.32366173
2131.679377,24.07247466,37.79774404,61.2243015
2132.502275,18.98199292,27.51145464,50.09689354
2133.325036,32.0566291,34.99356044,65.35217738
2134.147661,46.742182,43.42144377,61.05336171
2134.97015,54.07596175,45.03261944,47.33876752
2135.792502,59.74227322,47.1149851,56.23586755
2136.614718,67.9916665,54.25243008,50.65307298
2137.436797,79.74043419,63.48739579,41.3256665
2138.25874,97.88954943,73.26382345,46.70490509
2139.080546,120.1309822,83.52449479,55.97793777
2139.902217,137.2081992,92.44808399,74.27699682
2140.723751,147.9967309,102.7553726,79.271414
2141.545148,163.1891464,122.3064605,95.27815454
2142.36641,184.9890641,149.8407749,120.6125633
2143.187535,200.0588552,172.2325325,132.7268032
2144.008524,201.9014072,182.7010647,144.0732656
2144.829377,200.0094077,187.5477372,138.9997534
2145.650094,197.7364391,190.43808,145.4354143
2146.470674,184.3973252,185.4584442,147.0981658
2147.291119,159.154924,169.7234731,120.0190548
2148.111427,136.480471,149.0163796,112.8152877
2148.9316,121.0801937,128.7059281,107.036253
2149.751637,104.9256253,109.9711675,94.09872443
2150.571537,87.29240354,94.31228986,87.73362428
2151.391302,72.48987247,83.3416799,73.02095123
2152.210931,56.98955657,74.65907856,70.60853941
2153.030424,37.51862933,64.58494079,66.48245049
2153.849781,21.69359451,54.99592818,48.14718734
2154.669002,17.88617226,49.58896151,50.13704042
2155.488088,22.01405516,44.89744482,53.47317159
2156.307038,25.63428541,35.78913884,42.70887063
2157.125852,29.62285132,26.15189436,36.52524134
2157.94453,36.82431858,23.1250576,41.15356493
2158.763073,42.78578415,27.17088905,47.52735821
2159.58148,46.98395963,36.49924029,41.31761604
2160.399752,56.9228186,51.53772797,41.37475452
2161.217888,72.07653605,67.91988606,47.82731259
2162.035888,82.4714196,76.76883118,41.69613088
2162.853753,86.16736853,77.11907088,33.29781443
2163.671482,90.23452642,76.80552975,31.46148022
2164.489076,96.05331217,79.59858045,31.27788295
2165.306534,98.2453216,81.19205782,26.60762829
2166.123858,95.73807282,77.54092606,18.52565638
2166.941045,93.21714625,70.70446698,12.16705009
2167.758098,91.79924236,66.00213034,13.38438999
2168.575015,87.46196014,65.72112227,12.46084216
2169.391796,79.16854163,66.66343631,7.676254529
2170.208443,68.65931181,64.79073974,9.196650468
2171.024954,56.18778635,61.71915622,4.962851147
2171.84133,45.03707411,62.33853194,6.080099629
2172.657571,40.44922109,66.1325525,20.31050635
2173.473676,40.75168761,67.21474518,19.59627376
2174.289647,38.81540565,61.88288536,18.12940068
2175.105482,30.18569388,51.58150521,25.35634326
2175.921183,17.98318745,41.64762553,22.51528396
2176.736748,10.48923043,37.59142266,21.06786184
2177.552178,9.345422457,38.90431746,26.81348727
2178.367474,7.84404712,40.30828429,26.57574755
2179.182634,4.384043937,40.08013992,15.73162367
2179.997659,2.522957621,39.65510848,14.95815669
2180.81255,2.2015991,38.05623878,19.87213584
2181.627306,6.259837043,36.18032774,23.01778797
2182.441926,20.34018582,38.84315622,39.21466231
2183.256412,36.26397755,44.13696386,56.42506263
2184.070764,38.63869047,42.71693608,61.67162725
2184.88498,30.54121985,32.79384495,49.2846391
2185.699062,28.04935183,23.26425238,44.87939819
2186.513009,35.13915322,21.43349956,52.01623008
2187.326821,45.20500129,27.20318022,48.04976634
2188.140499,55.26995374,35.90228361,55.38169719
2188.954042,64.32409974,41.62282462,60.0387615
2189.76745,69.97641885,42.10607204,52.96027657
2190.580724,72.52094805,41.13024532,53.29295603
2191.393864,76.0181117,44.3815733,51.08255552
2192.206869,85.6806644,55.32028062,56.06242906
2193.019739,102.4391488,72.49351127,62.33934577
2193.832475,118.3894935,88.42516296,70.75572086
2194.645077,124.3242792,96.58671374,77.05004225
2195.457544,122.6179969,99.43153426,70.3295573
2196.269877,123.082523,103.4545548,65.24512047
2197.082075,126.2685553,109.5055404,58.53725078
2197.894139,125.5167826,115.2646452,55.29531362
2198.706069,123.6299587,121.8474757,44.92216888
2199.517865,127.9624654,129.3335552,54.6775548
2200.329526,135.3241771,133.4120583,67.87798481
2201.141053,138.643814,132.6412137,56.41530485
2201.952446,134.5243936,127.9678238,55.2699987
2202.763705,119.3176636,116.5028039,39.93327053
2203.57483,97.05317052,99.69775264,24.42414995
2204.385821,82.93818658,88.3006359,15.3273539
2205.196677,81.73848188,85.97692329,18.22773898
2206.0074,79.28029707,81.8076899,29.22387479
2206.817988,67.00045878,68.22165192,12.5521
2207.628443,53.0073815,50.3892525,8.799309336
2208.438764,42.17838378,33.35660603,5.625701677
2209.24895,29.58928294,17.15990022,-6.672842396
2210.059003,16.97194994,6.372241756,-4.518696012
2210.868922,15.63773245,9.480707478,-1.03422872
2211.678707,29.65795433,26.28866626,25.26783242
2212.488359,47.72089979,44.85404078,57.65919886
2213.297876,56.94586782,54.64099459,70.97658311
2214.10726,57.6073038,56.86058569,83.76099103
2214.91651,58.34778003,58.04976891,92.63449866
2215.725627,62.62085505,60.69422313,95.93013932
2216.534609,66.99993985,64.88487752,105.9146866
2217.343459,72.39308402,72.65508114,111.1028127
2218.152174,85.37951255,84.4486727,122.29989
2218.960756,103.4518991,95.29938152,145.0748099
2219.769204,114.5237362,100.6582549,141.2619161
2220.577519,114.7472681,101.5794873,137.843469
2221.3857,112.1397551,100.4968221,135.4735943
2222.193748,113.3419517,99.16826335,124.068645
2223.001663,117.0795979,100.6637012,126.9956408
2223.809444,118.6531834,104.0777582,123.9064623
2224.617091,113.2957468,100.5754058,119.9713558
2225.424606,99.14403263,85.01462671,99.25990245
2226.231986,83.93467801,66.88197694,70.98734211
2227.039234,77.46888749,58.44041017,66.68200888
2227.846348,75.72119674,58.65078331,56.69477277
2228.653329,71.29851988,60.26553366,44.7651884
2229.460177,70.83470874,63.50306926,47.10163163
2230.266892,81.35943776,72.20846105,51.74426176
2231.073473,94.11307885,83.84256687,60.99858336
2231.879922,96.81892962,90.14595287,62.27092218
2232.686237,88.32970483,85.14189372,53.4696879
2233.492419,74.83187674,71.06495315,43.56276948
2234.298468,62.75610531,56.89781652,25.0691682
2235.104384,56.32786536,50.20548104,24.11681356
2235.910167,57.37507915,52.18052035,25.41712063
2236.715818,67.88909183,60.78745369,23.12925679
2237.521335,85.59087566,71.74270421,41.42686825
2238.326719,97.46099019,77.20517723,48.61285398
2239.13197,93.88742445,73.45634002,45.48229746
2239.937089,85.51432882,67.64199275,35.01472693
2240.742074,86.92757323,68.15947211,35.86295145
2241.546927,92.79944972,72.57491145,50.30903777
2242.351647,90.38649336,72.08251643,48.61529937
2243.156234,79.8249281,62.29605674,56.33110559
2243.960689,65.81242885,45.94722704,53.23886135
2244.765011,51.22315517,31.14461924,37.10312826
2245.5692,43.78566409,26.2422949,38.10612066
2246.373257,46.16926966,31.0253572,43.29862502
2247.177181,49.83776931,37.71711661,47.37248824
2247.980972,52.99733164,42.34890965,48.57361406
2248.784631,61.45776509,47.38228693,56.60848908
2249.588157,71.39172663,54.86803027,65.74882604
2250.391551,77.53440874,64.73951282,64.01233867
2251.194812,85.33986903,76.63003195,70.11256436
2251.997941,88.25762036,81.18189654,68.959336
2252.800937,91.6329186,86.13609162,67.23302109
2253.603801,95.46576373,91.49261717,64.93361965
2254.406533,99.75615578,97.25147321,62.06113166
2255.209132,104.5040947,103.4126597,58.61555714
2256.011599,109.7095806,109.9761767,54.59689607
2256.813934,115.3726133,116.9420242,50.00514846
2257.616136,121.493193,124.3102022,44.8403143
2258.418206,128.0713195,132.0807106,39.10239361
2259.220144,135.106993,140.2535495,32.79138637
2260.02195,142.6002134,148.8287189,25.9072926
2260.823624,150.5509806,157.8062188,18.45011228
