Wavelength,HS_V3S1_AAB_C2_S1_I1,HS_V3S1_AAB_C2_S1_I2,HS_V3S1_AAB_C2_S1_I1
351.7692476,26.70638678,37.28041965,64.58724072
352.902517,23.24197913,36.09606631,59.20325015
354.0355789,20.14909425,34.94278669,54.31937894
355.1684331,17.42773213,33.82058078,49.93562707
356.3010798,15.07789277,32.72944857,46.05199455
357.4335191,13.09957617,31.66939008,42.66848138
358.5657509,11.49278233,30.6404053,39.78508757
359.6977753,10.25751125,29.64249423,37.4018131
360.8295924,9.39376294,28.67565686,35.51865799
361.9612023,8.901537388,27.73989321,34.13562223
363.0926049,8.780834598,26.83520327,33.25270581
364.2238004,9.031654569,25.96158704,32.86990875
365.3547887,9.653997302,25.11904452,32.98723104
366.48557,12.41555162,27.75323878,33.92712684
367.6161443,12.03112552,24.19138332,30.02247409
368.7465116,7.902751058,17.17727679,22.58769886
369.876672,6.788603012,13.69250319,19.46073428
371.0066255,10.40763044,15.82639219,27.26797993
372.1363723,15.19556055,20.21581778,42.24998114
373.2659122,20.49899143,23.54879857,56.24084838
374.3952455,24.70156424,24.30765613,67.6506324
375.5243721,27.16001971,22.62652689,79.85100682
376.6532921,31.06395129,21.02321239,93.08312217
377.7820055,33.0140362,21.54870949,103.8402036
378.9105124,29.77315752,22.25919914,110.1137742
380.0388129,27.37120677,20.48928047,113.3402744
381.166907,27.5873313,17.59749964,116.5171489
382.2947947,28.04632165,16.74512162,122.6956398
383.4224761,29.72045797,18.01115671,132.0664972
384.5499513,30.27911289,18.74122402,139.0097328
385.6772202,26.51915146,17.79177967,137.1775874
386.8042831,20.47185754,16.83859535,127.6386021
387.9311398,15.57682393,17.45501369,116.5544357
389.0577904,13.39508488,19.01255829,106.2533014
390.1842351,12.70374495,20.14152654,94.3679865
391.3104739,12.18845669,20.73421573,80.19812061
392.4365067,12.10236368,20.85868928,65.70637107
393.5623337,10.29132231,19.54108736,51.49228934
394.6879549,5.916164721,17.91664325,37.87747165
395.8133703,4.08213996,20.19810242,28.1886963
396.9385801,7.270143358,27.1429558,25.23198927
398.0635842,11.48448873,33.55017309,26.03197195
399.1883827,14.08903349,35.76825305,24.40750667
400.3129757,14.57591851,35.78879059,18.69042237
401.4373632,12.16619448,36.11736788,13.82933125
402.5615452,10.49237261,36.27532991,13.78922323
403.6855219,11.31253052,35.18240066,15.05604277
404.8092932,9.134572695,33.23776798,12.14707171
405.9328592,6.776970553,31.94197796,5.824386571
407.05622,10.42686024,32.41964947,0.651899637
408.1793756,14.26939702,33.74298312,-1.05960805
409.3023261,17.92052103,33.76312485,1.017330101
410.4250715,27.11605573,32.09867924,6.029984403
411.5476118,35.30171092,30.23670423,10.75688715
412.6699472,38.75964467,28.84492553,12.64936016
413.7920776,43.71240525,27.63925472,12.86850827
414.9140032,48.10544518,26.92210347,12.81775192
416.0357239,46.66937508,26.46248448,11.58031389
417.1572398,42.90186523,24.7101929,9.146588111
418.278551,41.12487313,21.35684736,8.050076735
419.3996575,41.39020714,18.0814139,10.98040058
420.5205593,43.0759239,16.01116848,19.0547029
421.6412566,45.96315149,15.35895014,30.70033529
422.7617494,49.05706715,16.20434713,41.54798814
423.8820376,50.67765811,17.07051959,48.63565942
425.0021215,50.34326064,15.58691457,53.4116636
426.1220009,47.21725318,11.84979338,57.91189582
427.241676,40.09437767,8.370410166,62.21740142
428.3611469,32.33583301,7.358548036,66.32833287
429.4804135,27.71712853,9.812977742,69.32428346
430.5994759,23.97833441,15.10821321,68.83523524
431.7183342,18.91718401,20.77284437,64.73364643
432.8369884,15.23111527,24.78767156,59.80198082
433.9554385,15.24773548,27.13240077,56.5690079
435.0736847,17.50472149,28.17243466,56.43227065
436.191727,19.41056835,28.22731581,59.761874
437.3095654,20.04092959,28.31716525,63.94396989
438.4271999,19.821061,28.50181045,63.40312018
439.5446307,17.78990487,27.4211319,55.1050906
440.6618577,13.26206706,25.1946099,43.29195666
441.778881,9.677157126,23.65725482,35.00523578
442.8957007,9.233602952,23.42671111,32.00605946
444.0123169,9.385075341,24.04770085,31.77291608
445.1287295,10.9963745,25.77020996,33.76748062
446.2449386,17.36783417,28.08599539,37.95799575
447.3609443,23.29301008,29.02788633,40.65188458
448.4767466,22.62384401,28.41008804,38.86152673
449.5923455,20.60196226,28.52492529,35.51767139
450.7077412,22.11152752,30.14446835,35.26952456
451.8229337,23.67158016,31.40444116,38.12975852
452.9379229,23.51531971,31.5118598,41.07287585
454.0527091,22.84548708,32.32862159,43.68138877
455.1672921,22.04223645,35.25788562,47.5513189
456.2816721,21.17196516,38.64305566,51.30884019
457.3958491,19.16244234,39.5822911,51.76102749
458.5098232,15.96429229,37.65535899,49.68400537
459.6235944,14.68544447,35.3493399,50.13301846
460.7371628,17.45703126,34.14163096,56.5526267
461.8505284,20.21718717,32.41614922,66.38079687
462.9636912,18.5125277,29.04895628,73.26551127
464.0766514,17.72279195,25.52892818,73.42258199
465.1894089,21.62454819,22.70250543,68.64400874
466.3019639,22.15155848,19.70196945,63.48453456
467.4143163,17.64095958,16.45514006,61.0737569
468.5264662,15.69475618,13.86343473,61.00572842
469.6384136,15.72338064,12.68516184,60.44394905
470.7501587,14.45056677,13.31567802,57.35408851
471.8617014,15.35881353,14.67288557,52.02478184
472.9730419,18.72414858,13.93878514,46.33528774
474.0841801,19.26850777,9.978907037,42.70630814
475.1951161,19.27016203,6.017926232,41.70841343
476.30585,25.50770618,5.434413973,40.18686016
477.4163818,33.56212223,6.267539181,34.7749551
478.5267115,36.56048117,4.397148416,26.97624857
479.6368392,37.9141187,-0.071010912,21.52907309
480.746765,41.37901305,-4.014142497,20.61144622
481.8564889,45.62453101,-5.804655338,22.10496957
482.966011,48.90126611,-5.302121167,23.11282228
484.0753312,50.66267132,-2.32485246,24.10427153
485.1844497,50.80159462,2.553677153,28.7273053
486.2933665,49.68123625,7.399678634,38.74538354
487.4020817,50.79297877,10.79493294,50.40319064
488.5105953,53.54324826,13.73095901,57.8611694
489.6189073,51.06062173,18.12137738,59.19409305
490.7270178,45.49877838,23.74348284,56.83572157
491.8349268,40.91333341,28.76539064,53.51810007
492.9426345,32.17808709,33.19075869,50.33843323
494.0501408,21.30868384,38.75394388,47.69179912
495.1574458,15.53459071,45.51269979,46.59616868
496.2645495,14.45349764,52.0574846,48.78838888
497.3714521,15.70478728,58.36105889,54.28030148
498.4781534,16.57253595,64.96430414,60.4385942
499.5846537,16.59397684,70.26227321,65.1408125
500.6909529,19.06636396,71.53610553,67.4084395
501.7970511,22.40523973,68.46315113,65.69993694
502.9029483,24.10040388,63.50676879,60.12069845
504.0086446,25.01718593,58.97289394,53.49472141
505.1141401,23.35677331,55.8698894,47.74708222
506.2194347,20.01229446,54.95118816,43.31251133
507.3245286,20.87838289,56.29877245,41.66962201
508.4294218,25.0955731,58.36300572,43.5798497
509.5341143,26.14877638,58.70989205,46.37434278
510.6386062,22.82538892,55.7029937,46.76749308
511.7428975,18.19642358,49.93421421,44.14762526
512.8469882,15.63380063,43.95724095,38.55851709
513.9508786,17.53822344,39.94379183,29.29117385
515.0545684,19.33727498,37.82188093,18.25067497
516.158058,15.53730126,35.89899665,10.20536999
517.2613472,12.87413399,32.91261129,7.442573124
518.3644361,16.79943789,29.57060275,7.610416029
519.4673248,20.29466524,28.07017082,7.191361075
520.5700133,20.42061998,29.19790734,5.512514228
521.6725016,21.66020765,30.62655915,5.758110958
522.7747899,25.18917953,29.96162221,10.77019576
523.8768782,28.54910409,27.95904609,18.06802858
524.9787665,30.48232591,26.46959216,22.60999325
526.0804548,32.76476361,24.90379218,23.47208883
527.1819433,34.48854175,21.16844721,23.89976614
528.2832319,32.99715101,15.81991561,25.68414072
529.3843207,29.88896901,12.63035023,26.68615845
530.4852098,25.09213284,13.7347212,24.54694781
531.5858992,19.17884777,17.3219649,20.44136733
532.6863889,17.40465751,20.89284482,16.84507503
533.7866791,18.06969963,23.62550883,13.64211801
534.8867697,16.33885965,25.98097309,9.194621129
535.9866608,13.13457294,28.3035973,3.638501478
537.0863525,8.225887333,29.59686069,-1.126234633
538.1858447,3.748658857,29.35304774,-4.219605515
539.2851376,4.705168159,29.35884926,-6.322145054
540.3842312,7.517525436,30.65634292,-6.152941373
541.4831256,6.582297643,31.43940067,0.228452338
542.5818207,4.749696956,30.47633339,14.06988053
543.6803167,6.655914293,29.6941049,31.38836754
544.7786136,10.42790311,31.86626111,46.5647148
545.8767114,10.92475257,37.12538071,56.00797498
546.9746102,7.710458158,42.43137826,60.51198551
548.07231,5.427965197,44.69466919,64.79703559
549.1698109,7.339979491,44.29673721,71.25547769
550.2671129,11.11298136,44.90372146,76.4907057
551.3642162,12.99489162,49.00962861,77.31441813
552.4611206,12.92729238,53.87308169,75.13815815
553.5578263,11.74924017,54.50169896,72.23176673
554.6543334,9.456751099,50.74008628,68.63905569
555.7506418,6.978027188,47.22085016,63.86195606
556.8467516,5.287302787,46.93526567,57.97326948
557.942663,3.983354299,49.05935145,50.70170073
559.0383758,1.759177862,51.39822766,42.28517976
560.1338902,-0.120147534,52.16479655,35.01792497
561.2292062,1.433998576,50.65354847,31.25185026
562.3243239,4.904212039,47.01951524,31.2067584
563.4192432,6.763023473,42.07497145,34.39355862
564.5139644,8.712881446,37.6222926,40.09292568
565.6084873,12.70729222,34.66317286,45.93066145
566.7028121,14.31604679,31.77383903,49.92947903
567.7969388,12.17171246,28.05701854,54.36772979
568.8908675,11.97163359,25.26142398,64.01537625
569.9845981,14.14165513,24.69465436,79.38449419
571.0781308,16.8681042,25.44881541,94.54443216
572.1714656,21.9855295,26.1545225,103.3359823
573.2646026,25.97056158,25.34376411,105.8395774
574.3575417,27.11982077,21.72287622,106.5739927
575.4502831,30.45197446,16.90086173,107.6155983
576.5428267,32.73757644,14.88790263,107.4173265
577.6351727,29.73069322,16.58384283,105.4455652
578.7273211,27.54873816,18.52049595,102.2066209
579.8192719,26.86174247,18.1294621,96.79073427
580.9110251,23.35615088,16.21345329,89.54741508
582.0025809,21.12218439,14.63108002,82.74561203
583.0939393,19.85260364,14.49097986,75.71237943
584.1851003,13.65089368,15.35751435,65.65499732
585.276064,9.058701306,15.7561922,53.90405574
586.3668304,11.3677305,15.70791829,44.9182555
587.4573995,12.59719893,16.96895359,40.07665665
588.5477715,11.98566975,20.19283022,37.02259027
589.6379463,12.81070391,24.335184,32.55124151
590.727924,9.436411147,28.2249926,24.57300495
591.8177047,2.418538005,30.82641772,14.52186066
592.9072884,-1.979441876,31.97985575,7.422861615
593.9966751,-3.088810432,33.50683024,7.998067798
595.085865,-0.234378894,36.66908414,16.37461938
596.1748579,6.210490176,40.17382517,26.29448372
597.2636541,13.35426639,43.54163697,29.85327092
598.3522535,19.12216333,47.99076107,25.84920359
599.4406563,20.17310008,52.29574962,20.08940676
600.5288623,17.39328009,53.7333654,17.40509706
601.6168717,16.5400604,53.07541652,17.23543851
602.7046846,17.9091028,53.38257031,16.98097971
603.7923009,19.57605937,55.47564941,15.93038567
604.8797208,22.70981578,57.7740029,13.96258533
605.9669443,25.09041359,58.323646,9.820522661
607.0539713,24.11599617,56.41306317,3.968885969
608.1408021,22.89506097,54.018335,-0.294845637
609.2274365,22.30197328,53.86122299,-1.233684934
610.3138748,20.38761636,55.41678384,0.626484661
611.4001168,19.92694399,55.71317937,7.30442497
612.4861627,22.69426558,53.23212123,21.67051933
613.5720125,24.81694652,48.82317936,39.92982281
614.6576662,23.09339577,44.47743795,53.80947751
615.743124,18.10464802,41.78250355,61.49916143
616.8283858,13.14578131,40.2381419,69.32263484
617.9134517,11.78215016,38.10040507,81.14825601
618.9983217,12.88336818,35.22629464,92.54815331
620.082996,12.76801589,33.17808309,98.12738467
621.1674744,12.72278321,32.47535176,98.79798309
622.2517572,14.27906631,31.90362256,98.26132497
623.3358443,15.17279539,30.64664548,97.68217043
624.4197358,15.08753367,28.54676517,96.28407742
625.5034317,13.01503234,24.79499305,92.89586944
626.586932,8.901414584,19.53789601,86.66980773
627.6702369,9.193007501,15.47382868,78.47488078
628.7533464,14.90971016,14.97682511,69.8878607
629.8362605,18.33155162,16.8063023,60.19459441
630.9189792,17.94504004,17.74543355,47.10462654
632.0015027,18.32028255,16.93562381,32.0326609
633.0838309,19.39804734,16.50873706,21.62767587
634.1659639,20.29536761,18.00066583,20.20553277
635.2479018,22.54620629,20.18739723,23.53564738
636.3296446,23.73375211,20.82539104,25.37525064
637.4111923,23.48130457,19.72688047,26.04282349
638.492545,25.177902,19.26359151,27.72921769
639.5737027,23.6581185,21.28238339,27.61024729
640.6546656,17.17478259,24.75322661,24.35823956
641.7354335,16.44870183,27.28797907,23.6802093
642.8160067,20.08750998,27.81957666,28.95377998
643.8963851,16.50523625,27.13950915,34.99399373
644.9765687,8.213185025,26.26297301,37.15772138
646.0565577,3.776761301,24.99134949,38.87979608
647.136352,5.107336839,22.61542601,45.86508116
648.2159518,10.43283178,19.52963863,56.98971405
649.295357,15.96928985,16.90989412,64.96292834
650.3745677,17.88878255,14.86498925,65.57166407
651.453584,16.08947173,12.76782847,62.51914604
652.5324059,16.40853913,11.22478118,62.03697483
653.6110335,22.19614082,10.81796979,66.00956888
654.6894667,27.63359084,9.656421495,71.31721231
655.7677057,28.99682841,5.803470188,73.38225937
656.8457504,29.17482546,0.934411581,70.7639938
657.923601,30.36721372,-1.762266817,68.23611754
659.0012575,30.9603283,-1.783745119,71.49509468
660.07872,29.03214497,-0.86140974,77.67587198
661.1559884,27.77196294,-0.17067254,78.65497152
662.2330628,29.21216731,0.31779516,73.27789744
663.3099433,30.22592203,1.039479316,67.1464475
664.3866299,29.19622311,1.77926389,62.63974637
665.4631227,25.82954445,1.441102342,57.95678962
666.5394216,21.79890436,-0.066787712,52.9527316
667.6155269,19.07111296,-0.779903437,48.80903183
668.6914384,14.01761744,1.010615514,45.08945115
669.7671563,6.38091755,4.447250696,41.17440102
670.8426806,3.441008629,7.201296412,37.39714736
671.9180114,6.54269512,8.808539178,33.57952735
672.9931486,9.080668729,11.83175123,29.02996737
674.0680924,8.109675985,18.10881691,23.93539176
675.1428427,6.424318136,25.27722861,19.68100505
676.2173997,5.626847935,29.82145767,17.84848288
677.2917633,5.146137792,31.8714579,18.85842038
678.3659337,5.913769426,33.90473098,21.93639681
679.4399109,7.839726922,36.32414258,26.1782207
680.5136948,8.56139858,37.63407935,29.42873683
681.5872856,7.595823445,38.24455813,27.33064604
682.6606834,4.694086549,40.46016132,18.69612652
683.7338881,0.62654878,44.10787565,10.84425193
684.8068997,-1.118796554,45.73067947,12.66603084
685.8797185,-1.08081055,43.38134431,23.16723882
686.9523443,-1.53897035,38.98446795,33.37223128
688.0247773,-1.005416481,35.12924699,38.08306676
689.0970174,2.632060261,32.62353473,40.81183988
690.1690648,9.442582937,30.9131308,47.59743715
691.2409195,15.02512386,28.40778271,58.27936759
692.3125815,17.00784664,24.16590165,66.48554041
693.3840508,20.57210002,20.30192036,68.46545106
694.4553276,25.84651859,19.46863234,67.03250046
695.5264119,27.38040091,20.74164089,66.32286542
696.5973036,28.25708873,22.20086059,68.40151207
697.6680029,32.99242284,24.75989127,74.36067418
698.7385099,35.99690713,29.08446764,83.80552838
699.8088244,35.07072039,33.27509391,93.96529529
700.8789467,38.60531407,36.76877808,101.349793
701.9488767,45.6278615,41.12171319,103.9948754
703.0186145,45.33286136,45.81110619,102.8204039
704.0881601,40.48201135,48.73536124,101.1941537
705.1575136,38.81283977,50.68022254,101.5478126
706.226675,36.41169875,54.36532081,101.8296997
707.2956444,31.20897775,59.50175267,97.73719957
708.3644218,24.91824035,62.41127208,89.74460458
709.4330073,17.508059,60.21638293,84.30229563
710.5014009,12.94946951,54.07658352,85.20179516
711.5696026,11.1181538,48.48630553,88.07922547
712.6376126,8.280602699,46.92743312,87.86688355
713.7054308,8.576888946,48.44989255,87.32631121
714.7730573,14.04492392,49.37979878,92.23725708
715.8404921,17.33554513,47.46173006,100.3632319
716.9077353,14.91883721,43.89552976,102.1287421
717.974787,12.93557944,41.96227603,93.41763394
719.0416471,14.28194058,43.08636629,80.67953694
720.1083157,13.34259327,44.92393543,71.45961272
721.1747929,8.520640649,44.96877273,67.09187479
722.2410788,5.298417875,43.68494243,64.80646943
723.3071733,4.807223797,42.0595556,61.1322993
724.3730765,3.376660798,40.05332359,54.52741584
725.4387884,3.241213873,39.22048117,46.31096948
726.5043092,6.892442207,41.74904759,37.61470003
727.5696387,6.663405334,45.42447896,28.56656003
728.6347772,0.34944865,44.97738663,21.68840554
729.6997246,-1.167565297,39.96228297,20.6891137
730.764481,4.39218233,35.80616944,24.20924146
731.8290465,8.732631527,35.23433973,25.48088046
732.893421,10.77291014,34.73635165,20.63863128
733.9576046,13.76415196,31.43926994,13.46092864
735.0215973,16.90886185,27.15639903,8.834139384
736.0853993,18.20924803,24.2560388,6.712054091
737.1490106,17.85555516,22.94163861,6.579278823
738.2124311,18.87710584,22.99460581,10.9342412
739.275661,23.07086547,24.04927904,18.98892292
740.3387003,27.27572353,24.89917615,23.40605894
741.401549,27.11913595,25.44334644,19.33902829
742.4642072,24.572101,27.01236463,12.50245667
743.5266749,24.9094821,28.85304073,11.95437397
744.5889522,26.04150024,27.94578751,17.541436
745.6510392,24.06070709,24.0895081,21.32421599
746.7129358,20.30912443,21.06657812,19.01150496
747.7746421,15.3164497,20.65720088,13.34995823
748.8361581,10.48856859,20.01396561,9.014169652
749.897484,9.956414336,17.07347187,8.732014899
750.9586197,11.91218872,13.88990074,12.35354267
752.0195653,11.60503592,12.64519723,19.07801074
753.0803208,11.77450649,11.91181075,30.57787901
754.1408863,15.46946276,9.385391838,48.49692157
755.2012619,20.01166803,6.451285875,69.42147964
756.2614475,24.56655228,6.199515079,85.92488284
757.3214432,27.32539924,7.831269855,93.34141108
758.3812492,24.4602512,7.748627548,94.8871267
759.4408653,20.28684514,5.534099676,97.52581291
760.5002916,19.81080959,4.212117809,102.644403
761.5595283,18.38373609,5.31112317,105.7273015
762.6185753,15.71556845,8.091672316,104.0611512
763.6774327,18.48770201,11.87684841,98.78543062
764.7361006,23.09556447,15.07911131,91.13395691
765.7945789,22.33565487,15.64848135,81.69822938
766.8528678,19.41211563,14.74849382,72.68552213
767.9109672,20.23819382,15.0300086,67.09119776
768.9688772,24.09348086,16.22749928,64.87654616
770.0265979,25.33674362,17.21012305,62.63115355
771.0841294,23.43426284,18.91605247,56.565912
772.1414715,21.18286002,21.3916628,44.72364781
773.1986245,16.24621993,22.20349449,30.71441187
774.2555883,12.32791898,20.70206233,24.70843013
775.312363,16.94661059,19.31295601,33.36610963
776.3689486,23.86385025,18.93930787,50.74334257
777.4253452,25.69511128,18.02640356,65.39270395
778.4815529,25.69981317,16.61350543,73.10884167
779.5375716,25.36267163,16.59167568,78.38517203
780.5934014,23.88738623,18.00472356,85.55233557
781.6490423,21.93751588,18.70555256,92.49232788
782.7044945,17.23975358,17.56829564,95.00130026
783.7597579,9.873129215,15.73074372,93.79186134
784.8148327,6.34972694,15.14779937,92.08836648
785.8697187,7.770482507,16.56377555,89.94940142
786.9244161,5.270203839,18.48808942,86.98560883
787.978925,-0.257077631,19.47611088,86.38410361
789.0332454,2.278869513,20.32094125,90.01897493
790.0873772,9.260883697,21.94140624,93.53641701
791.1413206,11.57701261,23.99448735,92.17807627
792.1950757,12.87234121,26.26270016,88.06903106
793.2486423,16.89382072,28.35751307,86.29222311
794.3020207,19.79605506,29.41639705,87.01951792
795.3552108,18.74741609,29.46857334,85.87676672
796.4082127,18.21395538,29.07171642,79.26852305
797.4610265,21.37051859,28.67196911,68.22328899
798.5136521,22.8525034,29.32102588,59.0072517
799.5660896,22.62649727,31.02015239,57.03056481
800.6183391,25.80124206,31.22773429,58.58592824
801.6704006,27.61576604,29.05947399,53.81919759
802.7222742,23.64546625,28.32592072,39.90458961
803.7739599,19.83308965,31.84673944,26.05645815
804.8254577,20.02862934,36.47715587,21.70459068
805.8767677,21.607903,37.82239452,24.53092289
806.9278899,22.62447733,35.81816721,26.35521069
807.9788245,22.33532094,33.10160284,25.37464001
809.0295713,19.58002741,31.5712169,25.06046582
810.0801305,15.57123983,31.70204883,26.5738378
811.1305021,12.44314654,32.49433251,29.02602682
812.1806862,8.792535923,32.34352841,33.09158488
813.2306828,6.276275942,31.40764811,38.97927983
814.2804919,11.33792632,31.17600572,42.89031
815.3301136,21.20799113,31.52814622,41.53467738
816.379548,27.07625305,30.81219671,39.97110606
817.428795,30.60346433,28.21079057,47.7093417
818.4778548,37.87628621,24.62781748,66.71533189
819.5267273,45.65002431,21.6555741,89.62769217
820.5754126,48.195132,19.67897739,108.6222452
821.6239108,49.57402514,17.86039605,120.7449993
822.6722219,53.93344499,16.15761576,126.037514
823.720346,53.84799256,15.12163804,125.8335726
824.768283,47.14854886,14.14924977,123.9457458
825.8160331,43.5167769,12.68469758,124.7723395
826.8635963,44.52524941,11.96723918,128.3197376
827.9109725,44.06430422,12.5433113,131.4097338
828.958162,41.46922015,11.96674197,133.3256714
830.0051647,40.58726431,8.647010673,135.7069429
831.0519806,43.17277504,5.320587349,139.7074008
832.0986098,43.40283488,5.109213299,146.1224186
833.1450524,37.01417872,7.016452102,153.4834749
834.1913083,30.27105992,7.775634001,156.0093148
835.2373777,26.22540226,6.23500011,149.2947396
836.2832606,21.0540908,4.632999036,135.8216442
837.328957,16.94947848,5.973471839,120.3147923
838.3744669,17.06248903,10.55849951,104.213349
839.4197905,18.09858864,15.74675849,88.95583044
840.4649277,18.49451267,19.40287063,79.48926424
841.5098787,19.44207898,22.1140965,79.61126
842.5546433,20.49759402,25.36921185,87.11577053
843.5992218,21.31464465,29.42656702,95.45653795
844.6436141,20.73867328,33.26544166,97.18634573
845.6878203,17.67956643,35.4791902,88.13174462
846.7318404,14.37491307,35.55988757,72.05234381
847.7756744,11.7426499,34.57279113,57.74873688
848.8193225,8.835222093,33.88164868,49.73524316
849.8627846,8.053561172,33.61157449,45.26699478
850.9060608,10.34497806,33.43842276,40.25837814
851.9491512,12.63599519,33.29920744,34.21730419
852.9920557,12.46463387,31.86313944,29.02390526
854.0347745,9.647450088,27.53543246,26.30913802
855.0773075,8.854902532,22.01466114,26.97844515
856.1196549,11.89884766,19.08744391,30.26947467
857.1618166,11.62180943,19.93352646,32.76280151
858.2037927,7.888657533,22.2227872,30.98723637
859.2455833,7.031461211,23.75079449,25.57788692
860.2871883,6.036111957,26.0674174,20.79588364
861.3286079,2.592655728,32.32334926,18.84971521
862.3698421,1.464867963,40.84252491,17.38557638
863.4108909,1.176548546,45.66579377,14.6202638
864.4517544,-2.005169786,44.53208389,13.69758621
865.4924326,-3.787316756,40.69057762,18.59945717
866.5329255,-1.29805384,37.42889257,27.78461554
867.5732333,0.920156671,35.96287266,35.34571794
868.6133559,0.22643112,36.79952479,37.55524126
869.6532933,-1.805204701,39.9591372,36.01460992
870.6930457,-4.872292908,44.78884066,35.07682638
871.7326131,-8.20280538,49.7075044,37.12847422
872.7719955,-7.992392319,53.29250633,40.38807171
873.811193,-2.55594517,56.65730896,41.48879367
874.8502055,3.573610001,62.20408279,39.48288941
875.8890333,5.930989112,69.84433457,35.93306782
876.9276762,6.18841706,76.43388282,32.39639878
877.9661343,6.973072069,79.03005054,29.88637312
879.0044077,9.396389494,78.64047758,29.14492352
880.0424965,15.61972521,79.2872145,29.91568015
881.0804006,23.42042402,82.90011332,31.29002801
882.1181201,26.58852125,88.25509574,32.36470585
883.1556551,26.27481098,94.04732971,32.20470971
884.1930056,29.02558556,99.45240931,31.52100645
885.2301717,35.22940548,103.7361032,32.96914715
886.2671533,39.08214588,106.9499177,36.59387135
887.3039505,38.47317382,108.7210219,38.66847796
888.3405634,39.18056052,107.0859812,37.84638195
889.3769921,42.63950918,100.3947862,37.61717559
890.4132365,43.15740481,90.06884924,40.39123875
891.4492967,41.70427043,81.05992768,42.91476589
892.4851727,39.98998344,77.70717206,40.81532365
893.5208646,34.43230771,78.44436835,36.40222899
894.5563725,28.46679827,77.95819051,36.14842868
895.5916964,26.83988238,74.34960632,39.77852017
896.6268362,26.16897396,69.80823194,40.23987275
897.6617922,25.16812531,65.8232528,35.15278787
898.6965642,25.05134739,61.92200805,28.51769849
899.7311524,21.88629787,57.43003415,21.96616899
900.7655568,14.80569413,52.09832862,14.48258386
901.7997774,9.875533958,45.89326407,8.774389683
902.8338143,9.677732853,38.958504,7.965656115
903.8676675,11.71173976,31.66080338,8.624188219
904.9013371,12.89452209,24.34729877,6.62742211
905.9348231,10.66514342,18.04155035,5.080534956
906.9681256,7.222248791,15.42346921,7.294670436
908.0012446,7.097266843,17.56603597,10.30906384
909.0341801,8.214956635,20.74954445,13.07254411
910.0669322,7.131225246,21.65686508,20.12753827
911.0995009,5.929236672,22.05008661,31.80105743
912.1318863,6.145003542,23.28739461,41.69255116
913.1640883,6.706159966,22.55598849,46.68110591
914.1961072,6.591215866,19.07007653,50.13181537
915.2279429,6.858475907,17.21396215,54.79434317
916.2595954,9.552738266,19.86757759,59.66235626
917.2910647,11.50048546,23.99950241,63.46408163
918.3223511,10.47748065,25.41359268,66.50865087
919.3534543,11.89652183,24.1525112,68.0114794
920.3843747,15.74724375,23.3076238,64.47119964
921.415112,15.68910782,24.5176555,54.80019677
922.4456665,13.67214888,26.34054302,44.46170786
923.4760381,13.64931846,26.64142209,38.64518929
924.5062269,13.55582648,25.30501094,35.80313511
925.5362329,14.31194956,23.84213156,32.66065381
926.5660562,17.26192257,22.99035955,27.93678661
927.5956968,19.07938165,21.61982424,19.33450834
928.6251548,18.95709326,18.02709108,7.04213065
929.6544302,18.15731948,12.67637225,-1.305500211
930.683523,16.68050568,9.253193527,-0.343356539
931.7124333,14.39023378,10.36111808,3.367595588
932.7411612,10.95184871,12.71127031,3.008341494
933.7697066,9.388153315,11.39705293,3.891464073
934.7980697,14.53901159,7.870997348,12.56673504
935.8262504,21.89398118,7.121810892,24.71673918
936.8542488,21.2057125,9.03854693,34.22236355
937.8820649,16.35081254,10.06306759,44.07244375
938.9096989,19.89451997,10.38734588,59.27073736
939.9371506,28.65645493,12.39700802,76.24546534
940.9644203,32.85494363,15.15208371,88.0816342
941.9915079,33.80067669,15.87390161,95.47899172
943.0184134,33.74303123,14.65084638,104.769836
944.0451369,34.23542571,14.35929523,118.1138877
945.0716785,38.84772343,16.8693714,130.5454766
946.0980382,42.53044352,21.15248142,136.7123912
947.124216,41.0430716,24.97363747,138.2813816
948.1502119,41.57774603,26.83627846,140.2417491
949.1760261,46.84210523,26.04637124,141.7204681
950.2016586,50.37005376,22.70728777,138.580849
951.2271093,48.84815444,18.36711027,132.6803623
952.2523784,45.30118734,15.00133913,129.9067729
953.2774659,43.22106996,13.07103489,130.5196462
954.3023718,40.79548313,12.37752623,127.0951074
955.3270962,35.63992914,13.76315326,113.2876921
956.3516391,30.80238731,17.27597128,94.03293494
957.3760006,28.57412535,20.63919427,83.04671676
958.4001806,26.98888798,22.61385827,85.87389349
959.4241793,24.33897529,25.00676599,92.28577277
960.4479967,19.8415893,28.38198026,93.28371002
961.4716329,14.09828774,29.90873568,94.88989124
962.4950878,11.83337666,28.42948154,104.2538324
963.5183615,14.06796612,27.19903438,114.16286
964.541454,14.59948259,28.93415373,114.2265363
965.5643655,13.49197481,31.80818203,108.2905337
966.5870959,13.32893736,32.8054773,108.2141598
967.6096453,10.23821029,32.55482175,116.1034225
968.6320137,7.287329378,33.95089004,123.1108175
969.6542011,8.867241584,37.10199624,122.0730323
970.6762077,8.327352823,39.14818364,114.7696437
971.6980335,6.330842416,38.7885422,108.3258485
972.7196784,12.0113129,36.66113688,106.2376287
973.7411426,22.53043203,32.37839275,104.4878523
974.762426,27.23975375,26.53568385,98.77809652
975.7835288,23.03414172,22.86807929,90.87560605
976.804451,17.50425429,23.24894066,82.98304234
977.8251925,18.27156622,24.21382477,71.40250755
978.8457535,22.68456737,22.33674148,52.43486965
979.866134,26.08979282,19.60640452,31.46864691
980.886334,29.53169259,19.60817984,19.47534152
981.9063536,33.80810565,21.23642795,19.84077556
982.9261929,36.95405864,21.24420059,23.16249348
983.9458517,38.24027668,20.20505398,19.06599107
984.9653303,39.50233726,20.38422339,10.61935705
985.9846287,41.55870923,20.89409247,8.078529136
987.0037468,43.62727035,20.04877433,10.29093907
988.0226847,45.89749423,19.31184643,7.508160371
989.0414426,47.38963098,20.64834778,0.902309505
990.0600203,47.1633048,22.7253493,1.477963822
991.078418,47.12540906,23.23400665,11.3529605
992.0966357,46.87628812,22.91822966,21.20114901
993.1146734,44.69215376,24.46301795,24.48410039
994.1325312,43.86625071,28.67130699,23.71378306
995.1502092,46.93413512,34.14652759,22.89584167
996.1677073,48.49151637,39.55482918,20.94190514
997.1850256,43.70870572,43.84246028,15.47113318
998.2021641,36.42231881,45.96536706,8.677734605
999.219123,28.86210856,46.3635868,5.164266125
1000.235902,18.96358293,46.44454918,6.666452062
1001.252502,12.32018752,45.93049885,12.68217976
1002.268922,14.37556182,43.55568008,23.96957649
1003.285162,19.00233906,40.45040959,41.5950296
1004.301223,20.57444406,39.69595229,64.15465069
1005.317105,20.78055383,41.66382129,88.50436784
1006.332807,20.03852736,43.04690056,111.2854217
1007.348329,16.38277847,42.162953,129.700602
1008.363673,12.3264374,41.07730463,145.0388264
1009.378837,12.94780658,40.88515913,163.3458648
1010.393822,15.90740434,40.3043285,186.9432467
1011.408627,15.39831309,39.22216281,211.3084138
1012.423254,13.22424026,37.9653623,235.5629173
1013.437701,13.11080305,35.31413325,263.4925026
1014.45197,16.50529069,31.44230972,290.1288393
1015.466059,22.66709173,28.58046332,303.2319981
1016.479969,23.48198607,27.86000094,300.0931274
1017.4937,17.90426463,30.00748672,289.2649012
1018.507253,17.33107741,36.34097276,277.0559576
1019.520626,20.36686186,45.13850956,263.2792811
1020.533821,17.60696836,51.16132387,248.5250832
1021.546837,15.37703278,51.42474692,237.1576778
1022.559674,22.24810624,48.34813931,232.5027698
1023.572333,31.21411893,46.43096895,232.0546991
1024.584812,33.26335727,47.6708479,228.3775731
1025.597114,32.54650702,50.28579642,217.3595676
1026.609236,35.84220623,51.35361242,204.6557711
1027.62118,41.62238927,49.94638523,197.6063211
1028.632946,48.03190834,47.42489668,193.2019773
1029.644533,52.81892466,45.83101524,182.0939441
1030.655942,52.32988835,45.82544655,161.6814139
1031.667172,51.39053938,46.0849694,139.1527663
1032.678224,53.23722851,45.53237024,123.7113832
1033.689098,52.45575222,44.70405862,117.8866314
1034.699793,50.18299491,44.05732739,116.0158204
1035.710311,49.25993641,42.21657394,112.6704557
1036.72065,46.32842261,37.75823196,108.6621613
1037.730811,43.1696612,33.55203273,103.8925305
1038.740794,41.7004415,34.49043675,93.7149158
1039.750599,36.44779721,38.96269233,79.53084555
1040.760225,27.17300134,40.88982451,70.89031824
1041.769674,20.59376183,40.1495916,71.28127964
1042.778945,18.09698837,40.74067165,74.3180375
1043.788039,15.75983322,41.94059603,76.25231578
1044.796954,12.97142749,40.70735972,79.86733346
1045.805692,12.35470498,37.84146867,85.57115608
1046.814251,12.98207124,35.97225194,88.64218652
1047.822633,9.433114452,35.83179772,85.31946699
1048.830838,1.006417467,36.02806182,76.85330464
1049.838865,-3.92733555,33.84803697,68.52946398
1050.846714,-1.903838238,27.50971515,64.47103907
1051.854386,-0.350846103,19.22904103,61.97384605
1052.86188,-3.175393117,14.1044477,54.86313961
1053.869197,-7.186315269,13.70419268,43.22992755
1054.876336,-7.553729617,13.20759149,33.96612843
1055.883298,-2.465439239,8.685540213,31.06898757
1056.890082,2.916274773,3.436949087,30.31215501
1057.89669,8.769265565,2.921048518,24.5653142
1058.90312,19.48287633,8.227394391,12.89724062
1059.909373,29.02156125,17.53479317,3.04521821
1060.915448,37.2302648,30.19786764,3.134493769
1061.921347,52.48283191,47.19137071,12.35681606
1062.927068,69.44562206,67.80988356,24.28522998
1063.932613,82.22973466,88.42787145,37.44726902
1064.93798,98.28353738,107.4890092,55.04049386
1065.943171,119.6732992,128.0021241,75.99985432
1066.948184,139.4273475,151.3039529,95.40126344
1067.953021,156.0238137,173.6275845,111.9426914
1068.957681,171.8963505,191.714229,127.633201
1069.962164,183.6435398,206.2284788,141.6903933
1070.96647,186.6724643,218.4603515,149.8786009
1071.9706,183.9746542,227.5693277,150.6072763
1072.974553,181.5354945,230.898266,147.2684319
1073.978329,179.2917903,226.0149705,142.182355
1074.981929,170.834721,213.9260912,135.1086058
1075.985352,154.8411783,199.1198034,129.3782673
1076.988598,139.1741683,183.8867218,128.7371828
1077.991668,126.1045764,165.2452892,127.7157067
1078.994562,110.5911176,140.9774316,117.0488338
1079.99728,92.03956354,114.8304843,97.27854853
1080.99982,73.97555439,92.14889975,77.52951207
1082.002185,58.58281566,74.4776502,64.78397285
1083.004374,43.82132424,60.49549253,60.1425574
1084.006386,30.69990885,48.77268352,60.89594697
1085.008222,24.01025502,38.70541536,63.18552492
1086.009882,19.66801006,30.21603694,64.28395637
1087.011365,13.76665646,23.35761778,63.73106019
1088.012673,9.832685549,18.53302133,63.74833998
1089.013805,8.38146695,16.06558584,67.09639306
1090.01476,9.315798775,15.0488068,72.63506705
1091.01554,11.61834767,13.98648139,75.94933749
1092.016144,12.37157286,12.97424174,75.16877439
1093.016572,13.02536417,13.67494236,72.72539493
1094.016824,14.4877435,16.5424139,71.01211417
1095.016901,16.04841714,19.83116006,69.79522827
1096.016801,18.3824198,21.84351574,69.54650103
1097.016526,21.09327367,22.32576458,72.42467283
1098.016076,23.05611828,21.62997683,77.00713985
1099.015449,22.72726832,20.08442208,78.43936181
1100.014648,22.05334927,17.9353099,74.99011601
1101.01367,23.69489933,15.35421942,67.71277927
1102.012517,22.89750688,13.11083964,57.438643
1103.011189,18.64230364,12.39397638,48.91912206
1104.009685,17.37692242,13.1478949,50.39627595
1105.008006,18.01690837,14.35036844,63.82082623
1106.006152,16.20378928,16.02691363,82.76888214
1107.004122,16.55386363,19.17284543,100.2095884
1108.001917,22.23100336,24.38228718,111.9576128
1108.999537,24.11280259,31.02846151,115.8045817
1109.996982,17.01711176,37.12084022,113.467071
1110.994251,9.408868406,41.49085819,111.4320207
1111.991346,5.504541816,45.66302271,115.0748088
1112.988265,5.282311064,50.74024759,121.9401291
1113.98501,11.01499082,54.53976069,124.6137054
1114.981579,15.03435066,54.98528685,121.2220141
1115.977974,13.17305979,53.52831401,118.5792699
1116.974193,15.80813019,52.81791135,122.2849701
1117.970238,23.01382648,53.57034495,128.2585526
1118.966108,25.0489795,54.89452783,128.0735594
1119.961804,23.31532774,55.20622714,119.4535315
1120.957324,23.35792431,52.25385171,106.1669592
1121.95267,22.42064154,44.51002467,90.36341388
1122.947841,18.07301039,33.23916956,73.53482255
1123.942838,16.14900974,22.24571893,61.62846779
1124.93766,18.21402308,15.33811616,58.54645641
1125.932308,17.31371888,13.3940308,59.31362515
1126.926781,12.34549986,13.52432381,58.13654545
1127.921079,8.940737666,13.00647294,56.63548536
1128.915204,10.51499084,14.59690457,59.98451851
1129.909154,17.29983584,24.95387917,71.18211632
1130.902929,28.46934703,46.94899639,88.88692633
1131.896531,42.52302974,76.2636326,107.7503699
1132.889958,58.20735926,105.8965345,125.1727681
1133.883211,78.16585638,132.2678207,148.0114482
1134.876289,106.4516991,156.9837181,185.1180945
1135.869194,142.2118735,182.7515097,233.3130881
1136.861924,180.1835811,208.1719067,279.5319398
1137.854481,214.2372909,228.9739246,317.6910751
1138.846864,243.5943486,243.5287757,354.1753467
1139.839072,272.7174812,253.4608331,393.1845527
1140.831107,299.5264731,259.4154269,425.4224697
1141.822968,317.1554844,259.5986353,439.4594071
1142.814655,327.4450717,252.6470284,439.750792
1143.806168,335.7293352,239.243869,443.4957153
1144.797507,340.0357327,220.2010392,458.1980861
1145.788673,336.6591325,195.6820833,471.1835268
1146.779665,327.2422774,167.302364,467.9189269
1147.770483,315.4639091,138.453779,451.7820226
1148.761128,301.2067626,111.6755731,434.6367319
1149.751599,283.1430003,86.76107995,416.5316615
1150.741897,261.4906047,62.04815639,388.1030198
1151.732021,236.3431962,38.2231179,347.9892935
1152.721972,210.6901428,19.55312091,306.5285035
1153.71175,187.0353107,9.124108452,273.2422394
1154.701354,164.6274269,4.808004826,248.4607188
1155.690785,146.1035908,2.768491251,228.1549609
1156.680042,133.3102144,2.202710383,211.9578324
1157.669126,123.0675398,3.608327945,203.6237662
1158.658037,113.8746319,5.841579817,204.0594518
1159.646775,105.4653056,7.888967293,207.7894058
1160.63534,96.10521794,10.52611916,208.6871413
1161.623732,86.61701411,14.2643358,204.7469128
1162.611951,77.87030044,18.07221796,195.8541617
1163.599996,68.67258148,21.20195457,181.6427947
1164.587869,61.46826926,23.96911038,163.0709719
1165.575569,57.06111365,26.05125364,144.9308229
1166.563096,52.68528793,27.00347231,134.7577721
1167.55045,50.14964374,28.68050953,135.0284032
1168.537632,48.10497201,33.44577844,136.5734346
1169.52464,41.32576557,40.44385673,126.2249545
1170.511476,35.33309713,46.82875716,103.8969485
1171.498139,37.14305932,51.28313765,84.49594414
1172.48463,40.27521797,53.95056084,76.71367855
1173.470948,37.43935074,54.40113303,69.9594225
1174.457093,29.48075873,52.26865978,51.99574065
1175.443066,18.33886007,49.89733965,27.66266615
1176.428867,9.254735672,51.62774325,9.51392634
1177.414495,7.317888234,58.97323109,2.745474184
1178.399951,7.916615,68.62723665,7.051806025
1179.385234,7.080462565,76.91645487,19.55971407
1180.370345,7.056713769,83.63768495,32.01314422
1181.355283,6.028334887,89.81722353,36.30374387
1182.34005,1.723223035,95.65128034,33.19627543
1183.324644,-1.987191617,102.3449728,30.61882422
1184.309066,-2.292003253,111.8235949,35.87439568
1185.293316,-0.08103075,123.5356204,50.39918727
1186.277394,2.984684425,134.280697,68.74907394
1187.2613,5.535548183,141.6772252,82.72378261
1188.245034,8.039795878,146.2309869,89.64173439
1189.228596,10.22964673,149.438961,95.12267393
1190.211986,10.61238732,151.8627196,104.6807555
1191.195204,10.75199282,153.5605577,117.0404772
1192.17825,14.08634783,153.4960032,128.6470971
1193.161125,20.82476739,149.0607049,139.0608974
1194.143827,26.12185073,138.8695859,149.087914
1195.126358,25.77323027,124.6040774,156.3756748
1196.108718,21.4226849,108.8987251,155.7832157
1197.090905,17.00972815,93.14310562,146.2743717
1198.072921,13.79789739,78.15471848,134.6268918
1199.054766,10.63454976,65.53470744,128.0660181
1200.036439,8.620603786,55.9894646,127.5795186
1201.01794,8.455052899,47.03997789,131.9265338
1201.99927,6.330283501,36.021175,140.366927
1202.980429,2.416065186,24.52736092,148.5816824
1203.961416,-0.043297709,16.19353919,151.054122
1204.942232,-1.69927971,11.64289853,150.2992797
1205.922877,-0.695969251,8.580637383,157.13009
1206.90335,3.434833464,5.312224037,179.5635204
1207.883652,4.461130632,2.25797608,213.6252926
1208.863783,2.689927654,0.401831989,244.6164406
1209.843743,4.044897811,-0.573992118,257.9758054
1210.823532,7.542614166,-1.38485303,252.9084406
1211.80315,9.694387718,-1.441579447,243.8137704
1212.782596,10.48006216,-0.075806615,243.3468726
1213.761872,11.7825873,2.150071937,248.9198789
1214.740977,16.13618301,4.749044747,251.0744146
1215.719911,24.31313308,7.788946165,247.0854716
1216.698674,32.14936269,11.01841844,240.0517787
1217.677266,32.86104551,14.15455129,230.2056271
1218.655688,28.26560798,17.61564938,213.2764612
1219.633938,27.48432641,22.12829439,188.0031301
1220.612018,30.15433558,27.17800139,161.4470928
1221.589928,30.67348594,30.99684302,143.2501758
1222.567667,31.76368716,33.13208138,137.2877891
1223.545235,36.41085652,34.55292163,141.0841516
1224.522632,41.10205561,35.4505442,148.3091709
1225.499859,42.71519312,35.99181477,151.0721282
1226.476916,41.6199933,36.78893918,147.1542756
1227.453802,40.60814838,37.09918649,144.3248017
1228.430518,42.25771668,35.97145047,150.4768474
1229.407064,44.25885313,34.05487405,163.3068067
1230.383439,42.99559937,32.03362214,174.7493621
1231.359644,40.28403745,29.84342356,179.1316927
1232.335678,39.24013221,27.65329933,173.8155442
1233.311543,39.29448326,25.6554749,158.9539758
1234.287237,37.58323722,23.92010003,139.2615151
1235.262761,31.75787219,22.87176137,121.2787526
1236.238115,24.52693057,22.62154175,107.7545049
1237.2133,21.16380789,22.32052454,97.60926446
1238.188314,21.0764061,20.9799944,90.39794296
1239.163158,20.67943261,18.27958789,87.36749468
1240.137832,18.87785333,15.148255,88.20324426
1241.112336,14.28294714,14.50380501,88.72137334
1242.086671,8.692537176,19.11485687,82.84373533
1243.060836,7.643537088,26.92055346,68.42139718
1244.034831,7.78145172,31.68246574,51.29476567
1245.008656,3.938828575,30.58953682,41.45963726
1245.982311,3.057070939,27.77948567,44.72738817
1246.955797,7.52013257,28.48470957,57.55529455
1247.929113,9.804884508,33.28872545,68.27264096
1248.90226,9.062072151,39.09227707,67.28271694
1249.875237,7.82533649,42.83241419,59.67219766
1250.848045,6.814371963,44.09332229,60.27249493
1251.820683,8.058934538,44.90671248,73.24579184
1252.793152,10.90521366,46.53586357,87.85277168
1253.765451,13.15203471,47.85638905,95.67670266
1254.737582,14.49414814,47.91662868,98.86594699
1255.709542,14.73058117,47.87499639,101.6617019
1256.681334,13.61591065,49.41075553,106.001774
1257.652956,11.33056397,52.93261337,113.0497627
1258.624409,8.983997936,57.62789353,120.3342283
1259.595693,8.151154587,62.00737341,123.84726
1260.566808,10.23859466,64.83559388,127.3579018
1261.537754,15.64568034,66.79053113,138.4313239
1262.508531,19.8924049,70.2667111,154.2922056
1263.479139,18.75514486,76.70087972,163.6327502
1264.449577,15.63350191,84.97082098,160.2300101
1265.419847,13.37004574,91.85237028,146.3980362
1266.389948,10.78218139,94.41097158,128.5382188
1267.359881,9.322995033,93.80132421,114.8474427
1268.329644,10.87846233,94.36418631,111.8794056
1269.299239,13.81335482,97.31869331,118.3662526
1270.268665,14.8132265,99.28107777,124.541978
1271.237922,13.69176609,97.69028201,121.4793771
1272.207011,15.32827499,93.30282583,110.9039813
1273.175931,21.06920486,87.29670664,101.9673369
1274.144682,25.25157371,79.77225052,98.7452114
1275.113265,27.22174564,71.01516465,96.23874807
1276.08168,31.95253537,62.06763801,89.05226742
1277.049926,36.463429,54.27527967,79.50923979
1278.018003,36.23599315,48.51168109,75.6448376
1278.985912,36.79714088,44.35532744,82.64494736
1279.953653,40.30698768,40.49474587,96.7838923
1280.921226,42.06270901,36.1030205,107.0802261
1281.88863,43.98036479,31.2003883,105.0193474
1282.855866,47.00956002,25.80936089,95.28354365
1283.822934,46.65110462,20.00813213,91.04396539
1284.789834,45.65241025,15.33720768,95.05879089
1285.756566,47.05622589,14.0609041,97.03187209
1286.723129,46.4590357,15.6452344,92.10948601
1287.689525,42.78367051,16.77388563,86.45206982
1288.655752,37.44601278,16.20433976,84.91068049
1289.621812,30.8703378,16.53198619,88.58283696
1290.587704,26.09408583,20.05768149,100.4664615
1291.553428,23.20603362,25.27489432,120.4704851
1292.518984,20.94613467,29.04479992,141.2864233
1293.484372,21.44233409,31.20577576,158.6548243
1294.449592,25.15049514,34.42538542,176.4582988
1295.414645,33.06526226,39.41807031,194.7083589
1296.37953,42.12668179,43.65773682,204.9375949
1297.344247,43.27735768,45.35862937,205.1138898
1298.308797,41.67576798,45.23651594,207.1344031
1299.27318,48.6917269,44.40505895,221.9016876
1300.237394,57.77688332,43.28543845,246.0498612
1301.201441,60.74129944,41.62333062,269.4074969
1302.165321,62.71582718,38.3268146,288.0784487
1303.129034,66.78431231,32.39710983,302.7707411
1304.092578,68.44362191,24.43213418,309.9979993
1305.055956,66.20776066,16.98369275,306.2740106
1306.019166,64.8412196,12.51952427,297.8719708
1306.982209,67.10622027,10.62201667,292.9877115
1307.945085,68.94927818,9.289413586,288.1299005
1308.907794,66.86597822,8.484232914,276.388331
1309.870335,61.97950245,8.792127095,260.6038068
1310.83271,53.99779949,8.669275001,244.7927467
1311.794917,42.02862591,6.985408017,225.4897549
1312.756957,31.69447336,5.534747282,202.6408274
1313.718831,29.78269489,6.338547111,183.8605368
1314.680537,33.75105705,8.668531965,171.2762137
1315.642076,35.79340431,10.15504373,159.1547925
1316.603449,33.44660607,9.701448951,144.9142328
1317.564654,31.28832967,8.593124249,129.1540967
1318.525693,31.71192929,8.900216731,111.0674632
1319.486565,30.48999593,10.92147951,94.81618172
1320.447271,27.75402603,13.1473838,89.29544232
1321.407809,29.40459117,14.68787196,93.39490194
1322.368181,35.05595314,15.98705927,94.19010621
1323.328387,37.08400262,17.75165246,84.95581535
1324.288426,31.4095304,20.09811827,74.65662468
1325.248298,26.81777073,21.56460535,76.23041958
1326.208004,32.04230153,20.41600809,90.99693271
1327.167543,38.33945177,18.44090504,108.6354566
1328.126916,38.87217657,19.87121483,120.5888776
1329.086122,40.66508135,25.11203714,125.5809404
1330.045162,41.28282182,30.22533569,123.5678135
1331.004036,34.30635076,33.51047486,116.8943503
1331.962744,29.18656682,37.11570864,114.1873213
1332.921285,31.33857116,41.43637171,120.4757697
1333.87966,30.32688988,43.66880532,129.7522863
1334.837869,23.23176077,42.46728835,135.5026972
1335.795912,20.19891646,39.27715079,138.933322
1336.753788,23.31383491,35.62390304,142.0722395
1337.711499,24.19276966,32.14713744,144.0037096
1338.669043,21.27808833,28.73520983,147.822527
1339.626422,19.38841306,24.8211028,160.4582768
1340.583635,18.44212655,21.16614529,182.1582271
1341.540682,15.94395051,19.57674128,204.678529
1342.497562,13.88755477,19.96835263,219.5140862
1343.454278,14.62651659,20.78262038,221.398597
1344.410827,14.20167762,21.74289897,209.9889706
1345.36721,10.33716999,23.8017189,194.4261862
1346.323428,6.094393282,27.41482968,187.7831128
1347.279481,2.716075213,30.89614684,192.7362969
1348.235367,4.465251789,31.35370993,199.9383138
1349.191088,10.86048493,29.3463149,200.4889832
1350.146643,9.709998186,28.71708034,193.3701663
1351.102033,2.480631208,30.26066927,181.2744241
1352.057258,0.021685298,31.59512479,166.179872
1353.012316,-0.554819022,32.58978544,152.9415068
1353.96721,0.284391765,34.87788226,149.7030798
1354.921938,6.11995033,37.92735676,156.8247911
1355.876501,9.298141932,39.55132591,163.693472
1356.830898,6.411768003,38.60678385,162.4600088
1357.785131,4.074986474,35.98171555,154.3707484
1358.739198,3.626647049,34.05888845,141.7247582
1359.693099,2.840295285,34.71268785,126.5546199
1360.646836,2.663049842,37.04739939,115.2842863
1361.600408,2.958481745,38.20617334,113.3875993
1362.553814,1.719825288,37.53205416,117.922795
1363.507055,0.224422964,38.63547284,121.3821505
1364.460132,0.664617546,45.10758544,119.1076876
1365.413043,0.050915221,55.80131226,110.9698561
1366.36579,-3.110962514,67.93556489,100.6095954
1367.318371,-3.925145924,82.44041931,93.76174794
1368.270788,-1.954410978,101.2853641,94.08396263
1369.22304,-2.780740623,122.1178781,100.2112247
1370.175127,-4.897021935,140.6128161,107.1046142
1371.12705,0.463948255,156.504424,110.9562786
1372.078808,12.33574915,173.4089131,114.2935281
1373.030401,20.60721948,193.5660326,123.7968785
1373.981829,28.39697706,215.9705657,140.9435528
1374.933093,46.18319559,238.4490335,160.6645942
1375.884192,68.62875039,258.449813,181.7542894
1376.835127,86.64308307,273.8919129,209.5600647
1377.785897,105.1527448,285.4815933,245.9098215
1378.736503,132.1264964,295.8630516,285.9127366
1379.686945,167.5484053,305.9824372,325.9809896
1380.637222,206.9353108,314.9580745,367.4110735
1381.587335,248.6339703,322.8956844,412.102625
1382.537283,294.0682789,330.2966896,459.3096986
1383.487067,341.5186567,335.3293891,506.5770651
1384.436687,388.3345356,335.3386972,552.3347854
1385.386143,432.3507811,330.594708,595.2032411
1386.335435,467.8360699,323.7456258,629.8735906
1387.284562,492.4781954,316.1504801,649.6625451
1388.233526,510.7674735,307.0911957,656.0092669
1389.182325,524.9725183,296.0299631,658.2115872
1390.130961,532.1221079,282.8932391,661.1388349
1391.079432,527.7563092,266.4504079,659.6487761
1392.02774,511.2414414,245.36973,645.948898
1392.975883,488.4661991,220.7590086,616.9823416
1393.923863,463.1522825,195.7424084,575.1643194
1394.871679,428.8122767,172.7288141,526.2532444
1395.819332,380.9198055,151.5629521,474.8789809
1396.76682,330.0934716,129.9287128,420.1705466
1397.714145,282.8747616,105.6210054,359.7095333
1398.661306,228.6991461,79.25077484,297.3247987
1399.608304,170.3228097,54.61226465,240.6557623
1400.555137,125.3702732,35.07422276,192.5931196
1401.501808,92.86889063,20.58223675,151.2332941
1402.448315,65.18561685,9.580153928,115.602448
1403.394658,44.24989974,1.884048381,85.95688875
1404.340838,27.75599574,-1.796242742,60.7789987
1405.286855,15.02284496,-2.315306454,37.85451646
1406.232708,10.30254061,-2.362066617,17.12249836
1407.178397,9.707911263,-2.812755012,-0.20435357
1408.123924,7.48117752,-0.789334471,-14.30309061
1409.069287,5.58336463,6.827077175,-25.23047118
1410.014487,8.83323283,20.29328372,-29.17631274
1410.959524,16.97241338,38.01386856,-22.0596131
1411.904398,22.48610427,59.23495912,-7.437363057
1412.849108,22.34403128,85.81618765,6.27350124
1413.793656,22.35622707,119.5025304,15.77534269
1414.73804,21.96285543,157.3076175,23.02052862
1415.682262,15.91996602,194.418549,27.79148705
1416.62632,8.975239251,230.7577281,26.85905514
1417.570216,8.080536161,268.9875361,20.57994057
1418.513949,12.58354424,308.4972677,16.77905606
1419.457519,21.4928187,346.2559656,24.55046795
1420.400926,34.98452713,381.1396622,44.116203
1421.34417,53.26244286,414.5390366,67.76971585
1422.287251,80.3728416,447.5719057,91.77146533
1423.23017,118.2983012,478.8513599,121.5061813
1424.172926,166.6252892,506.359087,163.4428745
1425.11552,226.1206873,530.0488287,217.2014443
1426.057951,289.8832237,549.4379188,277.5275044
1427.000219,352.4882165,562.0086333,340.4807041
1427.942325,420.8874923,567.1959837,404.8031008
1428.884268,493.2870335,567.5523363,468.8055407
1429.826049,556.2442995,564.9189278,530.1137268
1430.767667,606.7042409,559.1936407,588.1253156
1431.709123,649.1720189,550.0963302,641.6177955
1432.650417,683.5384225,537.7805377,684.7263675
1433.591549,705.3710411,522.6577331,711.7569428
1434.532518,709.7681894,505.7967654,725.8119795
1435.473325,697.2242786,487.8125892,734.7771475
1436.413969,672.4374468,466.3400101,736.7796614
1437.354452,635.8984625,437.8374527,719.0532198
1438.294772,585.7660682,402.8495653,675.8173385
1439.234931,527.6312577,365.6281348,617.8766877
1440.174927,468.5912962,329.1439978,560.2365401
1441.114761,405.8940209,294.6130636,508.4590756
1442.054434,339.3330531,263.8016877,457.7985804
1442.993944,277.0510248,237.4395968,399.4962047
1443.933292,218.5532509,213.0587132,331.4376062
1444.872479,162.5897539,187.6723492,263.9827132
1445.811504,118.9945228,162.0730086,208.9143598
1446.750367,86.56424791,140.1221253,167.7949738
1447.689068,55.94563632,123.1466477,137.353516
1448.627607,32.33618494,108.3191753,115.094862
1449.565985,18.76843087,94.40440051,95.56750835
1450.504201,9.006096249,83.80925476,74.39896574
1451.442256,2.28870557,76.8298555,55.98868752
1452.380149,-3.688369161,70.52868302,46.45880169
1453.31788,-9.863267337,63.9369607,43.91871044
1454.25545,-8.102956763,57.98987966,43.14979609
1455.192859,1.045382954,51.97443363,43.16049053
1456.130106,6.251779922,45.00209827,45.76044554
1457.067191,4.857520634,37.99808324,51.43606783
1458.004115,3.036394608,31.48063673,57.29931686
1458.940878,4.139826322,25.12852572,57.2856428
1459.87748,6.903634744,20.05276835,48.37343518
1460.81392,9.010381007,17.42662698,37.95667331
1461.7502,11.58838842,16.08583964,37.78701645
1462.686317,17.08585583,14.87863109,47.82047706
1463.622274,23.53495359,14.77131342,54.41739247
1464.55807,29.92204917,16.13871085,48.8369088
1465.493705,38.57207785,17.2071667,39.8591452
1466.429178,48.94112911,16.9297187,42.35994433
1467.364491,60.99728514,16.77027573,58.21444224
1468.299643,73.68760848,18.77843071,76.47143737
1469.234633,82.43550869,22.94376058,91.01498816
1470.169463,92.18224758,27.31931715,105.7056398
1471.104132,105.6404236,31.41538723,119.7412509
1472.03864,111.22418,36.95393686,124.082565
1472.972988,109.8046267,43.30137765,118.0205328
1473.907174,110.9036693,46.49428257,112.9837082
1474.8412,110.378816,45.33375658,114.5364602
1475.775066,105.8911882,43.44469146,115.8069358
1476.70877,101.5286016,43.44425218,112.533829
1477.642314,95.10491553,43.97365789,110.1422525
1478.575698,84.24812455,42.88246863,111.6373314
1479.508921,73.04726651,39.65556514,110.9103441
1480.441983,64.94361791,35.61533889,103.0072976
1481.374885,58.17289008,33.13859399,91.22874894
1482.307627,49.92517093,33.13767555,80.96312967
1483.240208,38.93898424,33.82893174,74.24350302
1484.172629,28.41268038,33.33551911,70.42876101
1485.104889,24.36166184,31.96520014,66.88263093
1486.036989,23.64232468,30.75082522,62.43939142
1486.968929,19.7866244,30.14560172,62.72873891
1487.900709,17.5168814,31.42653123,74.40462238
1488.832329,21.06065696,35.93312845,92.7319389
1489.763788,26.620592,41.90389315,105.0157171
1490.695087,31.6123955,45.7923538,106.8210073
1491.626227,34.1187289,46.88311433,104.1502192
1492.557206,33.9840789,47.96498214,99.95155372
1493.488025,33.86379533,51.48564562,90.0267095
1494.418685,34.14528751,56.15053519,74.35963568
1495.349184,35.36190248,58.37264847,61.5985187
1496.279523,37.69379561,57.24357624,57.32676997
1497.209703,39.61189099,55.67820136,56.90066175
1498.139723,40.74519019,55.3903722,54.39267359
1499.069583,40.15564739,53.96902527,50.87790174
1499.999283,38.62763922,49.09461981,50.25766026
1500.928824,38.39559467,42.32638259,51.37243316
1501.858205,36.89036065,36.69204036,48.9415582
1502.787426,32.14674127,32.86408574,42.29857474
1503.716488,26.41066651,29.03441905,37.59567432
1504.64539,19.51399696,24.1721485,40.47705986
1505.574133,13.17154499,20.00096744,51.62905841
1506.502716,13.68151749,18.28305262,68.44756278
1507.43114,18.42998688,17.99450014,86.68533693
1508.359404,17.9962272,17.20910548,102.0356134
1509.287509,14.90631525,16.35517805,112.8817054
1510.215454,17.08395832,17.67245838,120.0768425
1511.14324,21.33401933,21.16265677,124.4223717
1512.070867,22.53355025,23.00542891,127.4034103
1512.998335,20.54226403,20.15519115,131.4296111
1513.925643,15.96828417,15.28902697,135.8314384
1514.852793,14.65720432,14.36639799,137.0145202
1515.779783,19.05457458,19.48557186,134.8328534
1516.706614,20.0682241,27.23401056,132.9407098
1517.633286,17.20354074,34.13044954,130.5123572
1518.559799,18.23170879,39.4479854,121.454124
1519.486153,18.83671538,42.98003541,105.2639759
1520.412348,15.55440964,45.4004404,89.14900991
1521.338384,13.50420573,49.93995597,77.07908226
1522.264261,10.19094233,58.26313187,66.98727846
1523.18998,3.143431849,66.40186336,57.8901649
1524.115539,-2.415916238,69.51366419,50.86643495
1525.04094,-5.352842861,68.00383092,45.48710092
1525.966182,-6.874680113,65.44071615,40.88077784
1526.891265,-6.400243526,64.30052397,37.79545336
1527.81619,-4.328865029,65.79754652,36.00517859
1528.740956,0.714797212,69.43178133,32.25176531
1529.665563,8.210671944,72.27014253,24.37859261
1530.590012,12.16700313,72.35978025,14.7862735
1531.514302,11.11235472,71.55327164,6.926480419
1532.438434,11.36936321,71.87026448,1.590961939
1533.362407,15.44905795,71.43626455,-0.625503488
1534.286222,18.30058669,67.95757078,3.945876052
1535.209879,18.7276459,64.03401531,18.91798215
1536.133377,22.0337303,64.40929735,42.50765115
1537.056717,28.23807621,69.66986501,68.36808827
1537.979898,32.4583322,76.26429202,90.17819346
1538.902921,34.65811568,80.63667106,103.8976942
1539.825786,36.84520633,80.95461267,109.4448068
1540.748493,37.16861218,77.43094088,112.6140528
1541.671042,35.47369724,73.3788862,121.1366663
1542.593432,37.29185741,73.11470592,135.6174114
1543.515665,40.89048179,75.86378874,147.6416399
1544.43774,36.7620115,75.37392671,149.9445429
1545.359656,28.18851535,68.72067103,145.4439301
1546.281415,23.89689315,60.19358624,142.1992429
1547.203015,22.41059261,53.5760376,141.1895552
1548.124458,23.36666341,47.30771899,135.0959576
1549.045743,25.85401906,39.63756088,120.0645836
1549.96687,24.34998098,31.79925828,101.7939476
1550.887839,22.47753481,24.88303998,87.91461974
1551.80865,24.102518,18.86485186,80.6890252
1552.729304,22.76127676,14.31973494,78.09879405
1553.6498,18.67804758,12.11828774,77.38965342
1554.570138,20.36749665,12.57729977,77.74267797
1555.490319,26.6323123,15.68097841,81.11131299
1556.410342,29.28728809,21.01137753,89.38590873
1557.330208,29.96612901,26.91374372,100.595465
1558.249916,35.68983792,31.12780803,108.3950329
1559.169466,43.52833994,34.33799817,106.4418166
1560.08886,47.84806263,40.38450717,95.72832354
1561.008095,51.9041261,50.14449423,85.56289014
1561.927174,58.33402982,60.16715869,82.64608528
1562.846095,62.65302223,69.53281108,83.00608865
1563.764859,66.31095532,81.70446047,80.23125313
1564.683465,77.80909405,97.86390849,75.19699925
1565.601914,93.45047694,114.1733694,72.1973245
1566.520206,104.4527591,127.4742534,72.92162779
1567.438341,117.0011278,138.702721,76.94695759
1568.356319,137.7165349,148.4623341,80.53877759
1569.27414,162.2518303,154.6019821,76.67557539
1570.191803,185.3308415,156.6271336,64.50656435
1571.10931,203.8924987,157.3285678,54.8495886
1572.026659,222.1409446,158.415851,59.06549268
1572.943852,247.0072942,158.4100898,76.42381985
1573.860888,271.0725549,154.9797031,97.46207286
1574.777766,281.5252459,147.3742677,115.4107973
1575.694488,282.0780607,137.6712729,129.1166931
1576.611053,285.0143321,129.1068692,137.6822103
1577.527462,286.8997876,121.2993763,139.0118993
1578.443713,277.8798404,109.9262296,134.3877168
1579.359808,263.5483494,93.26583934,127.9455637
1580.275747,248.9450151,75.55775575,120.3169909
1581.191528,228.5558165,61.97070851,109.6212978
1582.107153,201.6024153,52.84143228,98.063306
1583.022622,171.6093753,44.78209559,89.46380347
1583.937933,140.8252731,36.14733382,81.6063122
1584.853089,110.3113774,29.00912453,70.26155367
1585.768088,83.38813635,25.60469187,59.14512053
1586.68293,64.7108342,24.79137949,54.69378398
1587.597616,48.78470069,23.74168843,53.947549
1588.512146,29.95503913,22.73639789,48.83416268
1589.426519,14.77502769,25.17477001,37.77085873
1590.340736,7.884024731,31.90859369,26.38260081
1591.254797,6.016379361,38.9892076,21.13071547
1592.168702,3.41366609,42.88083992,23.01984598
1593.08245,0.230429203,45.41641251,26.76137544
1593.996042,3.49368889,50.10454159,27.80040022
1594.909478,8.638226506,54.72507423,27.10799289
1595.822758,5.614703023,53.7791798,28.54034866
1596.735882,1.211858104,48.45897751,34.23842536
1597.64885,6.367520854,46.45740366,41.27956125
1598.561662,16.16223309,50.73480569,44.61418135
1599.474318,20.68941035,55.81631865,46.2208056
1600.386819,25.35136109,56.50195385,54.77398204
1601.299163,36.63773822,53.77426879,72.17210662
1602.211351,44.51116011,51.05945427,89.78748039
1603.123384,45.6136583,50.14023347,102.1270151
1604.035261,47.77144749,51.27529508,114.136397
1604.946982,52.15185079,53.48432753,131.5415875
1605.858547,58.42977631,54.88207531,151.8142894
1606.769957,63.64714094,54.61772266,168.7550505
1607.681211,63.5617452,53.58308168,181.2788556
1608.592309,62.03641335,52.72113439,191.9338485
1609.503252,60.08999617,52.20696101,201.0449284
1610.414039,55.51372143,52.10937351,209.2033388
1611.324671,53.22415523,51.88339487,220.6694336
1612.235147,55.6554576,49.6462435,238.4181897
1613.145468,55.27176679,44.16582522,258.0118626
1614.055634,46.57212678,37.75226833,269.8191522
1614.965644,36.46550482,34.70011606,268.7830842
1615.875499,31.69853645,35.35279658,258.9424394
1616.785198,27.03939315,34.84638897,246.3772431
1617.694743,19.5389237,30.47379897,234.2094596
1618.604132,14.64473486,26.08579858,225.8378489
1619.513366,14.52885905,25.88722649,224.6776641
1620.422444,16.76344698,28.30019462,228.3249124
1621.331368,18.79088711,29.06822242,228.617824
1622.240136,19.78434848,27.01594651,221.4206467
1623.14875,19.34369342,24.2643627,213.3327348
1624.057208,17.66677368,23.12627374,213.5470263
1624.965512,18.54514529,24.67584627,221.5648897
1625.87366,23.15067647,28.34579108,227.847561
1626.781654,27.87609864,31.7635109,224.1935425
1627.689492,29.687013,33.08702446,210.5945033
1628.597176,27.41569254,33.50541815,194.5092167
1629.504705,25.44827141,35.04454378,184.0709793
1630.412079,27.82411677,36.61251042,180.3975275
1631.319299,30.5888399,34.98829782,179.9374944
1632.226364,32.06948363,29.65175917,183.1969417
1633.133274,34.09090767,24.06397178,191.4484175
1634.040029,34.3935014,21.57699309,198.1844425
1634.94663,32.37208004,22.22506731,195.100968
1635.853076,29.86843463,23.95334399,181.5621137
1636.759368,27.37057982,25.31869841,162.4610879
1637.665505,25.75987249,26.44848741,143.0236037
1638.571488,22.52153871,27.64687813,126.5866628
1639.477316,16.55722287,27.92309383,114.5744374
1640.38299,15.97747512,26.29645385,107.7976675
1641.28851,23.03699879,23.93737391,104.0293952
1642.193875,26.29960127,22.83278079,96.17686319
1643.099086,20.23018567,22.83203585,80.27618948
1644.004142,13.60400869,22.36725982,63.37243579
1644.909045,12.93809954,21.26886735,55.65589075
1645.813793,16.39129406,20.83719874,56.15048355
1646.718387,21.22235629,22.06734846,53.57824617
1647.622827,22.84122854,24.53156641,40.762232
1648.527112,20.03432156,26.35962771,22.69330769
1649.431244,19.19000819,26.30128588,11.74036817
1650.335222,22.39673426,25.27831843,18.45945257
1651.239045,26.49981836,23.60378957,44.24994073
1652.142715,30.01858894,19.40988102,79.91132307
1653.046231,31.49192251,13.3301411,113.0510336
1653.949593,30.96564109,10.24651638,136.8061423
1654.852801,31.73766823,12.48034734,150.8865964
1655.755855,36.03670588,16.16825136,159.0860256
1656.658755,41.71767183,17.02932529,166.493253
1657.561502,42.72121141,15.27671638,174.6461429
1658.464095,37.00904558,14.30248303,180.8302458
1659.366534,32.76823838,17.29988169,182.3972768
1660.26882,34.86598092,24.12374269,177.6916511
1661.170952,37.77679826,30.87663847,166.7303286
1662.07293,39.99455937,34.05031566,153.609628
1662.974755,43.60284526,34.48524141,141.7314941
1663.876426,46.87895684,35.92703162,127.9447924
1664.777944,49.84592945,39.68183798,107.383337
1665.679308,52.99497869,42.65611219,80.69765577
1666.580519,55.69342179,42.61622811,52.96315643
1667.481576,59.06764919,42.31895554,27.58998336
1668.382481,59.86712246,44.29494771,4.280308958
1669.283231,54.84941889,45.23564638,-15.17739192
1670.183829,52.57836739,41.16143738,-23.2751769
1671.084273,58.55206825,34.69057492,-14.48041753
1671.984564,62.54680843,31.2777703,7.085578088
1672.884702,59.31715104,31.36529756,31.60329459
1673.784687,57.30592156,31.77547874,50.81831657
1674.684518,59.53886535,32.05427274,60.69270358
1675.584197,60.01558876,33.91520082,62.37314372
1676.483722,57.014124,36.11716903,60.47432505
1677.383095,53.28399475,35.50771452,57.90061351
1678.282314,49.24922737,32.71445921,54.75954577
1679.181381,42.4721388,31.6472264,53.04737572
1680.080294,32.62843048,33.68265037,57.63123667
1680.979055,27.10416763,36.07337557,69.84831511
1681.877663,28.62915152,35.64702921,83.89464381
1682.776118,27.49926434,32.48509696,94.75764144
1683.67442,24.84276519,29.36280375,106.7235116
1684.57257,32.14579533,27.94924465,126.0272498
1685.470567,43.0334692,27.68962319,147.8482562
1686.368411,45.03835414,27.65535113,159.685634
1687.266102,43.88483815,27.05722158,156.1310749
1688.163641,46.54190621,25.0834913,144.8546377
1689.061027,46.4794751,21.61218808,138.8589317
1689.958261,41.91464342,17.1770415,144.3808426
1690.855342,41.14249959,12.46991924,156.7301389
1691.752271,44.42962218,9.179905472,167.8046053
1692.649047,44.13897024,9.909527786,174.106449
1693.545671,39.03895998,14.75412401,175.9306291
1694.442143,34.40624384,19.76587224,173.3445958
1695.338462,34.33591969,22.07722896,165.5464457
1696.234629,35.77117732,24.03410383,152.1564855
1697.130643,31.94941441,27.98971104,133.8528461
1698.026505,25.04368451,30.7943522,112.3399835
1698.922216,21.91493724,29.47985719,91.05501274
1699.817773,19.97519901,27.62957925,75.10126069
1700.713179,13.44977047,29.25079206,67.19196326
1701.608433,6.018485155,32.19369885,64.62984054
1702.503534,4.723088175,33.0420241,62.99310748
1703.398484,6.938265944,32.45608743,60.36727833
1704.293281,7.408617862,33.07498864,57.61444229
1705.187927,9.870554998,35.74595605,57.24217891
1706.08242,15.64150613,38.43233235,58.93057409
1706.976762,18.46409985,38.81605968,55.12981637
1707.870952,16.73939393,37.11398726,37.99170118
1708.76499,13.03084969,34.7179764,12.18916088
1709.658876,8.414441021,32.75751845,-6.461505455
1710.55261,4.843725842,33.24403009,-8.70425348
1711.446193,5.296986952,37.58679635,-2.304476413
1712.339624,9.798553088,43.25777593,1.022669023
1713.232903,13.88771016,45.64798249,2.637488645
1714.12603,14.07111657,43.58972245,11.01203911
1715.019006,12.99603805,40.3236858,26.22969522
1715.911831,15.06374315,39.1661369,42.50812807
1716.804504,19.3470136,40.72444654,58.71627765
1717.697025,21.39048232,43.55893201,76.47617827
1718.589395,20.9348303,45.04006432,94.54415314
1719.481613,21.92986789,43.5528833,111.6792517
1720.37368,25.47337446,41.52460841,129.9744855
1721.265595,30.462201,42.26960789,150.2695841
1722.15736,36.98521346,43.77126548,167.4810603
1723.048973,42.98710287,41.76537175,176.7085272
1723.940434,46.22684135,37.41166648,181.5442334
1724.831745,48.36144543,35.03970425,187.65187
1725.722904,49.47480478,35.56815494,191.9058036
1726.613912,47.32306227,37.39045126,188.0571765
1727.504768,44.06366838,39.55674498,175.9899307
1728.395474,41.02773786,41.68608567,157.0464046
1729.286029,33.62107952,43.54097492,131.7640247
1730.176432,25.31478197,44.78878958,106.9317158
1731.066685,25.99211391,45.10812103,90.62374112
1731.956786,30.7944134,45.22005081,79.69441875
1732.846737,30.17911446,45.90595941,66.0797925
1733.736537,27.70671146,45.42208177,52.01547163
1734.626185,25.94335152,41.05379502,45.95367653
1735.515683,21.04548971,34.54066084,47.90020334
1736.405031,16.29789869,32.11541827,50.63531727
1737.294227,15.87901178,36.7546074,52.61264666
1738.183272,15.35942077,44.20889824,60.82903785
1739.072167,14.56324315,48.76090516,81.47088445
1739.960911,19.37264544,48.84835209,111.4749974
1740.849505,27.77389606,46.10292086,139.7993205
1741.737948,34.01118855,42.80884821,157.4980103
1742.62624,37.02032524,40.07389389,165.6775678
1743.514382,37.10109115,37.05659801,171.0701499
1744.402373,35.62361208,34.2333616,176.8355514
1745.290214,34.62988405,34.82557294,182.9216949
1746.177904,33.09373412,38.97249374,190.3542257
1747.065444,30.47059571,42.13478174,198.0607003
1747.952833,29.66715609,42.42576327,200.6339933
1748.840073,29.13980324,42.34965208,195.8083129
1749.727161,23.75340381,42.53731175,190.6401554
1750.6141,17.71063985,40.50145591,193.5149825
1751.500888,18.62085943,35.13827953,201.6863019
1752.387526,22.24316082,28.81749965,206.5914309
1753.274014,21.91621754,25.32731585,210.2009271
1754.160351,22.36669823,25.44188565,221.6713666
1755.046539,27.25301738,25.46174095,239.1592366
1755.932576,28.95835757,23.3019923,250.6468092
1756.818464,25.32656169,22.88281914,251.1397279
1757.704201,25.06282673,27.2016361,247.1791897
1758.589788,28.47909494,31.65023635,247.6262884
1759.475225,28.66037305,30.39873837,256.1668617
1760.360513,28.56328733,24.80882533,267.6103387
1761.24565,33.28625212,20.2585451,269.5953993
1762.130638,37.89403931,19.05334446,254.5930928
1763.015476,37.10382392,20.1556233,231.070509
1763.900164,33.31003768,22.11430639,214.9926927
1764.784702,31.40105602,24.67829632,209.0817749
1765.66909,31.53627951,29.36938585,201.3363578
1766.553329,29.52850299,36.83003262,185.5402771
1767.437418,26.58895129,43.75927456,167.6297939
1768.321358,28.26256875,46.37119358,150.2112496
1769.205148,31.47896638,45.50440374,129.2668942
1770.088788,29.65014025,44.51562449,108.6813044
1770.972279,26.56563806,44.4132367,99.29182989
1771.85562,28.32792433,43.99691543,99.59078434
1772.738812,33.06244638,42.79817601,96.04299683
1773.621854,37.94429627,42.32095685,85.98942503
1774.504747,42.11878277,44.4495941,79.9822184
1775.38749,44.42547525,47.83003771,80.30790133
1776.270084,44.23796254,48.08339469,77.94882964
1777.152529,40.45510223,44.21420713,69.70736591
1778.034825,35.23012441,40.37996146,61.73128153
1778.916971,33.34183678,38.52868581,58.71346475
1779.798968,30.76548629,35.92819382,59.04289992
1780.680816,21.49359154,31.80219807,57.67437796
1781.562515,13.83733834,28.38668453,52.04517205
1782.444065,14.62393326,25.5201444,46.98744123
1783.325465,15.45255765,22.30187004,49.98778928
1784.206717,14.2899243,21.42862233,60.79288881
1785.087819,15.40440636,24.77197854,70.04882604
1785.968773,13.92133233,28.98873825,69.13972768
1786.849577,10.62048129,30.58221398,59.80647001
1787.730233,11.45428107,30.59976194,51.33566511
1788.610739,14.50868935,31.06257589,48.87682666
1789.491097,19.94359192,30.70186936,50.19253489
1790.371306,25.68815595,27.69726273,53.09297352
1791.251367,24.92508561,24.64431544,58.65822952
1792.131278,23.60106504,25.915614,65.8371685
1793.011041,27.47780646,30.70199967,69.08152722
1793.890655,28.24571363,34.5896615,66.17944439
1794.77012,25.4682298,36.61480184,64.63638714
1795.649437,27.63429749,38.27786763,73.55609651
1796.528605,31.98941222,38.4075481,91.55229201
1797.407625,31.04092515,35.29550719,108.5784739
1798.286496,26.09844118,31.24107866,117.5861127
1799.165218,22.98138978,29.92968134,120.1629546
1800.043792,23.44281761,31.0558244,121.4110813
1800.922218,22.71030757,31.74289209,122.8651828
1801.800495,18.75660866,31.22128862,123.5777081
1802.678624,18.69541701,29.75619463,125.0533784
1803.556604,23.36979002,26.7266057,127.9183735
1804.434436,25.54950951,23.74198892,126.5234729
1805.31212,26.09468699,23.83899133,114.7752664
1806.189656,25.07869842,25.28920744,95.03168025
1807.067043,19.49381466,23.70077284,76.14324827
1807.944283,15.55588605,20.48769428,63.95685388
1808.821374,14.96505827,20.54255974,57.1830057
1809.698317,13.61651986,22.68511466,53.7273082
1810.575112,13.7411406,21.60427575,56.04412683
1811.451758,12.51137448,18.25556365,65.85800777
1812.328257,6.642191296,19.28187417,78.43971815
1813.204608,3.849769418,25.5494042,87.22703197
1814.080811,5.175368708,30.21115712,91.29317723
1814.956866,3.612920415,29.8010465,95.03421324
1815.832773,3.072179027,28.1697671,102.1936596
1816.708532,7.783435984,28.46300819,111.3059213
1817.584143,9.107295306,29.61516667,117.4066103
1818.459607,5.435338668,30.44499071,119.9891148
1819.334923,5.700531588,31.22785067,125.3359489
1820.210091,7.585403116,31.93783584,136.8465221
1821.085111,5.358129441,31.99588992,149.4616128
1821.959984,3.665993604,31.62956199,156.6681952
1822.834709,3.725221194,31.57900123,155.9027019
1823.709286,1.827938442,31.24797598,147.2708615
1824.583716,0.673331716,29.70554757,133.8113005
1825.457998,2.694425881,27.83988619,121.084447
1826.332133,4.186809546,26.41065826,111.4316539
1827.20612,4.245676787,24.37698484,102.6600079
1828.07996,5.279122516,21.81561973,94.04359053
1828.953653,5.426389475,20.6118284,86.31942552
1829.827198,4.628820036,21.03212347,78.46312803
1830.700596,6.762887971,22.1666985,72.06629621
1831.573846,9.780132254,24.67438962,71.28459065
1832.446949,11.57635169,28.33537659,73.47975605
1833.319905,14.25311895,30.039488,69.86402483
1834.192714,15.42441915,28.57658415,57.60773262
1835.065375,13.75488561,27.42129329,43.06643481
1835.93789,13.32929895,29.2989274,32.97486092
1836.810257,15.80350518,32.30425699,28.48235051
1837.682477,19.03119399,33.92799351,27.41416648
1838.55455,20.39285255,34.40795007,28.2964514
1839.426476,19.72635269,34.36925801,31.25335591
1840.298255,17.42777081,33.39462436,35.76559708
1841.169887,13.86281134,32.10418099,39.64590688
1842.041372,14.19319149,32.46682259,41.45246431
1842.91271,19.58081242,35.25183103,41.53136396
1843.783901,22.34198441,39.02943483,40.6764304
1844.654946,22.33271004,41.89754702,40.60404597
1845.525844,26.25032197,42.79023245,44.47869586
1846.396594,30.74202695,41.3236394,54.04236176
1847.267199,29.73178999,38.20341305,66.90192028
1848.137656,27.65895912,35.49392373,78.35439135
1849.007967,27.3892868,34.26839398,84.02350373
1849.878131,24.09942541,32.97996344,80.57526089
1850.748148,19.29565926,30.43344996,70.60403906
1851.618019,16.53834311,27.78958514,65.73133453
1852.487743,12.90483446,25.26364578,73.55939814
1853.357321,10.06402436,20.95711985,84.92738296
1854.226753,9.551079736,15.5139265,86.51004082
1855.096037,6.161467954,13.05710965,79.67956216
1855.965176,3.028187029,14.97074481,76.18851525
1856.834168,5.701698157,17.72595188,81.43930152
1857.703014,8.62453142,19.11307647,90.2686262
1858.571713,8.882957336,21.74815912,95.9739032
1859.440266,9.12270258,28.35248333,96.75301217
1860.308673,7.473687053,37.50906695,95.00560511
1861.176933,4.846957887,45.71792876,96.04017082
1862.045047,7.053481041,51.31032469,103.9552148
1862.913016,13.94578652,55.1868335,114.8025047
1863.780838,18.74908718,58.70289341,120.1874063
1864.648513,17.77516321,62.00413183,119.0053565
1865.516043,16.73242764,64.29218496,117.6278619
1866.383427,20.91816594,64.90496539,119.0491
1867.250665,24.89702144,63.84325663,119.7001666
1868.117756,24.83266122,61.14608158,115.8927709
1868.984702,25.95529649,56.46833908,107.1841893
1869.851502,29.36691623,50.09989614,94.48994713
1870.718156,30.68467091,43.57697184,79.86257919
1871.584664,30.61959327,38.28867474,67.98015236
1872.451026,32.19728243,33.89233463,62.87605217
1873.317243,33.37748688,29.05182585,61.30086133
1874.183314,31.53982415,23.67532227,54.88005275
1875.049239,28.98772779,19.26616313,41.73415921
1875.915018,27.72151837,16.74129585,29.59433837
1876.780651,26.69909159,15.32470475,25.78278029
1877.646139,27.13301535,14.48206411,29.96633838
1878.511482,30.29011732,15.60498467,36.66632679
1879.376679,32.50116259,19.86572784,41.14416152
1880.24173,30.7042706,24.7604509,43.48148645
1881.106635,27.108106,25.88927341,48.87266602
1881.971396,25.63319252,23.30765458,62.57886938
1882.83601,27.40736475,22.14207928,81.95411901
1883.70048,28.46832214,25.09725065,95.97741741
1884.564804,25.22045536,28.93933203,97.19014001
1885.428982,23.02529925,30.21462403,91.09061869
1886.293016,26.67011631,29.6361648,88.90258002
1887.156904,28.54129872,29.17584516,94.95140941
1888.020646,24.27743458,29.20898015,105.9373012
1888.884244,21.36085648,29.66757908,117.596231
1889.747696,22.79368145,30.85298387,126.917713
1890.611003,25.05155243,32.55616982,131.6885093
1891.474165,25.10974198,33.67001426,131.5596487
1892.337182,21.48650017,32.7767863,127.8580557
1893.200054,16.42127122,29.58032019,121.1741279
1894.06278,9.249273653,25.85289101,110.7232389
1894.925362,-0.646976409,23.57740918,97.68749949
1895.787799,-3.813955205,22.78396325,86.44382122
1896.650091,0.525795282,23.01216137,80.22540864
1897.512238,0.543574456,25.05081396,79.00849744
1898.374239,-0.908198459,29.24686966,80.80440344
1899.236097,4.167386946,34.1248442,81.1128055
1900.097809,8.189950256,37.74644067,75.5964166
1900.959376,6.884668281,39.22159726,66.70158992
1901.820799,5.828617145,39.56520038,62.04601356
1902.682077,6.157844926,41.1320642,63.39811496
1903.54321,8.022334575,44.29534813,62.83754694
1904.404199,12.09560542,46.53308074,53.64070532
1905.265043,16.11478181,46.94852818,40.28430181
1906.125742,18.98510191,47.64007763,33.82609109
1906.986297,19.51828819,48.80192839,41.14924395
1907.846707,19.16091162,48.00025342,59.34599426
1908.706973,22.82194756,45.38839815,76.34097223
1909.567094,28.05522803,43.34231214,80.37689563
1910.427071,29.87861878,41.30737337,72.80159263
1911.286903,29.41420378,37.75312923,65.31399715
1912.146591,27.13724362,34.6990551,63.84012693
1913.006135,23.56555498,33.95576063,64.03978455
1913.865534,20.99741254,33.53193687,61.85880509
1914.724789,18.78951567,32.0876477,59.36688259
1915.5839,17.92006159,31.12226642,59.21179271
1916.442866,19.44561145,31.5241298,59.9627754
1917.301688,17.63987739,33.22067888,60.40119267
1918.160366,11.19599986,36.37339002,62.69592394
1919.0189,7.339591736,39.55476897,66.11645216
1919.87729,7.429611099,40.46189061,65.39218037
1920.735536,6.760529797,39.64273387,60.28722388
1921.593638,5.257378545,39.55997183,57.42316212
1922.451595,6.958366755,40.42171413,60.34135318
1923.309409,11.31429892,40.52141553,65.84236273
1924.167079,13.76744314,39.63766123,70.14945944
1925.024604,15.39009258,39.04495713,72.91624187
1925.881986,18.07089019,38.77932733,75.42503709
1926.739224,18.95972802,36.80821125,79.36725303
1927.596318,20.16338165,31.45102622,85.46363388
1928.453269,24.93941372,24.17406148,88.55384878
1929.310075,28.49678048,18.41527035,80.48026574
1930.166738,27.14182181,15.57887228,63.09940539
1931.023257,23.05615641,14.48649425,49.44234582
1931.879633,19.04254854,14.17837453,48.20054254
1932.735865,17.15946461,13.99126259,55.02516921
1933.591953,17.11259213,11.95877774,60.83269735
1934.447897,16.78778312,7.391247666,61.54058111
1935.303698,14.58194586,3.579606177,57.60336179
1936.159356,9.439625968,3.433451224,51.21586996
1937.01487,3.640543169,5.067936648,48.01213741
1937.87024,0.913146093,5.919812249,54.04876817
1938.725468,0.057272964,6.932905781,66.93202458
1939.580551,-1.590510842,9.019332891,78.58409062
1940.435492,-1.280145916,10.58258854,89.37913601
1941.290289,4.201846622,10.92777833,107.9632427
1942.144942,11.69244235,11.03872263,135.5463863
1942.999453,16.65087035,10.86277386,163.1089099
1943.85382,17.3604738,10.22637968,183.5873032
1944.708044,15.56219046,10.52249907,196.1118664
1945.562124,16.74802948,12.58805639,201.8639949
1946.416062,21.81653762,15.47923982,203.2619061
1947.269856,24.85601821,17.86895303,202.6698313
1948.123508,23.08586092,18.83840283,198.0254798
1948.977016,20.98826175,18.41232662,185.4571224
1949.830381,22.34767082,17.75284987,167.7351969
1950.683603,21.74177641,17.48673659,152.4726256
1951.536683,16.0793543,16.60474915,142.6749667
1952.389619,13.59377866,14.56721782,136.3233345
1953.242412,16.21821908,13.30397131,130.9279233
1954.095063,19.00128562,14.79861658,123.9347603
1954.947571,23.36782412,18.0806609,113.6199797
1955.799935,26.20537376,21.0668603,100.9370821
1956.652157,22.88543342,23.21879381,88.57653251
1957.504237,22.00200298,24.64176284,78.31174928
1958.356173,27.40259578,25.5555036,69.53047827
1959.207967,29.57901522,26.83585143,62.40476186
1960.059618,28.50584826,27.82339861,60.76888911
1960.911127,33.62490675,25.89682993,66.3452725
1961.762493,42.48728098,21.50214892,74.0438783
1962.613716,46.16533728,19.27153964,78.74732947
1963.464797,47.84986625,21.68673153,80.83595512
1964.315735,55.36263247,26.24290379,81.44380826
1965.166531,64.68663922,30.03427819,79.15199369
1966.017184,67.85395999,33.25427815,74.49045246
1966.867695,68.55236935,36.6280228,72.50194609
1967.718064,71.81816818,37.96919027,77.53240614
1968.56829,72.56078872,34.83899384,88.50648447
1969.418374,71.66162401,29.5809063,101.2103332
1970.268315,75.20412472,27.0018388,112.3089454
1971.118114,76.45022778,27.57496184,120.674647
1971.967771,71.46730713,27.94211481,127.5393313
1972.817286,69.21008536,27.45768247,134.3592928
1973.666659,70.37194117,28.64347915,139.2232259
1974.515889,70.58402724,31.55036017,139.4444805
1975.364977,71.23323994,33.3240002,136.8487267
1976.213924,66.85621064,33.12770739,133.7717416
1977.062728,54.94033513,32.72521141,127.8975084
1977.91139,49.52923495,32.65558691,118.7369853
1978.75991,53.67325823,31.37902197,112.4953555
1979.608288,50.87504182,27.7321388,112.7129923
1980.456524,40.54178291,22.22325866,112.7768672
1981.304619,37.09844451,16.87655092,105.3379574
1982.152571,36.47195609,14.39976259,93.22108815
1983.000382,31.93471567,15.41444319,83.71164571
1983.84805,34.38590077,17.07096444,78.22647058
1984.695577,42.64527211,16.73306934,73.87836501
1985.542962,42.57924474,14.77771836,69.86915191
1986.390206,38.44390035,12.0414766,69.12487967
1987.237308,41.66701909,8.07533647,75.80717727
1988.084268,48.35168599,3.457669873,89.76834782
1988.931086,50.74771421,0.933462153,103.3305652
1989.777763,51.16066577,2.20446496,106.9707143
1990.624298,53.15773329,4.723543089,98.69724962
1991.470692,51.92726018,4.598373011,85.68392116
1992.316944,45.0048798,2.276540178,75.62505356
1993.163055,39.91315721,1.430441845,69.32495617
1994.009024,38.95228723,3.278623828,65.00763076
1994.854852,35.74808637,6.631496601,65.77427446
1995.700538,31.63118845,11.50924944,74.80778405
1996.546083,30.1251849,18.13007669,85.72401673
1997.391487,27.05095429,24.59754758,89.10288871
1998.23675,23.13369976,28.68829743,86.7793565
1999.081871,20.36984995,29.90311287,86.52573971
1999.926851,14.08532068,29.39900653,87.4225059
2000.771689,9.230097809,29.81222259,85.12929325
2001.616387,12.81903439,33.35802298,82.67087999
2002.460943,15.14411288,39.01870384,82.40303619
2003.305358,11.43208355,43.98711477,79.76903722
2004.149632,11.24251104,46.98552723,74.58722326
2004.993765,15.53398303,48.34437446,74.21981857
2005.837757,19.85304962,49.49101622,80.57264768
2006.681608,25.0653548,52.68426862,86.17586319
2007.525318,29.35233444,57.58283496,84.84352792
2008.368888,32.01948809,60.09493568,77.93855282
2009.212316,35.23864153,58.41807297,69.14683669
2010.055603,35.30826115,55.77237237,60.18154414
2010.898749,32.39993704,54.81787796,53.89426884
2011.741755,32.95139768,55.273464,52.88159747
2012.58462,33.79817986,56.999322,53.10835355
2013.427344,30.46091499,60.3317889,50.63956681
2014.269927,28.46087933,65.16009263,53.38427338
2015.11237,30.74276949,71.6838387,70.68414865
2015.954672,34.12091193,79.18556466,94.66740063
2016.796833,33.7827036,84.66118666,109.6029752
2017.638853,27.70401379,86.19201261,116.1104893
2018.480733,24.14143781,86.05630729,127.9519492
2019.322473,28.83937117,87.20816411,147.5298577
2020.164072,34.92036856,89.32181758,162.7044916
2021.00553,38.03066193,90.99678532,167.0602457
2021.846848,38.44979833,92.18950778,166.2565343
2022.688026,34.79068863,92.57447774,164.9177825
2023.529063,30.74781777,91.13736539,162.2935457
2024.36996,31.40058066,88.76020909,159.1761596
2025.210716,34.27727163,88.9250374,157.6840036
2026.051332,34.02427547,93.74543961,157.017766
2026.891808,29.44894771,99.47148185,155.6992259
2027.732144,25.7495434,99.32190146,153.596295
2028.572339,26.07827753,92.06925773,149.1428594
2029.412394,23.94199812,83.74503223,140.1691975
2030.252309,18.02739683,79.49261561,128.9710767
2031.092084,16.61761124,78.23773028,120.0222847
2031.931719,16.21521158,76.59045058,112.1029053
2032.771213,9.100428395,73.69147744,102.3644202
2033.610568,4.645157443,70.75906903,97.90344272
2034.449782,8.672173276,68.21771751,109.0081808
2035.288857,11.42092413,64.71486902,130.6066631
2036.127791,9.676658053,59.19192948,146.8817311
2036.966586,8.173947148,52.67231992,155.0800377
2037.805241,9.446834858,46.78858492,166.9588958
2038.643756,13.83320959,41.86649337,183.8756108
2039.482131,17.41039456,37.00730622,189.2458228
2040.320366,16.86434214,30.97315988,173.7250382
2041.158461,14.04673784,23.81221446,151.8136792
2041.996417,11.10034226,17.81845902,142.2875754
2042.834233,9.965490152,14.90379753,145.3425372
2043.671909,11.79069579,14.14557424,150.1715826
2044.509446,15.68723,14.14546864,152.8344886
2045.346843,20.00218333,14.81087195,156.2690928
2046.1841,20.67005398,15.08906315,162.0545056
2047.021218,20.15562687,13.18927173,168.8403762
2047.858196,26.56889818,9.595527198,173.0778637
2048.695035,32.29528057,6.487896646,171.4185773
2049.531734,29.0507916,5.558218531,166.0060243
2050.368294,28.18293446,7.493950553,161.8244131
2051.204714,32.25651223,10.69167022,158.3543595
2052.040995,30.69514717,11.75605734,152.2527333
2052.877137,28.42424483,10.43849899,145.3056668
2053.713139,33.30785253,10.6024201,141.3282978
2054.549002,37.83438032,13.61537801,139.781721
2055.384725,38.47797957,16.14988695,138.1540638
2056.22031,39.28771743,16.43580426,135.3583568
2057.055755,37.46879853,16.22211622,130.3919707
2057.891061,31.90076239,16.08269857,121.6133043
2058.726228,26.99933246,15.11864963,107.0048382
2059.561255,23.23743022,14.13209971,85.41586461
2060.396144,19.43814231,14.58022155,60.68835252
2061.230893,16.39147237,16.63913321,41.40897826
2062.065504,16.46616,19.55195877,33.17337639
2062.899975,19.553749,21.67111927,34.42463135
2063.734308,20.60876113,21.71476665,40.06667675
2064.568501,19.13076687,20.57379694,45.65471238
2065.402556,17.23267655,19.54254702,50.3717703
2066.236471,13.68063901,18.82286946,58.83620982
2067.070248,13.69315824,19.12876708,75.98030558
2067.903886,18.74965687,21.18615739,98.22449216
2068.737385,18.55180329,23.82377261,114.9448871
2069.570746,14.64909756,25.17009788,119.8728016
2070.403967,14.69628431,24.50238377,116.6664253
2071.23705,13.28999052,22.59170125,113.6770657
2072.069994,7.602702574,21.78408656,116.6288647
2072.9028,2.871227809,24.20087965,125.8056743
2073.735467,1.972214654,28.21501829,137.6512961
2074.567995,3.4964577,29.56431701,147.0830899
2075.400384,2.329488276,27.33331031,149.3933995
2076.232636,-1.564088796,24.27822734,143.4787936
2077.064748,-2.108288065,21.0885867,133.5863759
2077.896722,-0.273076994,16.91501995,125.0664043
2078.728558,-0.170930841,13.90808404,118.5236825
2079.560255,1.776056331,14.38496797,110.8264806
2080.391814,7.123589005,16.56998368,101.3199467
2081.223235,9.655488005,17.60627239,94.91156615
2082.054517,9.028506326,17.15153422,98.20213604
2082.885661,10.92890291,16.56695425,110.9652521
2083.716666,14.66980805,17.02722511,123.5275402
2084.547533,17.88318645,17.96618855,127.7923701
2085.378262,22.24725624,17.47477054,127.7988736
2086.208853,26.91931236,15.26648439,132.6144223
2087.039306,29.62389477,13.31949806,142.5807
2087.86962,31.46542419,13.14424765,150.7224134
2088.699797,33.13026047,14.32974554,154.6500627
2089.529835,32.92532837,15.47783611,158.3989223
2090.359736,30.70768612,15.74493813,164.6581721
2091.189498,28.47928643,15.88154913,172.1388974
2092.019122,25.41527813,17.32332615,178.4698094
2092.848608,20.07885601,19.76579925,180.5823809
2093.677957,17.45509389,21.04728182,173.5854095
2094.507167,19.36589527,20.51850846,154.9789052
2095.33624,18.98946316,20.20630806,131.4931289
2096.165175,16.68513896,21.49785261,114.7510644
2096.993972,17.32804727,23.96959118,106.9365169
2097.822631,16.06450835,27.40671031,98.7589054
2098.651152,11.62711511,31.1545136,84.64335038
2099.479536,11.69528645,33.08647999,70.80231459
2100.307782,12.55949154,32.83051069,64.78192237
2101.13589,6.676496195,33.7778064,65.75053676
2101.963861,3.687773215,38.25878335,67.71601261
2102.791694,10.25216267,42.74478198,65.33493628
2103.619389,14.47812733,42.05329434,56.79693602
2104.446947,11.40622001,36.86180905,45.7229276
2105.274367,9.606032154,32.5714834,37.85918207
2106.10165,10.50940743,31.84996807,34.33112863
2106.928796,10.77960558,32.58169874,32.35752593
2107.755804,12.44919652,32.64170904,32.42923549
2108.582674,14.66815887,32.89079042,38.75066772
2109.409407,14.43650797,34.71237877,51.58112578
2110.236003,13.51373034,37.24613917,63.74941204
2111.062462,10.90332542,38.81738948,66.50502445
2111.888783,5.86603352,39.48720407,58.3478252
2112.714967,5.763492988,40.13392286,47.46666972
2113.541013,13.10453164,40.698379,43.42783912
2114.366923,20.05493274,41.43787372,48.29580777
2115.192695,21.28517712,43.52103673,58.11594283
2116.01833,19.93553892,46.70480125,68.18779772
2116.843828,20.5124019,48.82919624,74.93466316
2117.669189,20.57718864,48.51004295,78.04026981
2118.494413,17.66694154,47.00155509,81.60561672
2119.3195,15.27282067,46.73180827,89.7200426
2120.144449,13.76567021,48.07460138,101.5341525
2120.969262,13.96659139,48.32974276,113.1238712
2121.793938,19.2179332,44.32609649,122.8820879
2122.618477,23.23943011,36.19114074,131.8537102
2123.442879,20.59202752,28.23921193,139.0468245
2124.267144,16.89108273,24.69137681,140.8211296
2125.091273,16.16659219,25.0086685,136.5450465
2125.915264,18.76285774,25.60149841,130.5229322
2126.739119,22.93545773,25.22691142,127.1216473
2127.562837,25.93488772,26.09539759,128.2359023
2128.386418,31.76938231,29.55765163,133.260904
2129.209863,41.19410702,33.03342259,135.8898987
2130.033171,45.31490997,33.19135616,125.1873346
2130.856342,44.52127666,30.78927667,98.16567241
2131.679377,48.60615622,29.25695588,68.91170041
2132.502275,56.91814514,29.67830609,54.93386232
2133.325036,63.25918524,30.89490601,55.68689411
2134.147661,67.21117756,32.54809184,56.41840966
2134.97015,67.46637723,33.96856223,49.83488537
2135.792502,63.62676866,33.03789594,40.81390073
2136.614718,59.74255623,29.42056246,35.18237336
2137.436797,56.34720113,25.82143986,36.06100503
2138.25874,53.18590615,24.45075321,45.64841341
2139.080546,51.65228342,24.40781335,62.05824656
2139.902217,49.20294306,22.69949353,79.79263691
2140.723751,45.11899386,17.3557157,97.67401914
2141.545148,41.44935095,10.30853433,119.1634489
2142.36641,35.18959284,5.911523163,142.4063647
2143.187535,25.61551401,5.531203115,159.5159532
2144.008524,18.21515952,6.725109295,168.1604059
2144.829377,15.38700935,8.178979429,173.7211957
2145.650094,15.99631687,10.86638526,178.0036383
2146.470674,17.6812754,14.49606449,176.3951631
2147.291119,19.31080303,17.22508568,168.024461
2148.111427,21.7665461,18.73679333,156.9362985
2148.9316,20.53678775,20.92062735,142.616829
2149.751637,13.2474186,25.56704212,121.9505428
2150.571537,7.83194829,32.10747145,98.94824762
2151.391302,6.775391654,37.60631333,81.01428063
2152.210931,6.240420997,40.1169023,68.33400686
2153.030424,9.291962261,41.3001423,55.79752391
2153.849781,14.2590458,43.04636052,41.85337425
2154.669002,11.88888135,44.17162666,28.30169589
2155.488088,5.309029777,43.69621782,15.83961844
2156.307038,4.752232267,43.06401144,6.199695874
2157.125852,9.198762052,42.92211878,3.209700812
2157.94453,12.04053724,42.04622907,6.538062256
2158.763073,12.86064835,39.81119564,10.69987715
2159.58148,14.10353974,36.37344199,13.38966747
2160.399752,15.04447585,31.09032432,17.44171424
2161.217888,14.96079774,23.50468965,23.06136874
2162.035888,14.80506436,15.61120338,26.60304483
2162.853753,15.00565801,10.85402933,28.04315294
2163.671482,16.24886663,10.23127414,31.5393686
2164.489076,20.42719474,10.79061776,37.95723979
2165.306534,27.30835058,9.280500898,43.21860503
2166.123858,31.09851611,6.620254877,44.4803073
2166.941045,29.77308249,6.764642457,43.40361368
2167.758098,29.34749018,11.22332156,42.12057973
2168.575015,29.62437771,17.3656474,40.12200607
2169.391796,27.21868106,22.72040244,37.54509893
2170.208443,27.29266599,27.80454929,37.13129934
2171.024954,31.95940255,33.66960374,40.85980577
2171.84133,36.47002458,39.90801255,48.07902899
2172.657571,40.64208915,46.29080427,56.48222323
2173.473676,43.6009328,53.93218277,62.65228797
2174.289647,41.03745443,63.52429284,63.88632805
2175.105482,37.36029916,72.99590072,61.35022718
2175.921183,38.41368307,78.35963527,59.60154185
2176.736748,39.11121334,78.39715137,61.16940734
2177.552178,36.30254208,77.08928448,62.63691078
2178.367474,34.68187122,78.39299456,58.86076425
2179.182634,33.38637656,80.32774637,49.93974946
2179.997659,27.34603154,78.79231062,40.28036107
2180.81255,19.23449755,75.38560807,33.71188401
2181.627306,14.37379756,75.40199845,33.6435058
2182.441926,11.06620234,78.99462626,41.68632486
2183.256412,7.298651516,80.18932855,51.50600153
2184.070764,6.199300074,75.29294955,52.2458858
2184.88498,5.089917295,68.03425495,42.21618651
2185.699062,-1.792478907,64.10241302,31.90216412
2186.513009,-6.15462023,63.46086562,31.08675106
2187.326821,-2.100523778,61.86654397,39.1167573
2188.140499,-1.0276923,57.85038816,49.32976572
2188.954042,-3.347304869,53.61131776,57.45931004
2189.76745,0.96792968,50.41293332,62.51435454
2190.580724,5.353455084,47.22172604,64.34360084
2191.393864,2.695960676,43.53906291,65.81438491
2192.206869,1.034864619,40.56148954,73.10112925
2193.019739,4.314049569,38.78740333,87.22674106
2193.832475,6.345241998,36.35581736,99.83779904
2194.645077,5.505343881,31.13688979,103.7595462
2195.457544,6.483510397,23.70048599,102.4339198
2196.269877,10.46243101,17.21519395,102.6856538
2197.082075,14.17600317,14.06359096,104.3041357
2197.894139,16.11364133,12.90486139,104.6817996
2198.706069,18.73615505,10.92670682,107.3287693
2199.517865,22.80380583,8.695835744,115.8123065
2200.329526,24.46633978,8.814662166,125.4218389
2201.141053,23.11046577,10.20058033,128.9741348
2201.952446,21.91404136,9.041384568,123.5496623
2202.763705,20.05109313,4.928804842,109.7257281
2203.57483,17.08747763,1.477597863,94.02680389
2204.385821,15.80251719,1.409351375,88.17166114
2205.196677,16.23482972,3.41566143,95.47346555
2206.0074,18.45658763,4.088237498,104.6360154
2206.817988,20.57970857,2.124326324,104.715903
2207.628443,17.7182395,-0.890019814,97.2909964
2208.438764,13.46549145,-3.201057502,88.50603166
2209.24895,11.49042561,-4.034350016,80.23659183
2210.059003,7.086627596,-2.916050065,75.32181279
2210.868922,1.895689674,-0.380857141,81.36940637
2211.678707,1.461395982,1.302528803,101.1656732
2212.488359,3.371487541,0.7348688,125.47764
2213.297876,3.350054426,0.080848078,143.0581918
2214.10726,3.147870734,2.18525023,152.9922882
2214.91651,6.466984144,6.170371896,160.6578766
2215.725627,9.989030428,8.94960838,167.4831308
2216.534609,9.236650718,9.588644588,172.2827032
2217.343459,8.076481154,9.737073781,177.6489346
2218.152174,9.806961893,10.76187573,185.9684275
2218.960756,10.23461927,12.15799505,191.9556133
2219.769204,6.468444,12.96784931,188.0643614
2220.577519,3.151459659,13.30345834,175.0810283
2221.3857,4.298218999,13.51931733,160.7318649
2222.193748,6.894209763,13.2917764,151.3155719
2223.001663,8.460504471,12.53939667,147.5104769
2223.809444,9.286941407,12.35330518,143.4884453
2224.617091,8.542885098,14.02097745,130.5200347
2225.424606,7.161667187,17.09029913,107.1066559
2226.231986,6.26281588,19.46752862,83.06628
2227.039234,5.146120677,20.03553574,68.00781576
2227.846348,4.151976701,19.70496291,61.24278385
2228.653329,3.026207204,19.63995659,59.1526811
2229.460177,2.68095432,20.62904944,63.96600381
2230.266892,5.423237951,23.28684736,77.64278746
2231.073473,9.300580265,26.69887599,94.12773145
2231.879922,12.11922248,29.33967864,104.015106
2232.686237,14.74332243,32.4037183,103.5134886
2233.492419,17.00972748,38.26625206,96.29799246
2234.298468,17.63887259,45.25471399,88.91277732
2235.104384,15.6276954,48.45671938,86.07729079
2235.910167,12.42661494,46.8198994,89.9197991
2236.715818,10.64384371,45.3463438,100.5261032
2237.521335,9.942638239,47.98508039,113.6010449
2238.326719,10.55875726,52.1208889,120.8084149
2239.13197,13.06752123,53.17336219,118.0321344
2239.937089,13.83476068,51.04365219,110.6687084
2240.742074,11.32151978,48.90219152,106.0999964
2241.546927,8.5224629,48.18080427,104.0582535
2242.351647,5.201766513,47.28607331,98.52269266
2243.156234,0.596631617,44.84483192,85.66831228
2243.960689,-2.145669933,42.05319289,67.15027656
2244.765011,-3.322910863,40.20862925,49.36658764
2245.5692,-4.96825014,38.64633583,39.55383412
2246.373257,-4.706703817,37.10921652,38.87443807
2247.177181,-3.493625774,36.37268798,42.21399547
2247.980972,-3.7198929,35.85791294,46.41764125
2248.784631,-1.75940946,34.65843241,52.55144231
2249.588157,2.364402553,33.47826098,60.85709254
2250.391551,4.810789955,32.90653194,71.03213223
2251.194812,6.924344167,33.23906044,84.96818365
2251.997941,7.094911024,32.69470938,89.52305769
2252.800937,7.078337261,32.23509612,94.88316749
2253.603801,6.874622876,31.86022066,101.0485131
2254.406533,6.483767871,31.570083,108.0190944
2255.209132,5.905772245,31.36468314,115.7949114
2256.011599,5.140635999,31.24402108,124.3759642
2256.813934,4.188359132,31.20809683,133.7622528
2257.616136,3.048941644,31.25691038,143.9537772
2258.418206,1.722383535,31.39046173,154.9505372
2259.220144,0.208684805,31.60875088,166.7525331
2260.02195,-1.492154545,31.91177783,179.3597647
2260.823624,-3.380134516,32.29954258,192.772232
