Wavelength,HS_V2S2_AAB_C2_I1,HS_V2S2_AAB_C2_I2,HS_V2S2_AAB_C2_I3
351.7692476,37.25930588,39.94362629,3.593207552
352.902517,34.02531815,36.38981812,8.541067102
354.0355789,31.02485519,33.14763709,13.34697817
355.1684331,28.257917,30.2170832,18.01094076
356.3010798,25.72450357,27.59815645,22.53295486
357.4335191,23.42461491,25.29085685,26.91302049
358.5657509,21.35825102,23.29518438,31.15113763
359.6977753,19.5254119,21.61113906,35.24730629
360.8295924,17.92609754,20.23872087,39.20152647
361.9612023,16.56030795,19.17792983,43.01379816
363.0926049,15.42804313,18.42876592,46.68412138
364.2238004,14.52930308,17.99122916,50.21249611
365.3547887,13.8640878,17.86531954,53.59892237
366.48557,14.5357967,15.0822955,57.53189499
367.6161443,12.65131014,11.3590466,60.90671504
368.7465116,7.62526052,10.70700227,63.91165105
369.876672,6.014944462,15.97165576,66.85770339
371.0066255,12.61955838,25.86169093,70.07518658
372.1363723,22.06263448,34.95202948,73.81770772
373.2659122,27.56776768,39.78975715,78.20962398
374.3952455,30.18897378,43.18105259,83.23300219
375.5243721,33.15311574,49.66013698,88.73479707
376.6532921,36.13228122,59.40282516,94.4482733
377.7820055,38.67725439,68.94368873,100.0338199
378.9105124,41.47385751,75.62341733,105.1336893
380.0388129,43.33986259,79.48536308,109.4187284
381.166907,42.7574407,82.13981905,112.6015837
382.2947947,41.30611762,85.12334803,114.4096652
383.4224761,40.59465974,88.5069496,114.5464995
384.5499513,38.61305205,90.4571514,112.6912885
385.6772202,34.89164698,89.48066777,108.5629222
386.8042831,34.36035723,86.47284304,102.0228974
387.9311398,38.3269483,82.42701642,93.16495797
389.0577904,38.0986413,75.77462487,82.35598244
390.1842351,27.42249399,64.72074422,70.21264976
391.3104739,13.69060563,51.23702562,57.51883143
392.4365067,6.50884009,40.51275988,45.10534809
393.5623337,4.369468594,36.26083861,33.72931448
394.6879549,2.437410428,37.59317223,23.98663942
395.8133703,2.58810313,40.77123876,16.26618367
396.9385801,6.862885417,43.100511,10.73386524
398.0635842,11.08479008,44.70209499,7.337584902
399.1883827,11.12121564,47.39012245,5.831812688
400.3129757,8.515708066,53.04713198,5.817387286
401.4373632,7.586158603,62.4076453,6.789335479
402.5615452,10.33419282,73.31303663,8.195690407
403.6855219,14.37308111,81.04293263,9.519309345
404.8092932,15.32939569,82.7818774,10.3743363
405.9328592,11.40587527,80.34241776,10.57760213
407.05622,5.070575346,76.87163745,10.15732129
408.1793756,-0.016391766,73.49077014,9.303702605
409.3023261,-2.707908193,70.22885842,8.301145167
410.4250715,-3.340233901,67.03296044,7.478918654
411.5476118,-0.841571459,62.73182186,7.191192355
412.6699472,5.167943352,55.84658726,7.811361183
413.7920776,10.54273506,47.23669211,9.713855827
414.9140032,9.315472133,39.90746506,13.22733386
416.0357239,1.391800416,36.12394531,18.56860677
417.1572398,-5.472862431,35.91056716,25.78086079
418.278551,-4.444158558,38.16323647,34.70226917
419.3996575,2.741571496,42.70807141,44.97653384
420.5205593,10.83595251,50.21714372,56.10462128
421.6412566,18.26520723,59.11920889,67.52422116
422.7617494,24.88888601,65.27608969,78.69185359
423.8820376,29.80164934,67.40291177,89.13774526
425.0021215,33.96676879,69.68789028,98.47505854
426.1220009,39.23833257,76.23140187,106.3744237
427.241676,45.8103626,85.77964245,112.5382912
428.3611469,52.33934382,93.27471758,116.7013671
429.4804135,55.79406995,94.59858673,118.6596068
430.5994759,53.65410429,90.21098775,118.3163853
431.7183342,47.50305923,84.35163381,115.7228329
432.8369884,41.14029571,79.66765379,111.0874619
433.9554385,36.93765038,75.21494722,104.7474159
435.0736847,35.78822318,70.87403088,97.11398914
436.191727,38.17352114,68.80534379,88.61102032
437.3095654,43.55037838,68.66404592,79.62608383
438.4271999,47.72073262,66.3374189,70.49102553
439.5446307,44.11500976,59.84171278,61.48413391
440.6618577,32.51437424,52.81066464,52.83174717
441.778881,21.73862136,49.67427846,44.69602628
442.8957007,18.51254307,50.28493209,37.16156159
444.0123169,20.53972176,51.99007347,30.25049939
445.1287295,23.36370523,54.29271242,23.97214275
446.2449386,25.50592451,57.96995999,18.38570405
447.3609443,26.48054161,61.6070998,13.65153352
448.4767466,26.6129426,62.77225056,10.04933137
449.5923455,27.46050389,62.11894176,7.939734354
450.7077412,29.492525,63.46789915,7.665720893
451.8229337,30.76499659,69.1103412,9.43242084
452.9379229,29.39267589,77.32606726,13.22299426
454.0527091,27.24232768,85.72167812,18.78302033
455.1672921,27.28766751,93.83991066,25.66718288
456.2816721,27.76023111,101.0117056,33.32671065
457.3958491,25.42529523,105.2981387,41.21558371
458.5098232,22.13778496,106.2722846,48.88525563
459.6235944,21.97346697,106.7398198,56.03740098
460.7371628,25.71049985,110.4415104,62.52789772
461.8505284,30.91565566,117.6842423,68.3413676
462.9636912,33.63557059,123.3726481,73.56235421
464.0766514,30.40204723,121.3262863,78.35505889
465.1894089,21.7816693,111.3627035,82.93854489
466.3019639,13.18623239,100.0792324,87.53463839
467.4143163,9.611449441,93.77528981,92.29629539
468.5264662,9.581110366,92.39739198,97.25029849
469.6384136,7.615006497,91.5286372,102.2808615
470.7501587,2.491901844,88.27581343,107.1513226
471.8617014,-1.795527054,83.35951956,111.5388378
472.9730419,-1.619856059,79.32868509,115.0704841
474.0841801,3.56286566,78.31243334,117.3669143
475.1951161,10.2485826,79.70668276,118.0993036
476.30585,12.42230782,80.13997526,117.0516309
477.4163818,9.164865546,77.63573803,114.1676888
478.5267115,7.020115434,74.03445079,109.5593705
479.6368392,10.83979916,71.87443329,103.4755217
480.746765,17.98986317,71.32524801,96.25207803
481.8564889,22.76456269,70.40357481,88.26474548
482.966011,22.49955013,66.85441801,79.88946698
484.0753312,20.79807308,61.09570557,71.46467158
485.1844497,24.41644434,56.95265281,63.25349384
486.2933665,34.22372547,57.10049669,55.41987629
487.4020817,43.36556702,59.0636727,48.04060924
488.5105953,46.24677397,58.22888928,41.15863196
489.6189073,43.80681873,52.95679198,34.85311018
490.7270178,40.11120991,45.01453653,29.28268724
491.8349268,38.62996242,37.27826959,24.67923039
492.9426345,39.86228593,32.00851765,21.2864611
494.0501408,39.69960515,29.44786683,19.26921608
495.1574458,34.4603924,28.00279536,18.63608123
496.2645495,28.1596915,26.65586306,19.20931176
497.3714521,27.80048077,25.82658706,20.65409145
498.4781534,33.19136538,25.56169818,22.56565856
499.5846537,38.56729052,24.51911935,24.59504329
500.6909529,40.0308486,20.6424666,26.56879995
501.7970511,36.68917398,12.88984537,28.55467421
502.9029483,30.22645333,3.496468865,30.84593651
504.0086446,25.62922685,-3.134440271,33.86303346
505.1141401,26.5046491,-5.245631627,38.00292204
506.2194347,29.33885251,-4.914119834,43.49623545
507.3245286,28.14199169,-3.810490978,50.32087144
508.4294218,23.33059055,-1.130911197,58.18737297
509.5341143,20.40075449,3.92243053,66.58963484
510.6386062,22.12464311,10.07088405,74.90908889
511.7428975,25.50146802,14.22774427,82.55231603
512.8469882,24.21600444,13.37864253,89.08597639
513.9508786,15.1568218,8.214939085,94.32248783
515.0545684,4.170323906,4.370354425,98.32098357
516.158058,0.448215792,6.480937219,101.3063277
517.2613472,4.845426599,12.48459734,103.5535065
518.3644361,9.693970612,17.33601958,105.3001017
519.4673248,9.081373613,19.44900725,106.7036861
520.5700133,4.688259087,20.6603959,107.8339646
521.6725016,2.689309968,22.89266857,108.6845842
522.7747899,7.404984041,26.09580649,109.1982377
523.8768782,17.2741468,27.79239248,109.2989083
524.9787665,26.29597495,25.4207541,108.9174149
526.0804548,31.36294116,19.94850844,107.9907763
527.1819433,37.43732193,15.67878849,106.4300738
528.2832319,49.94880577,16.04340494,104.0824478
529.3843207,64.99352405,20.58904931,100.7253941
530.4852098,75.59547702,25.9564997,96.10734268
531.5858992,81.7105877,28.95722775,90.01782468
532.6863889,85.57233328,28.85680258,82.36229945
533.7866791,85.51372779,27.48785805,73.22833348
534.8867697,81.13071001,27.22812971,62.93164859
535.9866608,76.42895593,28.70748262,52.03084733
537.0863525,73.05052365,30.29683841,41.30039927
538.1858447,66.57333853,29.57719644,31.64941069
539.2851376,53.95286999,26.2634074,23.97903464
540.3842312,40.51109364,24.32148778,18.99719491
541.4831256,33.73656693,28.71560287,17.04684909
542.5818207,33.20900664,39.18908301,18.02250127
543.6803167,33.24664671,50.61798364,21.41555934
544.7786136,31.51181982,59.09959407,26.45752258
545.8767114,29.20105766,63.91998414,32.29096337
546.9746102,27.48653518,65.43826042,38.12036551
548.07231,27.15344182,64.65678707,43.33029857
549.1698109,27.7362544,62.95970364,47.56944774
550.2671129,26.78056882,60.92254352,50.7916037
551.3642162,23.62244787,58.87616594,53.23500083
552.4611206,22.37884586,57.50116978,55.33186394
553.5578263,26.72134087,56.83137638,57.577415
554.6543334,33.44889814,56.23359249,60.41360917
555.7506418,36.92831082,55.09832421,64.16477938
556.8467516,37.30168208,52.63859945,69.02382877
557.942663,37.83145837,48.37222039,75.06961907
559.0383758,38.5422743,43.10392229,82.30248012
560.1338902,37.80627831,37.88413351,90.69504236
561.2292062,34.81616651,32.62093662,100.247419
562.3243239,29.1028962,27.62934948,111.0232413
563.4192432,22.7613692,24.8224858,123.1366372
564.5139644,19.67185987,24.7698665,136.6769675
565.6084873,18.89689404,25.14077584,151.593112
566.7028121,16.0362911,24.8198738,167.5848398
567.7969388,12.93930643,26.64185545,184.0483018
568.8908675,17.56310503,33.49530463,200.1018825
569.9845981,32.27330667,43.69653184,214.6924716
571.0781308,48.69764384,51.91764142,226.7643112
572.1714656,56.55949874,54.12901769,235.4576158
573.2646026,54.22968935,51.00640801,240.2815952
574.3575417,48.0143253,46.39800531,241.1996242
575.4502831,43.46188998,43.17983929,238.5973016
576.5428267,42.39356784,41.99216907,233.1505191
577.6351727,46.60101309,42.75655465,225.6373382
578.7273211,56.70702556,44.73772471,216.7534072
579.8192719,68.29886831,46.54230261,206.9967558
580.9110251,76.16491891,47.9165598,196.6553678
582.0025809,80.38875674,49.2224489,185.8740553
583.0939393,83.24114855,48.84352703,174.750385
584.1851003,83.87631394,44.53343634,163.4213007
585.276064,80.45517506,37.30610618,152.1182956
586.3668304,73.66968118,30.80470005,141.1762866
587.4573995,66.04268577,27.24614093,130.9903622
588.5477715,61.09822359,26.33022702,121.930288
589.6379463,60.50335989,26.90752793,114.2403502
590.727924,59.14649666,28.15570008,107.9609829
591.8177047,50.72277099,30.65892739,102.8985246
592.9072884,39.57306268,36.32513898,98.65046867
593.9966751,36.61353816,45.6525978,94.68264535
595.085865,43.02952673,55.66714557,90.4467958
596.1748579,47.57638979,61.67996432,85.5129584
597.2636541,41.1217505,61.58294225,79.67358096
598.3522535,26.59551091,58.12743296,72.97280668
599.4406563,13.55132425,55.78564053,65.64303825
600.5288623,7.85146342,56.03204599,57.99098199
601.6168717,7.600873649,57.33869694,50.30593861
602.7046846,7.724547045,58.56255223,42.83618188
603.7923009,6.235380254,59.7169821,35.83128558
604.8797208,3.330456554,59.68758634,29.61778699
605.9669443,-1.566245477,56.1854729,24.66375538
607.0539713,-6.613719325,49.11237455,21.58656176
608.1408021,-6.367162444,41.50631024,21.07546478
609.2274365,1.057213773,36.10596617,23.74132532
610.3138748,10.87561685,33.36852068,29.94612549
611.4001168,19.81506974,33.14999727,39.67281246
612.4861627,31.85496413,35.30091704,52.47462915
613.5720125,51.27656467,38.63075004,67.52120209
614.6576662,73.86142457,42.13700395,83.73778948
615.743124,90.83234516,46.76096313,99.99995638
616.8283858,100.9008556,53.62899757,115.3192617
617.9134517,111.3621674,61.16452397,128.9673794
618.9983217,125.7894305,65.54199428,140.5237716
620.082996,138.6691084,64.22040541,149.8582295
621.1674744,143.7877419,58.44787848,157.0616122
622.2517572,141.3400106,52.36317922,162.3351805
623.3358443,136.3293133,50.31534329,165.8618295
624.4197358,132.2724319,53.49938186,167.7056669
625.5034317,126.9213187,57.74086611,167.7872314
626.586932,115.6800031,56.87854362,165.9523886
627.6702369,97.81678594,49.39515005,162.1020551
628.7533464,76.89337206,39.23859399,156.3140902
629.8362605,56.3440411,29.99208827,148.8959763
630.9189792,36.73606183,21.38971226,140.3487519
632.0015027,19.15401363,12.68256173,131.2594589
633.0838309,8.479785229,6.248294961,122.1563907
634.1659639,6.808606434,4.707015545,113.3777228
635.2479018,7.142562154,6.475677317,105.0128289
636.3296446,2.70392789,7.839625288,96.94447624
637.4111923,-2.007571933,8.175181933,88.96198097
638.492545,0.749428494,9.546694086,80.88626705
639.5737027,8.180874,12.14207252,72.66381554
640.6546656,11.79516935,14.10216207,64.40718903
641.7354335,11.30768145,15.41437296,56.36776525
642.8160067,13.70850903,18.16901864,48.8510027
643.8963851,22.02218177,22.97687412,42.12053378
644.9765687,32.42621803,27.92247571,36.33679956
646.0565577,40.27995429,31.49410007,31.5401632
647.136352,44.1667522,34.43234682,27.66392147
648.2159518,44.74046316,37.50390798,24.56364041
649.295357,43.10892393,39.44082488,22.06280503
650.3745677,40.99388535,38.83747497,20.01034442
651.453584,39.92504668,36.55865416,18.33071702
652.5324059,39.92213729,34.9421969,17.04499898
653.6110335,40.97517951,35.45526485,16.25255713
654.6894667,44.0747755,37.34309803,16.0763226
655.7677057,47.34563264,37.89145952,16.59203866
656.8457504,46.41553431,35.26664026,17.77105584
657.923601,44.51428729,32.19059661,19.45177585
659.0012575,51.0391602,33.57000927,21.34079819
660.07872,63.58570607,39.03826046,23.05519232
661.1559884,69.30600649,42.59847566,24.21578151
662.2330628,67.30148897,40.82636559,24.55892784
663.3099433,68.13060395,36.43341127,24.00947674
664.3866299,73.02611899,33.43816957,22.68958105
665.4631227,73.65692564,33.26831107,20.88307677
666.5394216,68.15657302,35.8307725,18.97971622
667.6155269,63.09509801,40.74169738,17.41823773
668.6914384,63.33103405,46.41474891,16.64977466
669.7671563,66.46167841,49.84628642,17.12949305
670.8426806,65.00436836,49.0493622,19.31851029
671.9180114,54.56921942,46.0262266,23.6691704
672.9931486,40.44215023,45.92226256,30.57644899
674.0680924,31.715797,52.31227511,40.29713827
675.1428427,30.88983533,64.5528686,52.86461322
676.2173997,34.21261077,79.51283181,68.03572377
677.2917633,37.7069604,93.67750639,85.29470394
678.3659337,39.86590486,104.3953919,103.916901
679.4399109,43.05531912,111.3129516,123.0754121
680.5136948,49.95747364,115.6149516,141.9600277
681.5872856,56.08967299,117.5676449,159.8708941
682.6606834,55.13838561,118.0270543,176.2500924
683.7338881,51.701315,121.5894518,190.6343805
684.8068997,55.30674727,132.5013792,202.5595705
685.8797185,65.03022794,147.5292884,211.4906056
686.9523443,72.97779991,158.0909178,216.8400889
688.0247773,76.04712731,159.5521378,218.0731211
689.0970174,75.86490665,155.5715135,214.8424197
690.1690648,74.96137179,153.091202,207.0949195
691.2409195,74.96004702,153.6610537,195.127693
692.3125815,74.38346276,151.7678889,179.6003447
693.3840508,71.03026853,142.991564,161.5053403
694.4553276,64.71373981,129.5634359,142.0755799
695.5264119,54.67808877,115.7638578,122.6154892
696.5973036,42.0586516,103.6921944,104.297128
697.6680029,35.35697166,95.34665258,87.99228027
698.7385099,41.55460606,92.18567339,74.18847715
699.8088244,53.37131821,91.09209411,63.00143546
700.8789467,57.80519118,86.44835284,54.26603101
701.9488767,53.96168045,77.23443968,47.66010759
703.0186145,51.19752199,67.99903543,42.81352534
704.0881601,54.81242778,62.623535,39.38442105
705.1575136,62.84221894,60.44774156,37.10685256
706.226675,70.42493007,58.69396723,35.80928418
707.2956444,72.415193,56.48301595,35.39476542
708.3644218,68.64491265,56.0651293,35.77973462
709.4330073,65.96604636,59.98531278,36.80570615
710.5014009,69.11942262,66.87470768,38.17328481
711.5696026,73.90696956,71.78230416,39.4437668
712.6376126,74.07283966,71.50761983,40.11886708
713.7054308,70.55768666,67.93876669,39.76236257
714.7730573,69.7390879,65.16181163,38.1161369
715.8404921,72.92427916,63.60803442,35.18430283
716.9077353,72.11235501,58.83783369,31.27926457
717.974787,60.89525291,48.27336845,27.01643622
719.0416471,44.19315391,36.03823153,23.22668543
720.1083157,30.99199541,27.20954477,20.78447944
721.1747929,24.71202462,21.3845742,20.41418786
722.2410788,24.2968566,15.69453362,22.5664385
723.3071733,26.93983823,9.853515652,27.40153155
724.3730765,28.32815191,5.300788938,34.84297173
725.4387884,24.82717251,2.505845444,44.6363361
726.5043092,16.80870041,1.225094335,56.37600257
727.5696387,9.687190955,1.84637124,69.51232337
728.6347772,9.894712459,4.9184484,83.38004279
729.6997246,18.42329,9.868048398,97.27366223
730.764481,29.17466554,15.00301871,110.5553469
731.8290465,34.55256309,18.32730706,122.75152
732.893421,33.87996839,18.62497297,133.5928213
733.9576046,34.32069141,16.59678446,142.9752711
735.0215973,40.41418852,14.32713102,150.8624749
736.0853993,48.10806733,13.81261802,157.1927545
737.1490106,53.18508854,16.76092815,161.8408073
738.2124311,57.24163876,23.44712441,164.6441833
739.275661,61.22401743,30.19711819,165.4691525
740.3387003,61.3940909,31.45200065,164.2850023
741.401549,55.32457249,26.55897447,161.2132556
742.4642072,46.80766153,21.5039037,156.5241384
743.5266749,42.46792108,21.76788249,150.5832876
744.5889522,44.5024581,26.00942184,143.7887545
745.6510392,48.77638019,29.23352844,136.5425301
746.7129358,50.70304115,29.48180882,129.2631093
747.7746421,49.29501595,27.85325472,122.4050298
748.8361581,45.79841007,24.71184757,116.446873
749.897484,41.58714682,19.92238874,111.8348054
750.9586197,36.19759141,15.02492074,108.8987772
752.0195653,29.90697987,13.0201247,107.7764493
753.0803208,28.62258616,16.56800949,108.3736714
754.1408863,37.47242542,25.59561905,110.3685881
755.2012619,51.14886304,36.19950681,113.2531318
756.2614475,59.5428649,43.38609355,116.4013961
757.3214432,59.99371904,45.50445662,119.1481224
758.3812492,58.6947465,45.62119999,120.8580524
759.4408653,61.57787588,47.97664782,120.9793558
760.5002916,66.73877661,53.43650338,119.094197
761.5595283,67.1802164,59.21200606,114.9783994
762.6185753,59.44707452,61.73697214,108.656698
763.6774327,47.52148482,58.80701932,100.4228008
764.7361006,38.08285372,50.96372651,90.80247385
765.7945789,33.06446773,42.04626392,80.45820661
766.8528678,29.17348196,36.94017615,70.06171038
767.9109672,24.19600249,37.42463104,60.18453547
768.9688772,20.45222919,40.8935852,51.25409785
770.0265979,20.96985993,43.81680629,43.58789413
771.0841294,23.93826789,44.61949633,37.47338985
772.1414715,24.00595936,42.43825364,33.23637091
773.1986245,20.07083983,36.61907665,31.24917752
774.2555883,17.24262151,29.53041471,31.86237617
775.312363,18.85104249,26.58536823,35.29010834
776.3689486,22.46315922,31.05481549,41.51273331
777.4253452,25.52776686,40.60976295,50.24143017
778.4815529,28.36128001,50.08703139,60.93878669
779.5375716,31.71503798,56.13711072,72.86801272
780.5934014,36.14897869,58.60854224,85.16169559
781.6490423,41.25078519,59.0064737,96.91981881
782.7044945,44.11576692,58.4666145,107.3373448
783.7597579,42.26387348,56.30371392,115.8323916
784.8148327,37.06059465,50.64155814,122.1294122
785.8697187,32.64910634,41.96245985,126.2657982
786.9244161,32.58905624,34.63329782,128.5239378
787.978925,36.87033484,32.19242281,129.3238094
789.0332454,42.25172059,32.89441373,129.1203907
790.0873772,45.35153915,32.55347174,128.3300927
791.1413206,44.30775193,30.25689397,127.2847346
792.1950757,40.29163399,29.49304992,126.2077486
793.2486423,38.20400877,33.91777612,125.2167982
794.3020207,41.81781871,42.80348866,124.3606294
795.3552108,48.10146484,51.07292189,123.686405
796.4082127,50.46769583,53.70233354,123.3106823
797.4610265,47.77595804,50.39154383,123.4544251
798.5136521,45.31758003,46.20983609,124.4200078
799.5660896,45.77541492,46.82494012,126.5298158
800.6183391,44.49083909,52.92209134,130.0733781
801.6704006,36.43397363,60.39322695,135.2869547
802.7222742,24.36128512,65.70160492,142.3416859
803.7739599,16.56653042,68.9436763,151.3039554
804.8254577,16.54481515,70.88901561,162.0651928
805.8767677,18.92488974,70.3703821,174.2781902
806.9278899,19.29162802,67.58865576,187.3431827
807.9788245,21.59372171,66.36434965,200.4554034
809.0295713,30.05125895,69.69301626,212.6973024
810.0801305,42.49845537,76.93307477,223.1583515
811.1305021,56.25241324,86.93485346,231.0697314
812.1806862,70.37849376,98.481259,235.9363384
813.2306828,80.00867282,106.5316698,237.64203
814.2804919,78.72038277,104.3488567,236.4944738
815.3301136,68.76789582,92.22247969,233.1700246
816.379548,60.65032528,79.85735252,228.5378539
817.428795,61.95788668,77.20197436,223.3969275
818.4778548,73.19074173,85.21705549,218.2252944
819.5267273,91.2982231,96.97895724,213.0599796
820.5754126,110.9143627,105.0271571,207.5645995
821.6239108,125.5942734,106.4841255,201.2418234
822.6722219,131.3235556,103.3325692,193.683906
823.720346,128.8922066,99.33620854,184.7633845
824.768283,124.1123663,96.68993026,174.7171503
825.8160331,123.5971793,95.32211207,164.1173545
826.8635963,128.7457,94.4803531,153.7432589
827.9109725,136.0821147,93.94089041,144.3873615
828.958162,141.3258206,93.53191372,136.6423473
830.0051647,142.0642032,93.1206532,130.7174566
831.0519806,142.4431538,95.21217146,126.3339826
832.0986098,151.9544315,105.3102692,122.7451942
833.1450524,170.3836194,124.8949712,118.9030993
834.1913083,183.2388689,146.0433815,113.7496902
835.2373777,181.2633747,158.2701903,106.5482721
836.2832606,169.9831048,158.1984813,97.13088863
837.328957,154.457782,149.0249713,85.96566823
838.3744669,132.7307298,135.4248937,74.03120702
839.4197905,107.8505672,122.9721539,62.544022
840.4649277,89.53715432,117.693897,52.61965048
841.5098787,81.46069865,121.4043268,44.97274622
842.5546433,79.47100736,129.5422766,39.76255101
843.5992218,79.92731527,135.5830094,36.63913059
844.6436141,78.87417602,135.6280145,34.9588644
845.6878203,70.39431501,129.1321578,34.06408004
846.7318404,54.63925858,118.4097681,33.50044961
847.7756744,39.20714072,107.1442332,33.09633594
848.8193225,29.27620792,97.08040072,32.92231378
849.8627846,22.97632372,86.90851674,33.20299672
850.9060608,16.56291847,75.5679132,34.22621828
851.9491512,10.01510873,64.71755146,36.24700171
852.9920557,6.347099399,56.73166931,39.38326856
854.0347745,7.415667184,52.35756117,43.53230559
855.0773075,13.19733731,51.12181631,48.348197
856.1196549,23.44579304,52.16386464,53.29916912
857.1618166,35.61060599,53.89690116,57.79437526
858.2037927,43.44434382,53.90311776,61.34380459
859.2455833,43.88096696,50.50440044,63.69568928
860.2871883,41.73704894,44.5185743,64.89859884
861.3286079,41.47909918,38.32941723,65.2712383
862.3698421,41.05097908,33.76331026,65.30616362
863.4108909,38.59870229,31.74073846,65.55059339
864.4517544,36.95360358,32.44778456,66.49069255
865.4924326,38.03677147,34.37251509,68.46379608
866.5329255,39.17230977,34.26216804,71.62291134
867.5732333,37.16802793,29.86926879,75.95730272
868.6133559,32.25540966,22.83213631,81.33892943
869.6532933,27.11340345,17.51343097,87.55456115
870.6930457,24.28991892,16.44210136,94.31049118
871.7326131,23.42164069,17.79059803,101.2332433
872.7719955,19.75165468,17.99513787,107.9020329
873.811193,9.175692845,15.94147205,113.9246713
874.8502055,-4.447220367,13.52375197,119.0270518
875.8890333,-12.28294381,12.66843845,123.1068515
876.9276762,-11.13432544,13.09616361,126.2249719
877.9661343,-6.119031882,13.09029885,128.5482572
879.0044077,-3.095686654,11.49037366,130.2763122
880.0424965,-1.888916111,8.843074598,131.5802067
881.0804006,2.363313088,7.03276996,132.5689161
882.1181201,10.70568246,7.096043306,133.2892392
883.1556551,16.36492239,7.858494778,133.7558855
884.1930056,14.71185115,8.584826658,133.9935234
885.2301717,12.00316038,11.38345761,134.0576795
886.2671533,15.87813136,17.75589662,134.0147241
887.3039505,23.79501435,24.81288003,133.8986851
888.3405634,28.86326705,28.43865258,133.673746
889.3769921,31.0719971,28.45786175,133.2101938
890.4132365,35.61066895,27.69540448,132.277794
891.4492967,43.17248826,27.63178912,130.5747084
892.4851727,49.59374103,28.10496717,127.7948335
893.5208646,54.55708923,29.89182259,123.6972651
894.5563725,61.6206281,33.70762714,118.1373464
895.5916964,69.44305205,37.33925623,111.0632557
896.6268362,72.28650803,37.90482727,102.514122
897.6617922,69.12108108,36.53968175,92.63457281
898.6965642,64.24355563,36.52155387,81.68072484
899.7311524,59.50602305,37.51139337,70.00521685
900.7655568,52.7334911,36.38461763,58.03833503
901.7997774,43.73826565,32.46181054,46.28029872
902.8338143,35.4463869,27.13278531,35.29489685
903.8676675,28.59760779,20.31830956,25.68408857
904.9013371,21.99211417,12.19829209,18.03080993
905.9348231,16.7960455,5.640818457,12.81395356
906.9681256,13.71342897,2.80443107,10.32419905
908.0012446,10.60874591,3.249884656,10.61829881
909.0341801,8.282501778,7.583526555,13.51834052
910.0669322,11.13825192,17.17814633,18.63255459
911.0995009,19.39824842,29.14364215,25.39214527
912.1318863,27.80809706,37.72979944,33.11945739
913.1640883,32.11656635,41.33831018,41.11500613
914.1961072,32.65678736,43.20023132,48.72415658
915.2279429,33.08055392,45.65324195,55.37354827
916.2595954,36.73027417,47.964132,60.60445467
917.2910647,43.23101175,48.98691042,64.11558592
918.3223511,49.78074327,48.63989602,65.7933223
919.3534543,53.94601245,46.83450707,65.70480461
920.3843747,53.10818213,43.07920251,64.051498
921.415112,46.97415152,37.99779785,61.09771719
922.4456665,41.46935331,33.60306173,57.09545923
923.4760381,41.63808432,30.4046716,52.23375989
924.5062269,43.61766699,26.50130764,46.64762848
925.5362329,42.00720195,21.03441716,40.48211392
926.5660562,37.29315573,14.64065136,33.95808327
927.5956968,30.13810426,6.120656248,27.38768992
928.6251548,20.21172615,-5.496963089,21.12729486
929.6544302,13.34630858,-15.83289205,15.4968427
930.683523,16.17624407,-18.83938708,10.71628218
931.7124333,24.37618401,-15.01996535,6.910789215
932.7411612,28.36922999,-9.933263929,4.177735896
933.7697066,26.04940157,-6.360423622,2.647956014
934.7980697,22.27315827,-2.882422251,2.489190253
935.8262504,22.43665356,2.784963331,3.861122976
936.8542488,28.24745584,12.34347812,6.853431693
937.8820649,35.83053368,25.65995595,11.42510487
938.9096989,40.38167981,39.35301526,17.36637325
939.9371506,41.74021414,49.54611804,24.31055836
940.9644203,42.90928571,57.18659657,31.79370509
941.9915079,46.83569719,67.89335588,39.31803492
943.0184134,54.97492937,84.87769893,46.38297915
944.0451369,64.6229429,104.2318806,52.50129004
945.0716785,69.09470144,118.875985,57.24110545
946.0980382,66.26609234,125.6665407,60.29824669
947.124216,63.74156237,127.0722946,61.56366638
948.1502119,67.64617376,126.6022117,61.14217021
949.1760261,72.80264784,125.3665675,59.31262705
950.2016586,73.64938301,124.0737486,56.44693922
951.2271093,75.33804507,124.7623239,52.92023971
952.2523784,84.36327216,127.8883647,49.05305573
953.2774659,97.28793346,129.8803066,45.11624609
954.3023718,104.7550219,125.8989081,41.3934261
955.3270962,101.0895641,115.3652778,38.24484829
956.3516391,90.77171988,104.5855184,36.10609089
957.3760006,86.66194052,101.8545011,35.39026744
958.4001806,95.83666754,108.2067532,36.33817902
959.4241793,111.1149755,116.5679053,38.9100937
960.4479967,123.8985141,122.6168023,42.78147339
961.4716329,135.1686527,130.1286771,47.42682565
962.4950878,146.0760931,141.2817963,52.24077319
963.5183615,150.2530818,149.4947865,56.66132257
964.541454,144.0405575,148.2510162,60.26197646
965.5643655,135.3116819,141.278061,62.7704512
966.5870959,134.0221571,137.8695808,64.01160833
967.6096453,138.4864273,140.9204265,63.84134359
968.6320137,137.7348793,144.3310756,62.14610581
969.6542011,125.8259717,141.4220236,58.90986592
970.6762077,109.3147503,132.1418619,54.28344974
971.6980335,98.7712587,120.9862262,48.59731194
972.7196784,94.44466686,110.9541678,42.30382972
973.7411426,87.5462265,102.9110457,35.87775614
974.762426,76.96187703,98.85902981,29.71857898
975.7835288,71.41910896,100.2710143,24.09334285
976.804451,71.37267249,103.0193465,19.14598559
977.8251925,64.71751652,99.17680412,14.96746377
978.8457535,45.70497092,86.01721071,11.67593821
979.866134,25.11349513,70.64938714,9.437841705
980.886334,16.57424036,63.44384987,8.40505744
981.9063536,20.35204152,67.34400761,8.619772777
982.9261929,24.72156456,75.32287629,9.970693928
983.9458517,20.90213745,79.09355332,12.24013843
984.9653303,13.46190613,78.32520989,15.20253797
985.9846287,11.58208255,77.4002115,18.69611465
987.0037468,12.53467374,75.27874191,22.6271763
988.0226847,6.70612123,67.12395617,26.92254099
989.0414426,-3.104056379,55.51669782,31.45397472
990.0600203,-4.731727131,50.38994511,35.95740728
991.078418,4.140260992,56.9179811,39.99923836
992.0966357,14.31065904,69.54027934,43.04217119
993.1146734,18.26748078,78.19862952,44.59733454
994.1325312,16.63773207,77.90740965,44.391461
995.1502092,13.89387779,71.61359435,42.47193389
996.1677073,11.47975676,64.16318896,39.21134653
997.1850256,7.399243069,57.14797286,35.22329195
998.2021641,2.534751706,51.7175279,31.23234648
999.219123,2.490782983,50.62681288,27.94653651
1000.235902,9.828405123,53.31337821,25.96056865
1001.252502,19.02697075,54.32505305,25.70362237
1002.268922,24.28797296,50.44034025,27.42759364
1003.285162,27.65444035,44.85142138,31.22259858
1004.301223,34.05831086,42.53385368,37.0543178
1005.317105,42.96989196,45.63601624,44.82502155
1006.332807,49.52507398,52.91040928,54.44614294
1007.348329,50.97009387,59.81362833,65.88755246
1008.363673,50.00019812,61.27865471,79.16102943
1009.378837,51.90920719,57.3257194,94.21535014
1010.393822,56.76293283,53.01887378,110.7734879
1011.408627,59.63809647,52.90656936,128.1979508
1012.423254,63.12237868,58.99847291,145.4675169
1013.437701,75.44877296,70.40731572,161.2935464
1014.45197,91.944858,81.39125453,174.3586115
1015.466059,98.54418795,85.20357219,183.6186296
1016.479969,93.58873508,81.53260851,188.5539329
1017.4937,87.0927996,75.23977208,189.2552505
1018.507253,84.33072431,69.44478876,186.3227726
1019.520626,84.30623495,64.37816232,180.6441375
1020.533821,86.23668842,60.42176775,173.1431193
1021.546837,89.26630111,59.47318631,164.5752087
1022.559674,93.20548696,64.30512384,155.4164654
1023.572333,100.6199432,75.00888628,145.85246
1024.584812,110.7568774,85.64812747,135.8463904
1025.597114,117.4300662,89.80372722,125.2576951
1026.609236,119.9606239,89.85094142,113.9727183
1027.62118,124.6129479,93.55513232,102.0054436
1028.632946,130.5067663,101.8793366,89.54963169
1029.644533,128.2669599,107.8335938,76.98324477
1030.655942,115.0877134,106.3929574,64.81720194
1031.667172,99.73469518,99.56510983,53.58975222
1032.678224,92.01716167,92.82321172,43.73335548
1033.689098,92.19175842,89.49217272,35.467596
1034.699793,91.53749566,88.34921035,28.77328629
1035.710311,85.5787206,86.62806093,23.46489982
1036.72065,79.88350799,83.21823932,19.31613514
1037.730811,74.83400682,76.50994829,16.17273252
1038.740794,61.04785482,63.88300474,14.02008391
1039.750599,40.02817495,47.26276619,12.99231589
1040.760225,27.74185881,33.51635174,13.31006565
1041.769674,30.24979563,26.06048793,15.17157241
1042.778945,36.15489989,21.81973463,18.66424914
1043.788039,35.88326775,17.75641558,23.74417686
1044.796954,31.03195843,13.9647343,30.28112169
1045.805692,25.56944384,10.1385505,38.15071851
1046.814251,21.84264018,4.681618235,47.35449538
1047.822633,22.4625112,-3.24601562,58.12622758
1048.830838,27.48513313,-13.34520635,70.97297412
1049.838865,34.71239552,-23.18786348,86.63079308
1050.846714,45.0141619,-27.68251818,105.9547619
1051.854386,60.2629651,-23.5899566,129.7826583
1052.86188,78.72973,-12.59476682,158.816228
1053.869197,100.6512842,4.242921082,193.5521691
1054.876336,133.7331428,31.36923223,234.2694764
1055.883298,184.5513638,73.84790438,281.0588259
1056.890082,247.2693314,131.0265545,333.8533211
1057.89669,309.100762,199.0698016,392.4117416
1058.90312,367.0790664,277.8084451,456.2212195
1059.909373,431.2095137,370.1263407,524.3326528
1060.915448,508.1937859,474.1468402,595.2033673
1061.921347,591.6081992,581.3215233,666.652763
1062.927068,673.8285841,684.0196416,735.9893554
1063.932613,757.2092916,780.262792,800.268233
1064.93798,845.0814991,869.0338587,856.5821575
1065.943171,930.1430681,945.2184293,902.3212575
1066.948184,999.8752469,1002.095683,935.3886352
1067.953021,1048.63899,1036.535478,954.3655425
1068.957681,1080.888532,1049.540016,958.6101674
1069.962164,1104.348849,1042.482284,948.2871784
1070.96647,1119.097007,1014.027118,924.336673
1071.9706,1115.755942,961.6126167,888.3853511
1072.974553,1086.447673,886.0969386,842.5997952
1073.978329,1032.587637,794.0856064,789.4933341
1074.981929,963.3992228,695.4222346,731.7143337
1075.985352,890.1468095,598.247722,671.8513579
1076.988598,815.9695795,505.0596429,612.2918108
1077.991668,732.783619,413.4099787,555.1618585
1078.994562,635.6374464,322.4236429,502.3306977
1079.99728,533.3372844,238.3130481,455.4018498
1080.99982,438.4394478,171.0565268,415.6196451
1082.002185,356.1911501,126.1174662,383.7058076
1083.004374,285.8996722,100.2153945,359.7198777
1084.006386,225.4043467,84.29203066,343.0410949
1085.008222,174.0522173,71.77737431,332.5046224
1086.009882,132.5280362,63.74484627,326.6350102
1087.011365,100.7535434,63.81283795,323.8748927
1088.012673,80.1487376,70.94779493,322.7414084
1089.013805,73.45211808,80.27410017,321.9099199
1090.01476,78.05195978,87.64136166,320.2640918
1091.01554,86.54845818,91.56990949,316.936986
1092.016144,95.70086254,93.33916129,311.3240648
1093.016572,109.1623127,95.62632286,303.0427598
1094.016824,129.2207691,99.1380119,291.8573919
1095.016901,149.5205611,101.669277,277.6232211
1096.016801,162.97873,102.428472,260.2923448
1097.016526,172.8320588,104.1020914,239.9814184
1098.016076,185.1088218,107.6561906,217.0637222
1099.015449,196.3557256,108.831917,192.2394658
1100.014648,198.1518552,103.1211328,166.5389559
1101.01367,186.8881637,91.12316537,141.2311805
1102.012517,166.0567029,77.77227575,117.6447522
1103.011189,146.0379337,69.71608539,96.94205393
1104.009685,138.5853468,72.21577732,79.90451185
1105.008006,144.6374356,84.2355323,66.79536193
1106.006152,152.2399773,97.8661082,57.35299819
1107.004122,150.0666534,105.1796417,50.91487083
1108.001917,138.5301185,104.8730802,46.61046753
1108.999537,124.8461567,101.8236038,43.53991003
1109.996982,111.752113,101.1111011,40.88276744
1110.994251,97.46880792,103.1167363,37.93888874
1111.991346,82.23969677,103.6295388,34.15537457
1112.988265,66.86952229,97.17983347,29.19453676
1113.98501,50.02897644,81.71065239,23.05119477
1114.981579,31.62222052,61.93575365,16.17032049
1115.977974,13.13638539,45.77400995,9.507582858
1116.974193,-4.263903825,36.0224253,4.522844703
1117.970238,-17.12942561,28.09959957,3.133768512
1118.966108,-19.47033736,17.01064252,7.639707143
1119.961804,-7.056063329,4.770536895,20.5899921
1120.957324,21.01440026,-0.041547151,44.56057899
1121.95267,63.1406763,11.64061628,81.8313465
1122.947841,118.0480988,46.88073258,134.0076712
1123.942838,189.25018,112.5424164,201.6664006
1124.93766,281.5564454,212.7462394,284.1217489
1125.932308,392.5321599,343.3201739,379.3885292
1126.926781,514.9567622,493.1860118,484.3604632
1127.921079,645.7616797,651.3537005,595.1382301
1128.915204,786.4152208,810.5598553,707.3990096
1129.909154,936.6243173,965.3274448,816.7204657
1130.902929,1089.726315,1108.217264,918.8234776
1131.896531,1234.470615,1230.170465,1009.740596
1132.889958,1362.65671,1326.503269,1085.933491
1133.883211,1472.05697,1399.31537,1144.383434
1134.876289,1559.004284,1449.499063,1182.68994
1135.869194,1613.79577,1469.550785,1199.221504
1136.861924,1629.063188,1450.432914,1193.31793
1137.854481,1608.193342,1393.604089,1165.471437
1138.846864,1559.576204,1309.431247,1117.38995
1139.839072,1485.819788,1203.874112,1051.903889
1140.831107,1384.363989,1073.483202,972.7441232
1141.822968,1257.781207,916.5370846,884.2267332
1142.814655,1118.847008,745.7350552,790.8555317
1143.806168,983.3872769,585.2730147,696.8635783
1144.797507,857.7084175,453.0926356,605.7740944
1145.788673,734.8142939,348.4255249,520.1093474
1146.779665,607.2628501,260.9934135,441.3389205
1147.770483,480.9474274,188.5105513,370.0475041
1148.761128,368.4933765,136.6534936,306.2250787
1149.751599,273.0782626,104.9715793,249.5925884
1150.741897,189.1588436,83.91774199,199.8998329
1151.732021,116.5790399,66.32449874,157.1167772
1152.721972,63.64677423,53.54456607,121.4456978
1153.71175,35.1448356,48.75550574,93.16131586
1154.701354,25.15837764,50.6652518,72.37517262
1155.690785,24.91990462,56.53113591,58.83199202
1156.680042,32.27406797,66.75108452,51.79899538
1157.669126,49.22030323,82.47855468,50.07201636
1158.658037,73.52338893,100.6513747,52.10221864
1159.646775,98.90908966,115.7962655,56.2186297
1160.63534,121.9345618,126.2542923,60.88475273
1161.623732,142.0379673,133.909478,64.91151241
1162.611951,157.1446327,138.4620573,67.5736157
1163.599996,164.0614096,136.5372029,68.61704048
1164.587869,162.1685368,126.4805212,68.16366797
1165.575569,157.2590331,112.5459333,66.5422814
1166.563096,159.4970946,103.777942,64.09252522
1167.55045,172.5800556,105.8948322,61.00930259
1168.537632,187.5249456,113.2162955,57.29933499
1169.52464,191.4297856,112.8382467,52.87464323
1170.511476,182.5900095,99.81258381,47.71977523
1171.498139,174.2003092,84.13417119,42.02255421
1172.48463,177.4741876,78.1894916,36.20994727
1173.470948,185.5066562,82.40932473,30.91943526
1174.457093,185.6230117,89.66489544,26.94765194
1175.443066,179.4293054,97.45390987,25.15911894
1176.428867,176.7898465,108.4941686,26.33024409
1177.414495,182.3046082,125.4689734,30.97085467
1178.399951,197.9902218,150.476329,39.19888161
1179.385234,224.6977274,183.5285913,50.70924807
1180.370345,256.6618206,218.8741685,64.84269669
1181.355283,285.1629316,248.1111839,80.73260199
1182.34005,306.067707,268.4357409,97.466938
1183.324644,320.8682659,285.2755538,114.193386
1184.309066,334.6582344,305.8882211,130.1444398
1185.293316,352.349076,330.6574062,144.6179195
1186.277394,373.2492492,351.6365129,156.9643185
1187.2613,389.8843653,360.5304037,166.6038846
1188.245034,396.2576805,357.5007364,173.058014
1189.228596,396.0846579,350.0605839,175.9734126
1190.211986,395.1936688,342.9129818,175.1269674
1191.195204,389.3306996,332.5151077,170.4266017
1192.17825,370.6460796,313.3526253,161.9291928
1193.161125,342.8982457,285.6255762,149.8764161
1194.143827,318.6042751,254.3020954,134.7336075
1195.126358,300.2648569,223.1242596,117.2151007
1196.108718,275.2932815,192.4350072,98.29490137
1197.090905,235.7867366,162.3015148,79.19820309
1198.072921,192.1103359,134.1781171,61.34524639
1199.054766,156.6704243,108.6606959,46.2220009
1200.036439,128.6408506,85.95655836,35.203333
1201.01794,106.1549011,69.84620521,29.39069828
1201.99927,94.99480165,65.66295488,29.50402743
1202.980429,94.90341342,72.06786203,35.83131765
1203.961416,95.54530554,80.21771473,48.22315472
1204.942232,93.11483782,84.9385161,66.10725435
1205.922877,98.68397177,93.56293976,88.50110669
1206.90335,125.3254246,118.4101645,114.0402368
1207.883652,171.0563275,159.5855638,141.0821391
1208.863783,217.3232378,199.8438063,167.9303194
1209.843743,244.9352535,220.7786667,193.1353651
1210.823532,251.5103929,222.1248662,215.7398397
1211.80315,252.0076016,219.8250042,235.3395538
1212.782596,259.8885001,225.2768622,251.9522144
1213.761872,271.2795685,233.4615296,265.8086302
1214.740977,273.5490206,233.4867705,277.1953681
1215.719911,265.1651767,223.401501,286.3969327
1216.698674,257.1982036,210.4535088,293.7136087
1217.677266,254.3022788,200.5242753,299.5165952
1218.655688,244.8730471,191.252533,304.3102312
1219.633938,218.6885093,176.7704974,308.7694486
1220.612018,184.6954869,156.8528201,313.7007817
1221.589928,158.6589506,137.5676942,319.8983029
1222.567667,143.5859184,124.7680002,327.9425044
1223.545235,135.0773497,120.4390225,338.0411629
1224.522632,132.3056616,122.5602728,349.9809137
1225.499859,132.8495766,126.1632922,363.1901852
1226.476916,131.6504653,127.7656252,376.8649131
1227.453802,131.1907539,129.2908823,390.0926227
1228.430518,139.2124975,134.9536507,401.9394574
1229.407064,155.7312204,145.6702642,411.5219116
1230.383439,172.0284934,157.7965964,418.1061454
1231.359644,179.7078906,164.751228,421.2435887
1232.335678,175.3659933,160.5305764,420.9051707
1233.311543,161.0004128,145.234542,417.5445147
1234.287237,143.9205928,126.1251112,412.0230899
1235.262761,132.3696423,110.5929433,405.3937326
1236.238115,128.226783,99.60579068,398.624834
1237.2133,126.4853937,90.10656072,392.3740379
1238.188314,122.1156724,81.37585165,386.8772082
1239.163158,115.4338623,76.17149208,381.9661981
1240.137832,110.6723904,76.62099196,377.1983916
1241.112336,108.3303897,80.09426087,372.0552317
1242.086671,100.8860814,79.07500595,366.1385645
1243.060836,82.29378356,67.73057262,359.2838293
1244.034831,58.72020198,49.62083297,351.544255
1245.008656,41.18556548,35.17902677,343.0779038
1245.982311,33.27789507,31.12156656,334.0325318
1246.955797,32.97448175,35.17877959,324.5079739
1247.929113,36.14443557,39.75078726,314.6028517
1248.90226,36.28170616,39.4214581,304.4935239
1249.875237,32.8641718,36.66119798,294.4735817
1250.848045,33.97012666,38.20607114,284.9076317
1251.820683,41.18585001,45.06671469,276.1250893
1252.793152,45.36949588,51.43675995,268.3304088
1253.765451,43.07205507,53.35976958,261.5743362
1254.737582,40.65897276,52.45628993,255.7700803
1255.709542,41.29147157,52.18430729,250.7207612
1256.681334,43.9704671,55.20728045,246.1396545
1257.652956,50.70604422,62.17670939,241.6624412
1258.624409,60.772509,69.88721911,236.8669532
1259.595693,67.96256512,74.44204757,231.3145868
1260.566808,71.85939156,78.10575917,224.6000877
1261.537754,77.95454426,87.07519109,216.3893849
1262.508531,86.33768762,101.4208666,206.4607653
1263.479139,92.62884003,113.676496,194.7727511
1264.449577,93.74135566,117.2268039,181.52799
1265.419847,87.3000505,111.3158493,167.1675927
1266.389948,75.10623721,100.1350078,152.2699275
1267.359881,66.37351595,90.59737749,137.3930171
1268.329644,69.30256943,88.63380737,122.9345338
1269.299239,82.77474793,94.49663795,109.0752886
1270.268665,98.62430536,101.8426054,95.82913213
1271.237922,107.943831,102.8946461,83.16944666
1272.207011,107.9821732,95.62285657,71.1654912
1273.175931,104.6077923,85.44825818,60.05701659
1274.144682,102.8080785,78.45848976,50.23127572
1275.113265,98.70348467,74.16430486,42.12041908
1276.08168,88.77348828,68.1428115,36.05801022
1277.049926,80.90229215,60.98785583,32.13082825
1278.018003,86.25338934,59.99180719,30.07113874
1278.985912,104.1952394,70.50718895,29.24906975
1279.953653,123.1300957,88.36843304,28.80776565
1280.921226,131.8806081,102.4359944,27.92035242
1281.88863,126.4858362,104.9350171,26.07356341
1282.855866,113.4780355,99.62134808,23.25840128
1283.822934,104.7300549,96.87371354,20.00057581
1284.789834,101.0554244,99.6172481,17.2581028
1285.756566,92.45214654,100.9503862,16.26182983
1286.723129,78.89155909,96.86051165,18.32829577
1287.689525,70.93843223,91.88794547,24.62400814
1288.655752,71.19024372,91.4278668,35.90458368
1289.621812,76.37219763,97.11680095,52.32198159
1290.587704,90.23278633,109.1065414,73.38131394
1291.553428,115.220781,125.9883265,98.06490168
1292.518984,141.4093539,143.7000868,125.0894368
1293.484372,159.1019258,158.9425071,153.2177423
1294.449592,171.3315166,171.4072319,181.5196689
1295.414645,181.9118951,180.5383634,209.5054561
1296.37953,184.711236,184.9058546,237.1121029
1297.344247,176.4471616,186.8850613,264.5528202
1298.308797,167.6656156,193.146979,292.06278
1299.27318,170.9646294,208.4208989,319.6236047
1300.237394,185.6717147,230.7614023,346.7874558
1301.201441,200.6046961,253.6872914,372.6847895
1302.165321,208.2523236,272.0084791,396.2029722
1303.129034,209.0097884,283.3321548,416.2408738
1304.092578,202.2601229,284.7325398,431.9315706
1305.055956,184.5285941,274.2939487,442.7690397
1306.019166,158.9309764,256.4825885,448.6274517
1306.982209,133.6704802,238.1236033,449.6987664
1307.945085,111.1070209,219.5575506,446.3927397
1308.907794,92.312613,197.8877999,439.2343948
1309.870335,84.26317788,175.1287718,428.7701963
1310.83271,86.53721096,154.5413333,415.4971229
1311.794917,85.40606981,134.3897904,399.8495579
1312.756957,74.74837544,112.6913631,382.2546687
1313.718831,64.85974146,92.23218466,363.2091718
1314.680537,62.60881959,76.02222179,343.3209153
1315.642076,62.84829063,63.32114425,323.2968132
1316.603449,61.59546147,51.94553964,303.8821949
1317.564654,58.58579064,40.05271209,285.769626
1318.525693,51.60610468,27.68039232,269.512787
1319.486565,43.82377764,19.91399623,255.4721679
1320.447271,44.82133923,22.87611762,243.7963426
1321.407809,53.82676475,33.71958239,234.4429659
1322.368181,57.7725944,41.80341833,227.2373295
1323.328387,51.46607308,42.22538344,221.928938
1324.288426,44.54822739,41.67022936,218.1952677
1325.248298,45.95932798,48.42888631,215.5931309
1326.208004,52.42485682,61.49035379,213.5178172
1327.167543,54.65208069,73.30531163,211.2364316
1328.126916,48.86059214,80.44585063,208.0122235
1329.086122,38.15713311,85.39881274,203.273546
1330.045162,27.42895195,89.27830158,196.7511155
1331.004036,23.41825681,90.94471151,188.5232254
1331.962744,32.72250015,92.68125997,178.9579542
1332.921285,51.58595918,99.01805718,168.6037381
1333.87966,66.61483526,110.6084574,158.1053227
1334.837869,71.0401218,123.778715,148.1745177
1335.795912,70.76157104,134.3473651,139.5703779
1336.753788,73.1383825,140.4175084,133.0183776
1337.711499,80.09514708,144.1864589,129.0430398
1338.669043,93.57508106,151.3002862,127.7621193
1339.626422,117.9120784,165.8843993,128.7392566
1340.583635,152.372339,186.2256764,130.990399
1341.540682,187.7501863,206.4734547,133.1831183
1342.497562,213.1503269,220.6047156,133.9746024
1343.454278,222.6459181,224.0069339,132.3591191
1344.410827,218.7384159,216.0569915,127.8874226
1345.36721,212.7435965,203.4997501,120.6830237
1346.323428,215.0131545,195.731959,111.2821948
1347.279481,223.4547415,193.8899552,100.4182537
1348.235367,229.1334843,190.2840158,88.87400586
1349.191088,229.0749926,180.5347457,77.4351398
1350.146643,224.2931157,169.0256631,66.88830047
1351.102033,212.4538672,159.6950487,57.9948595
1352.057258,193.9188501,149.2393493,51.40866901
1353.012316,179.9097192,134.1336438,47.54545313
1353.96721,182.0537723,118.047684,46.45249299
1354.921938,194.9664048,107.1298194,47.76881878
1355.876501,201.2839542,102.4872572,50.85341149
1356.830898,193.406879,100.1983617,55.05627748
1357.785131,178.0577488,94.39187609,59.99664071
1358.739198,162.070345,80.66511942,65.70633313
1359.693099,146.927862,61.69027932,72.58693618
1360.646836,134.7898041,47.4388344,81.22903623
1361.600408,129.094132,45.38493892,92.19750601
1362.553814,130.039386,53.35789948,105.8825106
1363.507055,132.8190435,64.08892962,122.4609381
1364.460132,129.5388364,72.10787711,141.9505167
1365.413043,116.6871338,75.31279696,164.3065785
1366.36579,101.9450389,75.31682383,189.5068874
1367.318371,97.82124274,77.83386634,217.5870484
1368.270788,109.2336677,89.35931007,248.6310225
1369.22304,131.5055115,112.1064785,282.7558079
1370.175127,157.484159,143.645081,320.1229733
1371.12705,185.0792273,182.8993994,360.9600606
1372.078808,220.452543,234.5255551,405.5335728
1373.030401,271.5491607,302.8860583,454.030979
1373.981829,338.1209087,383.325259,506.3784101
1374.933093,415.6050295,466.8221236,562.0699454
1375.884192,506.0494196,552.318582,620.0652517
1376.835127,612.0770732,645.900264,678.7750709
1377.785897,725.081726,748.091464,736.1473621
1378.736503,833.4460993,849.2121483,789.851274
1379.686945,935.2518942,937.554455,837.5065992
1380.637222,1032.416811,1007.849134,876.8857527
1381.587335,1120.584813,1061.637469,906.0615203
1382.537283,1191.763096,1101.79168,923.525078
1383.487067,1241.958633,1127.794842,928.2937879
1384.436687,1272.97841,1136.227731,919.9918083
1385.386143,1287.046842,1123.881472,898.8746332
1386.335435,1279.223623,1088.308238,865.7922124
1387.284562,1239.908094,1027.981357,822.1063128
1388.233526,1169.10609,946.4074091,769.5646485
1389.182325,1080.055579,854.4260653,710.123103
1390.130961,983.2642968,763.7262683,645.7492632
1391.079432,877.1294801,678.1381004,578.2889832
1392.02774,758.6656386,593.7087415,509.4499023
1392.975883,633.639718,506.9067527,440.8722228
1393.923863,512.2384916,420.9677794,374.2010297
1394.871679,400.4033714,343.4766439,311.0818463
1395.819332,297.2773383,278.2351815,253.0564657
1396.76682,200.6602887,222.1525751,201.3997175
1397.714145,115.7624986,171.8950821,156.9619065
1398.661306,52.87565913,129.6597138,120.0572382
1399.608304,13.12465912,98.64621938,90.42871653
1400.555137,-12.53266556,76.83229821,67.3278392
1401.501808,-27.40020925,59.37115198,49.7243559
1402.448315,-26.55155846,44.08735464,36.6061779
1403.394658,-10.60672549,31.34238303,27.30090679
1404.340838,13.50378351,20.57747666,21.75292105
1405.286855,45.47957822,10.19368138,20.6870379
1406.232708,92.75140523,1.196841969,25.59100285
1407.178397,158.7756303,-0.901336282,38.48832677
1408.123924,238.4707161,10.6880226,61.54159351
1409.069287,325.7906044,40.06491941,96.58222108
1410.014487,422.3600801,89.35614414,144.6774827
1410.959524,535.7735848,160.5633896,205.8269138
1411.904398,668.2244585,253.4557604,278.853827
1412.849108,812.3201645,363.5998388,361.5202363
1413.793656,961.7453904,484.5740655,450.8273434
1414.73804,1118.116303,610.5091482,543.4032016
1415.682262,1281.162472,735.8847904,635.8722137
1416.62632,1438.616281,854.8305089,725.130501
1417.570216,1576.131346,962.9294885,808.4779362
1418.513949,1696.140427,1060.216465,883.5914085
1419.457519,1813.223655,1149.238642,948.3920788
1420.400926,1927.749579,1227.625144,1000.931567
1421.34417,2019.655646,1285.70212,1039.414519
1422.287251,2072.840603,1314.283612,1062.375217
1423.23017,2090.819449,1312.054121,1068.915562
1424.172926,2084.532486,1283.268301,1058.890598
1425.11552,2057.429816,1231.508689,1032.983414
1426.057951,2006.47887,1158.291093,992.6701812
1427.000219,1930.150236,1065.516547,940.0979224
1427.942325,1831.270852,957.0755912,877.898401
1428.884268,1715.28841,839.2150031,808.9614043
1429.826049,1589.968525,720.0688051,736.1945235
1430.767667,1463.391261,606.8818739,662.3027946
1431.709123,1337.174366,502.6424208,589.6229758
1432.650417,1206.381401,407.0525045,520.0321246
1433.591549,1070.676104,321.4836217,454.9187759
1434.532518,941.2397473,250.8925901,395.1886079
1435.473325,831.5873315,198.600772,341.2987154
1436.413969,742.1169696,160.0379692,293.340855
1437.354452,660.1617088,125.7324247,251.1740049
1438.294772,577.3273432,91.73401382,214.5527449
1439.234931,498.3649344,63.39770147,183.1804999
1440.174927,432.0251989,48.23764472,156.6734446
1441.114761,382.1985187,48.00601733,134.4999492
1442.054434,344.9450738,56.05275467,115.9869126
1442.993944,308.2654582,60.56058117,100.4279509
1443.933292,263.6758691,54.38546241,87.23792787
1444.872479,217.7870341,42.18348641,76.04368389
1445.811504,181.1107775,33.88334643,66.649909
1446.750367,154.3875369,33.74359255,58.926775
1447.689068,135.2298134,39.23535257,52.71486418
1448.627607,121.8478615,45.63721533,47.80765792
1449.565985,106.4775095,48.63262582,44.01737688
1450.504201,84.26303821,47.4895575,41.28077583
1451.442256,65.41827877,47.14265945,39.72519197
1452.380149,60.5861588,52.48947777,39.63930328
1453.31788,62.51694975,61.44840906,41.36842593
1454.25545,57.64907012,68.42499752,45.19363273
1455.192859,45.85248606,72.4674058,51.2309287
1456.130106,37.47067348,77.34098864,59.36498241
1457.067191,39.42767634,85.13009019,69.24387884
1458.004115,49.52927482,92.90106511,80.35957694
1458.940878,57.70589645,95.80665045,92.18913735
1459.87748,53.88553737,93.38532713,104.3193023
1460.81392,40.709995,91.86911063,116.4864852
1461.7502,32.29016998,97.84457261,128.5376206
1462.686317,33.81370636,109.758445,140.3840854
1463.622274,33.104357,118.7110573,152.0074153
1464.55807,20.65958197,118.5099748,163.492187
1465.493705,5.827752777,112.7998654,175.0003904
1466.429178,3.603161195,110.4606171,186.6481858
1467.364491,14.13885002,114.8348206,198.3474229
1468.299643,25.5782114,120.8230915,209.7228134
1469.234633,33.0109531,123.0028159,220.1605213
1470.169463,42.10653721,121.8045153,228.9577744
1471.104132,53.50362635,120.0222868,235.5116559
1472.03864,58.36295518,118.2140022,239.4918069
1472.972988,54.92461386,116.3180832,240.9351546
1473.907174,54.70287687,115.1520001,240.2108246
1474.8412,63.91084449,113.3214436,237.871527
1475.775066,74.33379797,108.4222453,234.4754043
1476.70877,81.87560309,104.1703353,230.4552504
1477.642314,96.13159587,108.4948522,226.063686
1478.575698,121.1371221,120.9843185,221.4005401
1479.508921,144.6069476,130.4203095,216.5168135
1480.441983,156.0823312,129.1608607,211.5461801
1481.374885,159.1237652,122.954556,206.7771505
1482.307627,160.6195022,122.1245151,202.6163593
1483.240208,163.5309369,128.7109753,199.4813873
1484.172629,168.7614323,136.5902857,197.7014746
1485.104889,172.5440458,140.9398511,197.4633859
1486.036989,170.1837168,143.8959194,198.7807841
1486.968929,167.6646585,150.663007,201.4566932
1487.900709,175.2650481,161.3716995,205.0534031
1488.832329,188.5078378,169.3329076,208.9234954
1489.763788,192.1355838,169.0454797,212.3309587
1490.695087,182.3415094,162.9885507,214.6208702
1491.626227,168.7651974,156.8578431,215.360169
1492.557206,155.6053973,150.8025459,214.4051106
1493.488025,137.0155917,140.5940144,211.8985664
1494.418685,112.945855,126.2444067,208.2075327
1495.349184,94.27829635,113.7831735,203.8042608
1496.279523,86.65565951,107.4096774,199.1228232
1497.209703,82.66478519,104.9552396,194.4567025
1498.139723,76.45823965,103.2024456,189.9393626
1499.069583,73.29977542,102.7741902,185.5938855
1499.999283,77.56007369,104.6523206,181.4147447
1500.928824,81.55356547,105.8439101,177.447818
1501.858205,76.10424139,103.3653151,173.8324725
1502.787426,66.08551203,100.9059033,170.7738259
1503.716488,64.11473851,105.6940698,168.4444852
1504.64539,74.1500435,118.8892041,166.8618941
1505.574133,90.31386937,134.576904,165.808081
1506.502716,105.4257722,147.8730076,164.8304453
1507.43114,115.5978487,158.772603,163.3161299
1508.359404,121.3870975,167.9453786,160.609175
1509.287509,126.4570696,173.3615036,156.142076
1510.215454,132.5434215,172.8441058,149.5556309
1511.14324,136.8580304,168.3247336,140.7754321
1512.070867,137.8485892,165.3764762,130.0176125
1512.998335,139.312511,166.6950741,117.7234227
1513.925643,143.2215769,167.7129182,104.4553787
1514.852793,145.4457922,162.5352587,90.80196188
1515.779783,145.0949195,152.8887949,77.32141276
1516.706614,147.8416044,145.6418387,64.5262727
1517.633286,152.4862537,141.4559017,52.8970246
1518.559799,148.1890679,132.7421977,42.9096991
1519.486153,132.8740451,115.1027507,35.04187047
1520.412348,117.5951856,94.44629036,29.71090614
1521.338384,108.7010856,80.31700673,27.14692201
1522.264261,103.4357074,76.86103228,27.26793848
1523.18998,101.0531339,81.25268747,29.62847127
1524.115539,102.5379567,87.94714095,33.46795003
1525.04094,104.2451104,93.82536452,37.84329266
1525.966182,102.935568,99.20942854,41.80332644
1526.891265,100.9750124,103.7440995,44.55386977
1527.81619,98.01633352,103.5050202,45.57713375
1528.740956,86.77794815,94.59294485,44.697063
1529.665563,66.31034781,78.67315959,42.09613224
1530.590012,48.36123912,62.13572659,38.28205284
1531.514302,41.96343851,49.67855054,34.00525047
1532.438434,41.79260225,41.27962242,30.13895089
1533.362407,39.8281956,36.20857396,27.52769364
1534.286222,40.10893268,36.91744359,26.80664282
1535.209879,51.63300445,46.09151057,28.23105725
1536.133377,73.6427485,61.68928627,31.59816106
1537.056717,98.20618692,77.81283778,36.32214561
1537.979898,119.0267946,89.21570843,41.63485913
1538.902921,131.0982508,93.53830254,46.81070384
1539.825786,132.2721667,91.62378787,51.31511613
1540.748493,128.9640247,87.76639571,54.83586803
1541.671042,131.0194628,87.70045421,57.22222389
1542.593432,139.9291174,93.55651333,58.39226167
1543.515665,148.5160547,101.3280595,58.27058455
1544.43774,150.6808196,105.3040139,56.78582604
1545.359656,146.7722378,104.5458571,53.91962668
1546.281415,140.4330631,102.8402512,49.78387922
1547.203015,132.3818657,101.8513894,44.70706185
1548.124458,119.583715,97.12307021,39.30428621
1549.045743,101.3865462,83.65346974,34.4849149
1549.96687,81.16280857,63.76330248,31.35488433
1550.887839,61.85879384,46.42773889,31.02585139
1551.80865,47.17430965,39.46388274,34.40305014
1552.729304,42.73374184,43.44177704,42.02798467
1553.6498,48.29185377,52.81488634,54.01835139
1554.570138,56.46616464,63.15991707,70.10824297
1555.490319,64.45041481,76.34895806,89.75578369
1556.410342,77.09101843,96.74776751,112.2778234
1557.330208,95.90925935,123.6218175,136.9941778
1558.249916,115.1853217,150.5029062,163.3669548
1559.169466,129.5620286,173.0146319,191.0903014
1560.08886,140.1313869,195.4851801,220.0770631
1561.008095,154.9322125,226.9814936,250.3336165
1561.927174,181.998786,270.2586489,281.7803034
1562.846095,218.6426659,317.6659768,314.1070984
1563.764859,253.1217324,359.3294246,346.7186061
1564.683465,278.4959355,392.4523081,378.75441
1565.601914,297.9842582,421.4263028,409.1489933
1566.520206,317.3479086,451.1153914,436.7244245
1567.438341,337.475529,480.2010772,460.3330497
1568.356319,352.1613772,499.768969,479.0426419
1569.27414,352.4445111,500.6448022,492.3034695
1570.191803,338.0922014,483.9045198,500.0051575
1571.10931,320.5840025,460.444677,502.3675017
1572.026659,308.6127843,438.5748893,499.7086705
1572.943852,298.9049719,417.4008867,492.2186113
1573.860888,286.6182978,393.6119355,479.8599787
1574.777766,273.0787334,367.1686689,462.4414387
1575.694488,257.6329071,337.5042037,439.8293777
1576.611053,232.9123182,301.2702974,412.2114105
1577.527462,195.3484612,257.9457768,380.2980996
1578.443713,153.4790738,213.0110002,345.3689069
1579.359808,118.1124498,172.3367568,309.1400138
1580.275747,88.92100621,137.0306039,273.5094173
1581.191528,60.09357312,106.7160529,240.265348
1582.107153,35.39094189,83.9745269,210.8275985
1583.022622,24.83943553,70.77520774,186.0684867
1583.937933,27.07220306,63.02074498,166.2470597
1584.853089,29.36484101,54.67780732,151.065931
1585.768088,26.1618613,46.19762422,139.8189925
1586.68293,23.64051976,42.72952798,131.5767456
1587.597616,27.25268977,44.99076659,125.3722309
1588.512146,35.14846995,47.47527241,120.3616615
1589.426519,41.086358,45.21811415,115.9225999
1590.340736,42.36639052,39.42499419,111.6600723
1591.254797,46.13498498,36.06866896,107.3274651
1592.168702,59.21306852,38.3889169,102.7110067
1593.08245,74.98482218,42.31718148,97.55224934
1593.996042,83.76337079,42.36917606,91.55576675
1594.909478,87.97694029,39.96745968,84.46723944
1595.822758,95.01678469,41.42770605,76.17124076
1596.735882,103.7095347,48.12185922,66.77661049
1597.64885,105.6352677,53.07324727,56.66960673
1598.561662,96.07383002,50.11131745,46.50895942
1599.474318,81.35917989,43.20874294,37.13933153
1600.386819,72.98126971,41.85286525,29.43107054
1601.299163,72.59446638,49.38771475,24.10074473
1602.211351,70.1500079,61.3905273,21.5822874
1603.123384,60.57018456,73.94135274,21.98139832
1604.035261,51.73869889,87.65165147,25.10247455
1604.946982,51.10008641,103.3607123,30.52972032
1605.858547,53.79619476,118.7245136,37.7485554
1606.769957,51.06453245,131.529574,46.28081009
1607.681211,44.48857256,143.3312247,55.78819124
1608.592309,42.37061275,156.5328751,66.09783641
1609.503252,46.60084964,170.7412342,77.1341093
1610.414039,53.1561613,185.5746215,88.78553321
1611.324671,61.26849034,203.8033926,100.7663534
1612.235147,75.28785263,227.6057334,112.539217
1613.145468,97.40140532,252.9075045,123.3490981
1614.055634,119.8305184,270.6750321,132.3800593
1614.965644,131.2662832,275.0567625,138.9877159
1615.875499,132.0697502,268.2397498,142.9014495
1616.785198,131.9347503,256.2374698,144.2931954
1617.694743,134.5328552,243.1766832,143.6854591
1618.604132,137.567838,231.0956838,141.757094
1619.513366,143.2025066,221.0816098,139.1333727
1620.422444,154.2325892,211.9147827,136.2396269
1621.331368,164.1232687,200.5527556,133.2585123
1622.240136,165.290591,187.4156454,130.1679322
1623.14875,163.4013283,178.8251881,126.8003218
1624.057208,169.6261663,179.5552273,122.8940396
1624.965512,183.6433147,184.7351451,118.1651222
1625.87366,195.0802623,183.9985533,112.4303938
1626.781654,196.3782565,172.7936283,105.7503626
1627.689492,187.9940065,156.2761813,98.51101742
1628.597176,176.8309595,143.0236118,91.38270166
1629.504705,171.6962221,137.0843132,85.15702867
1630.412079,174.4966333,135.9282615,80.52214757
1631.319299,180.1621913,136.0268163,77.86513809
1632.226364,188.2008718,138.7371999,77.17335999
1633.133274,200.751059,146.7208741,78.06205865
1634.040029,211.8326702,156.7500305,79.91778708
1634.94663,214.6416551,162.034571,82.10528078
1635.853076,210.2354983,159.9929362,84.14192898
1636.759368,201.6616286,153.8432832,85.75961921
1637.665505,192.1383576,148.0474627,86.84723708
1638.571488,185.8732859,143.8274134,87.32868899
1639.477316,182.6182584,139.5948327,87.05229213
1640.38299,179.0125719,135.2815573,85.75049056
1641.28851,174.4127854,132.7304739,83.08846912
1642.193875,168.3662982,131.576164,78.77971793
1643.099086,158.9772294,129.3661332,72.72169577
1644.004142,148.9466521,126.0465621,65.09220558
1644.909045,144.4716479,123.5827231,56.37660452
1645.813793,143.8105515,120.9018572,47.34545464
1646.718387,136.3097766,114.0312843,39.01176984
1647.622827,116.6788339,101.8858619,32.55414295
1648.527112,92.08637118,88.40828246,29.16169403
1649.431244,74.25398342,79.92926143,29.79128812
1650.335222,71.8206008,82.89348537,34.89785497
1651.239045,87.47763606,100.5878584,44.24865867
1652.142715,115.4249452,128.9923036,56.92811809
1653.046231,144.8097308,158.7649573,71.56268443
1653.949593,167.5067477,182.1973563,86.67831301
1654.852801,179.6741639,196.6421066,101.0362548
1655.755855,182.4950339,204.3597136,113.8174273
1656.658755,184.313038,210.9124409,124.6043424
1657.561502,192.1513182,219.8107762,133.2080725
1658.464095,202.2158269,228.2475745,139.4632881
1659.366534,205.6489699,230.5568489,143.1043758
1660.26882,198.2093859,224.3505609,143.759207
1661.170952,182.448264,212.4791338,141.036913
1662.07293,165.3923095,200.1404171,134.6658476
1662.974755,152.2936704,189.0410151,124.641601
1663.876426,141.0438944,174.8909601,111.3586626
1664.777944,124.6424665,152.6302221,95.69895982
1665.679308,99.03510581,122.8148172,79.02888616
1666.580519,68.27693042,91.36194389,63.06827368
1667.481576,40.28435884,64.06867596,49.63745658
1668.382481,18.26534085,42.64329466,40.33008823
1669.283231,1.662373935,26.60606876,36.18327741
1670.183829,-8.110546849,17.99057378,37.42229597
1671.084273,-9.708173411,21.87408112,43.35263387
1671.984564,-4.377010498,40.9800236,52.45913826
1672.884702,6.072760696,69.95187085,62.72943466
1673.784687,17.45969144,96.52866669,72.13626444
1674.684518,22.28030979,110.5973498,79.12715111
1675.584197,17.06918073,111.9976094,82.94511205
1676.483722,5.890458508,107.8494164,83.67558506
1677.383095,-6.301510202,103.9609047,82.04214313
1678.282314,-16.75617395,101.929874,79.06329331
1679.181381,-21.00856881,102.7101076,75.698122
1680.080294,-14.11288451,108.2029515,72.57708507
1680.979055,2.22116206,118.0771387,69.87604375
1681.877663,18.92488842,128.0783062,67.35048766
1682.776118,29.41886734,134.6035341,64.49547733
1683.67442,38.18545669,139.2011353,60.75743103
1684.57257,54.62774586,144.8216316,55.73347369
1685.470567,78.870398,149.4781235,49.33656618
1686.368411,99.76169508,147.7228523,41.91202937
1687.266102,108.3469901,137.582901,34.25150268
1688.163641,109.1659454,123.935414,27.44545795
1689.061027,114.6295623,114.5565601,22.58260087
1689.958261,128.7307004,112.5736776,20.40175531
1690.855342,143.1775023,114.4157953,21.05001331
1691.752271,151.2146449,116.2156882,24.05324083
1692.649047,155.0782613,118.2806051,28.49844001
1693.545671,157.7542187,121.1417027,33.34807572
1694.442143,157.3246214,121.506231,37.78193905
1695.338462,151.2354625,115.0676296,41.46141078
1696.234629,139.7808947,101.2536065,44.62858049
1697.130643,123.6786113,83.08234178,48.00600962
1698.026505,102.639008,63.58032543,52.53795663
1698.922216,80.03333529,45.4745651,59.06662619
1699.817773,64.57691638,33.6014066,68.03839042
1700.713179,61.24431925,31.94533279,79.31482352
1701.608433,64.3974064,37.48637939,92.14129405
1702.503534,64.64637849,42.33986593,105.2836933
1703.398484,58.75899236,42.79497499,117.2790525
1704.293281,51.71406041,42.26676353,126.7104577
1705.187927,51.39182047,44.5844823,132.440145
1706.08242,57.85423379,47.55348776,133.7828046
1706.976762,59.04917216,45.4827796,130.6197236
1707.870952,44.79855496,36.76305646,123.4309861
1708.76499,22.00308282,26.31825711,113.1977655
1709.658876,7.845150688,20.3191633,101.1751366
1710.55261,9.180815442,19.24630777,88.61896399
1711.446193,14.98789211,17.42794537,76.58706302
1712.339624,14.15523525,11.87490012,65.87701729
1713.232903,13.42914796,9.12501191,57.06445981
1714.12603,23.85787469,16.90612967,50.56421868
1715.019006,40.17797118,32.27755082,46.6749269
1715.911831,51.8951882,46.07967113,45.60338599
1716.804504,61.51221562,55.09968952,47.45583335
1717.697025,75.48007045,62.7279309,52.18739178
1718.589395,90.00981635,72.13873894,59.54019274
1719.481613,99.1838901,84.43380706,69.01865146
1720.37368,106.5388576,99.68031486,79.92221652
1721.265595,116.3161483,115.2304104,91.41993108
1722.15736,122.3332062,125.5055514,102.6421363
1723.048973,119.0170331,128.010587,112.7687544
1723.940434,114.8456788,128.1917081,121.0869032
1724.831745,119.6447307,133.037159,126.9996248
1725.722904,127.4691142,141.2732369,130.0149555
1726.613912,126.6098703,145.6328681,129.7729177
1727.504768,115.1902597,142.341907,126.1277399
1728.395474,96.90972132,132.5995461,119.2443272
1729.286029,75.68674901,118.1373783,109.6526038
1730.176432,58.06289588,100.4861711,98.21747492
1731.066685,47.60235735,81.66587125,86.02095106
1731.956786,39.31148876,62.88827874,74.19829552
1732.846737,29.1815253,45.49773935,63.78866506
1733.736537,23.81918507,33.15783459,55.62819908
1734.626185,31.88097421,28.52816237,50.27827514
1735.515683,49.461521,28.17592503,47.9830107
1736.405031,64.67324861,26.23669308,48.65820553
1737.294227,76.48871181,23.49457767,51.90202783
1738.183272,96.89881079,27.89792982,57.01951857
1739.072167,131.964857,44.68987693,63.08634271
1739.960911,171.1968832,68.81529822,69.08795525
1740.849505,199.7652282,88.61508414,74.11842436
1741.737948,214.2013347,96.69446516,77.55621398
1742.62624,221.9576025,96.50100702,79.13036208
1743.514382,229.6551894,97.49231025,78.86039943
1744.402373,236.8978743,105.2242618,76.93354588
1745.290214,241.9511673,118.1452692,73.59817105
1746.177904,246.1858064,131.2777931,69.11648361
1747.065444,248.493062,139.8937032,63.78040803
1747.952833,243.2246717,142.4813012,57.96612699
1748.840073,229.1139002,142.5987403,52.17559321
1749.727161,214.45335,145.5829124,47.01206958
1750.6141,206.9791667,152.0866948,43.08029089
1751.500888,202.2276921,157.0382323,40.85585546
1752.387526,192.8396791,157.0195302,40.58341273
1753.274014,185.0395073,156.0578489,42.23323773
1754.160351,189.4627768,159.8069618,45.51542386
1755.046539,202.291118,166.4910572,49.94719497
1755.932576,211.3104286,169.3156823,54.96216973
1756.818464,211.4379863,166.2162589,60.02550187
1757.704201,206.4443459,162.5359677,64.71115469
1758.589788,205.9142575,165.0126212,68.72630089
1759.475225,217.8316153,174.6904814,71.90660727
1760.360513,234.689947,184.078821,74.2188797
1761.24565,237.4295837,182.2465496,75.77638569
1762.130638,219.9845632,166.1239237,76.82531044
1763.015476,197.6964194,145.5856902,77.66015898
1763.900164,186.060059,133.2052359,78.48743704
1764.784702,180.7960538,130.0826089,79.32177925
1765.66909,167.7476663,127.00048,79.99753457
1766.553329,146.3796222,117.8266527,80.29339993
1767.437418,127.1555111,104.264393,80.08210328
1768.321358,109.7588297,89.05803656,79.41222757
1769.205148,86.20428657,73.82439791,78.48825651
1770.088788,62.62536983,63.09502396,77.56936371
1770.972279,54.08907562,60.77652395,76.84293868
1771.85562,58.18505834,61.63359431,76.34842432
1772.738812,57.71687084,55.89647565,76.00045989
1773.621854,49.79209928,43.80708048,75.68163732
1774.504747,46.30337874,35.91351332,75.32329295
1775.38749,48.76867086,38.22828653,74.93294766
1776.270084,49.45394856,46.58354358,74.5902926
1777.152529,48.83849521,55.43183456,74.43508784
1778.034825,51.38422838,63.9159783,74.64523259
1778.916971,58.13465628,73.28471466,75.40132537
1779.798968,71.5089593,83.17813251,76.83873996
1780.680816,90.11734594,90.87787156,78.99092547
1781.562515,104.1660985,94.20107552,81.73509573
1782.444065,110.7050963,95.59742616,84.75293406
1783.325465,118.5484183,100.3790509,87.52390716
1784.206717,130.1233383,109.2912175,89.38497653
1785.087819,135.7569783,115.9220709,89.67518839
1785.968773,129.4719583,113.7022137,87.92422818
1786.849577,117.3231239,103.7993352,83.99916372
1787.730233,106.9284005,93.06910528,78.13804343
1788.610739,97.27212138,85.29026546,70.86307966
1789.491097,84.91726267,79.06501086,62.83272828
1790.371306,74.6528603,73.5692459,54.71179377
1791.251367,74.3491842,70.16918162,47.1084273
1792.131278,80.78396545,67.90797122,40.57723135
1793.011041,80.00937974,63.39095995,35.64588583
1793.890655,65.17522821,57.19628468,32.80987814
1794.77012,47.0579954,56.0218654,32.46333381
1795.649437,41.30004403,65.70148167,34.78241822
1796.528605,51.14693503,84.38615186,39.62370937
1797.407625,67.31623445,104.1260541,46.50279119
1798.286496,79.06509886,117.6572948,54.66696472
1799.165218,84.04893983,123.5074229,63.21571329
1800.043792,90.10277957,125.9041394,71.20843749
1800.922218,103.6716175,129.7104613,77.73987391
1801.800495,119.1859437,135.7498485,82.01206184
1802.678624,127.3249027,141.4668583,83.43263133
1803.556604,126.0065508,143.6766082,81.73156707
1804.434436,117.2287987,139.4467248,77.05941369
1805.31212,103.061655,127.689096,70.01998638
1806.189656,88.13703421,111.6511759,61.59219774
1807.067043,78.69995039,97.30996316,52.93400618
1807.944283,75.84777729,87.39913851,45.12636739
1808.821374,73.71755422,79.20513517,38.95023455
1809.698317,69.2752546,70.86134258,34.76475158
1810.575112,69.57428331,66.5695124,32.49999731
1811.451758,81.91895026,70.91242655,31.74316475
1812.328257,100.8039761,80.73818109,31.88975835
1813.204608,113.3234237,88.37535126,32.32282173
1814.080811,115.3377747,91.16165402,32.57059003
1814.956866,114.0037754,92.31059739,32.39945632
1815.832773,115.9489241,93.95384527,31.83456201
1816.708532,119.5754916,94.93301408,31.11456789
1817.584143,118.9524699,95.04783799,30.60038703
1818.459607,113.8779314,97.48931678,30.65214902
1819.334923,112.8747486,105.8606851,31.48987886
1820.210091,121.3286836,119.8567715,33.08051634
1821.085111,132.4960632,134.9504611,35.12108801
1821.959984,135.9557014,145.6461396,37.14907382
1822.834709,127.8063842,148.0557014,38.72246435
1823.709286,110.9478339,141.525114,39.56970152
1824.583716,93.02633517,130.1728632,39.64650949
1825.457998,82.02417431,120.8530333,39.09752673
1826.332133,77.65973175,116.8185739,38.16225189
1827.20612,73.58753257,115.0713561,37.07888372
1828.07996,68.93427772,111.0401037,36.02735602
1828.953653,65.33510926,102.8753635,35.1132122
1829.827198,59.48899581,92.60095247,34.37470913
1830.700596,52.97780696,86.32869473,33.79437417
1831.573846,54.42909333,88.97864517,33.30800293
1832.446949,62.13056214,96.38422527,32.82884098
1833.319905,63.4375975,98.11908715,32.30965446
1834.192714,54.21344612,89.12977421,31.82304912
1835.065375,42.52288948,73.8850928,31.60147872
1835.93789,35.32410743,59.64045597,31.99767857
1836.810257,32.59175893,50.10749034,33.38227317
1837.682477,31.42059938,45.6648346,36.02171225
1838.55455,30.4870624,45.83099283,39.98509109
1839.426476,31.58536015,49.79050289,45.10179863
1840.298255,35.91194466,55.29977609,50.98083358
1841.169887,39.901422,58.66069248,57.0956831
1842.041372,40.06951514,57.50336837,62.91272962
1842.91271,38.27431341,53.29475579,68.00783347
1843.783901,36.78706508,49.60439458,72.11909919
1844.654946,35.45432225,48.47388439,75.12646015
1845.525844,37.16268583,49.68837835,76.98798403
1846.396594,46.49971787,52.29131693,77.67398301
1847.267199,61.61379555,54.95001354,77.13373274
1848.137656,76.07479682,55.62367159,75.31594806
1849.007967,85.38600333,51.80861936,72.23379493
1849.878131,86.10787987,42.01764447,68.02433222
1850.748148,79.52017033,30.01392239,62.95200127
1851.618019,77.25209263,25.27280859,57.34439771
1852.487743,86.99919118,32.09743561,51.50309945
1853.357321,98.6096181,41.44779657,45.6626841
1854.226753,100.0599418,41.70300062,40.02128231
1855.096037,94.72767512,33.16738381,34.79260656
1855.965176,92.68436027,25.1618532,30.21582716
1856.834168,96.41860876,23.39809984,26.52013715
1857.703014,99.52638962,26.13796109,23.88532331
1858.571713,95.2980118,30.30750923,22.42397533
1859.440266,85.0623226,35.89355101,22.17474753
1860.308673,77.06898855,44.00245364,23.09013545
1861.176933,78.62511483,54.3334558,25.02409094
1862.045047,88.9411061,65.31336144,27.73849948
1862.913016,98.46623095,75.2324327,30.94102463
1863.780838,98.92282624,83.42669665,34.34368942
1864.648513,92.9909327,89.93910546,37.7052225
1865.516043,89.17657901,93.51582745,40.82920125
1866.383427,90.70689499,92.2160674,43.53652839
1867.250665,94.03713547,86.70110746,45.65576854
1868.117756,94.39061135,79.94527827,47.05191175
1868.984702,89.33969766,73.08065111,47.67931086
1869.851502,79.47313132,64.47574023,47.62626585
1870.718156,68.3850448,53.68683353,47.12114035
1871.584664,61.29415686,43.89841157,46.49400751
1872.451026,60.55945162,38.55066016,46.11645204
1873.317243,61.90640537,36.52031157,46.34937645
1874.183314,58.50558178,33.48353475,47.51538928
1875.049239,49.08704298,27.95809132,49.88427279
1875.915018,38.01541151,22.49646995,53.65186287
1876.780651,29.35444036,19.17931775,58.89980353
1877.646139,24.89734476,17.92310098,65.54908316
1878.511482,24.78530306,19.34076764,73.32986348
1879.376679,27.25821971,25.29837091,81.77781747
1880.24173,30.31196308,35.63420861,90.25658254
1881.106635,35.28270037,47.75728763,98.01343741
1881.971396,45.9555184,60.44703524,104.2838259
1882.83601,60.06975822,73.91387044,108.4464365
1883.70048,66.19835619,85.10549108,110.1930065
1884.564804,56.62171635,88.28971215,109.6354929
1885.428982,39.26106592,83.02043218,107.2712916
1886.293016,29.83388472,77.43330584,103.7952027
1887.156904,35.40595252,80.13543729,99.84356425
1888.020646,50.79471712,91.06189593,95.79906622
1888.884244,67.70711928,102.9930134,91.739281
1889.747696,81.70087617,110.1840503,87.52232744
1890.611003,92.12270876,112.7269434,82.9389167
1891.474165,99.72913871,113.3491679,77.8512927
1892.337182,104.7107839,113.2791783,72.27260665
1893.200054,106.9270059,112.4814947,66.38124487
1894.06278,107.121479,111.0664586,60.48496804
1894.925362,105.9894486,108.3716351,54.95279118
1895.787799,103.229432,102.8690503,50.12556994
1896.650091,99.41778407,95.20529032,46.21943334
1897.512238,97.30644305,89.30608229,43.25297133
1898.374239,98.06946102,87.6997528,41.03877374
1899.236097,96.98979968,87.52998306,39.2582448
1900.097809,87.85357573,84.38902225,37.58968912
1900.959376,72.66970114,78.64279812,35.82566275
1901.820799,61.62487942,74.55871153,33.93472657
1902.682077,58.81328207,73.05980692,32.06995425
1903.54321,53.37777221,68.48942633,30.54360775
1904.404199,34.74823766,55.42471622,29.76084008
1905.265043,11.5903631,37.58635151,30.08530885
1906.125742,3.096568168,26.4438233,31.65029746
1906.986297,15.58127483,29.89283828,34.20317333
1907.846707,36.84403244,43.27540826,37.09128102
1908.706973,49.70405947,52.80790536,39.42842965
1909.567094,46.9899291,49.38558637,40.37309813
1910.427071,35.87195068,37.68493026,39.38297105
1911.286903,28.4996382,28.88042521,36.34101682
1912.146591,29.16641415,27.46505581,31.54303073
1913.006135,32.96951252,29.86540417,25.60801935
1913.865534,34.90608548,32.42631976,19.3643301
1914.724789,34.97128789,34.70747069,13.72306088
1915.5839,34.57060354,36.55661705,9.537979185
1916.442866,34.05330316,37.62826997,7.467428612
1917.301688,35.47132051,40.2114404,7.874949512
1918.160366,41.00992453,47.10216625,10.80458745
1919.0189,46.57658479,55.61592094,16.04816261
1919.87729,46.29102256,60.18117387,23.28672278
1920.735536,43.54189756,61.33903501,32.23464695
1921.593638,45.74978589,64.81912712,42.69529718
1922.451595,52.38983778,72.75889958,54.49977011
1923.309409,59.14879383,82.5158755,67.38390314
1924.167079,66.5862474,92.339669,80.88375064
1925.024604,77.31765106,103.3958221,94.30346982
1925.881986,90.84086585,117.0729053,106.7717829
1926.739224,104.6389691,132.3924463,117.3725485
1927.596318,115.1850335,145.1147485,125.3157508
1928.453269,116.6072899,149.0254879,130.1050441
1929.310075,105.8848,141.2797139,131.647982
1930.166738,90.83754926,127.5787695,130.252517
1931.023257,84.49831983,118.3022409,126.4970739
1931.879633,90.22303855,118.7034899,121.0459836
1932.735865,98.40538248,125.7702683,114.5167157
1933.591953,98.93330616,133.4517904,107.4519684
1934.447897,91.78366692,137.4161749,100.3643659
1935.303698,82.06783795,136.0743709,93.78126204
1936.159356,70.91998849,131.0958583,88.23565984
1937.01487,58.42197127,127.5275637,84.19964927
1937.87024,48.58491992,130.0447506,82.00044435
1938.725468,43.04410911,137.6818076,81.77060453
1939.580551,37.47690248,145.7471741,83.45446343
1940.435492,31.31937025,153.9577078,86.83569734
1941.290289,30.7026669,167.1886407,91.52811807
1942.144942,37.18411431,186.991115,96.93051891
1942.999453,46.7363455,208.6264609,102.218556
1943.85382,59.06398834,226.6210941,106.434294
1944.708044,73.22804984,237.9563545,108.6606466
1945.562124,81.07499623,241.7265075,108.2170602
1946.416062,78.70351378,239.4107737,104.8059032
1947.269856,73.81634917,232.8182003,98.56968515
1948.123508,71.38486304,220.687553,90.05656416
1948.977016,66.14220191,201.367085,80.11055884
1949.830381,57.01385723,178.8202192,69.6995885
1950.683603,51.96660141,160.5274445,59.7089924
1951.536683,53.71868303,149.3025969,50.771353
1952.389619,56.67009997,142.0655126,43.20946812
1953.242412,57.55466379,135.363962,37.10194432
1954.095063,57.6397252,127.945385,32.41218614
1954.947571,57.45988849,119.6335645,29.10800871
1955.799935,55.26387521,110.4203417,27.22094927
1956.652157,49.51096544,100.279248,26.83437269
1957.504237,41.05737985,89.44284464,28.02915471
1958.356173,33.21586276,79.14335541,30.8228159
1959.207967,30.70182011,72.15099916,35.11853819
1960.059618,35.56553644,71.20614744,40.67021278
1960.911127,43.12540678,75.55045934,47.08278015
1961.762493,47.95508116,80.57355731,53.87691982
1962.613716,51.09241799,81.71829616,60.61768539
1963.464797,53.71573579,76.83110777,67.05525205
1964.315735,51.55985717,65.84671515,73.20443575
1965.166531,41.95916351,51.42393743,79.31223597
1966.017184,28.63931261,39.03551002,85.71370596
1966.867695,18.73641854,33.57470494,92.63435743
1967.718064,18.66437038,35.59305195,100.0297207
1968.56829,28.19438222,41.66195594,107.5293954
1969.418374,38.99249783,47.77424634,114.5012281
1970.268315,44.70008864,52.26303438,120.1996516
1971.118114,48.17436351,56.49431725,123.9363492
1971.967771,54.34006255,62.72076278,125.2202005
1972.817286,62.15308265,70.54171236,123.8391345
1973.666659,66.56095055,76.13523051,119.8822446
1974.515889,65.26656974,76.49057637,113.7008883
1975.364977,62.32255584,73.38162731,105.8153439
1976.213924,62.10133249,70.23079158,96.78748996
1977.062728,61.2479933,66.67186578,87.10809828
1977.91139,55.09407489,61.03740155,77.14335497
1978.75991,49.23126981,56.2259823,67.13883394
1979.608288,51.7899585,56.42099747,57.25591849
1980.456524,57.84246843,59.25550763,47.63643738
1981.304619,57.34536123,58.3390603,38.49021117
1982.152571,52.04263283,51.81322831,30.15644271
1983.000382,47.58434023,42.14366339,23.07961225
1983.84805,41.2069611,31.56856306,17.69716852
1984.695577,31.46295245,23.14314449,14.28647317
1985.542962,24.13998538,21.0657453,12.8250435
1986.390206,21.88499482,26.47635673,12.92030394
1987.237308,23.15410649,36.46632947,13.85643801
1988.084268,29.0507263,47.06650286,14.76867018
1988.931086,38.11730917,54.30804758,14.89864343
1989.777763,40.84172087,54.31682444,13.84551435
1990.624298,31.2790322,46.66230357,11.70969673
1991.470692,17.01228814,37.01142689,9.061393499
1992.316944,7.570461211,32.00322177,6.747897536
1993.163055,2.967435694,31.94978064,5.626343439
1994.009024,1.589146637,33.21995756,6.324643986
1994.854852,7.152900858,36.02000253,9.090725609
1995.700538,21.04786273,43.35720516,13.75704323
1996.546083,36.34082387,53.49931267,19.81911674
1997.391487,45.23538837,60.91429604,26.59885664
1998.23675,49.05750857,64.6928526,33.424338
1999.081871,54.3448611,68.77344295,39.75214992
1999.926851,61.5734853,74.23113657,45.20864831
2000.771689,67.90831365,78.60161292,49.57378305
2001.616387,75.63583407,81.01203528,52.73098789
2002.460943,85.10323541,81.18075211,54.60192047
2003.305358,89.44517732,77.37641271,55.10025157
2004.149632,87.20120538,71.19618289,54.12565252
2004.993765,86.18346528,68.38945308,51.58663371
2005.837757,88.88998678,70.2993435,47.43817202
2006.681608,88.56416407,70.51134809,41.74077045
2007.525318,81.77426786,63.37160089,34.73415792
2008.368888,72.34517694,50.96591025,26.89151224
2009.212316,61.48922566,38.97033792,18.91371936
2010.055603,46.36200543,29.94473643,11.65525478
2010.898749,30.83997434,23.78540002,6.003942592
2011.741755,23.07534137,20.20114724,2.750408727
2012.58462,21.31787765,17.48461487,2.478108294
2013.427344,19.33760529,13.90349742,5.490087751
2014.269927,22.19159505,12.44499581,11.76730805
2015.11237,37.72091357,17.98517871,20.95221767
2015.954672,59.76017252,29.01083689,32.37635958
2016.796833,77.05214606,39.60876291,45.15027756
2017.638853,90.25000893,49.14760216,58.29180244
2018.480733,106.9284388,61.52918995,70.84743176
2019.322473,126.8071379,75.80412384,81.98974583
2020.164072,141.8805132,85.91529731,91.09666465
2021.00553,148.4959887,89.22756634,97.79965531
2021.846848,151.0728668,88.63031158,101.9741862
2022.688026,153.7158678,86.82029236,103.6790065
2023.529063,156.240619,84.13940913,103.0866512
2024.36996,158.1600609,82.05119053,100.4334547
2025.210716,159.6268653,84.00912936,95.98697871
2026.051332,160.6391646,91.43144513,90.02256561
2026.891808,162.9234855,101.3590579,82.81971736
2027.732144,166.9275331,109.1687224,74.69590226
2028.572339,166.1353731,112.1738637,66.07637854
2029.412394,154.0763526,110.6162738,57.56165991
2030.252309,136.8698543,107.0405112,49.93726135
2031.092084,126.3407439,104.4415231,44.09580046
2031.931719,122.8064631,103.5624387,40.88480027
2032.771213,120.1786107,103.8940054,40.9211897
2033.610568,123.1319905,108.0542842,44.4149519
2034.449782,139.9807783,119.96001,51.04073536
2035.288857,163.1267698,137.0947662,59.9104273
2036.127791,176.97193,151.9263546,69.69594954
2036.966586,182.5199106,163.0125452,78.88711374
2037.805241,193.9725033,175.4399227,86.09960646
2038.643756,211.4620629,187.6805607,90.34946611
2039.482131,216.9659497,189.0501681,91.24502802
2040.320366,201.5907367,175.3449565,89.04281299
2041.158461,180.5943107,157.4867064,84.51689476
2041.996417,172.5534037,148.3386246,78.67477394
2042.834233,176.2769422,148.2909746,72.46101266
2043.671909,179.1077078,149.8775755,66.58519445
2044.509446,176.3161207,149.9969793,61.49187472
2045.346843,171.6460816,150.7260032,57.39966283
2046.1841,168.5095638,152.0637452,54.34963436
2047.021218,167.315004,150.0677932,52.25489628
2047.858196,164.902179,141.9231989,50.96080723
2048.695035,157.029496,130.310707,50.31067055
2049.531734,144.9967175,121.3357018,50.19734679
2050.368294,134.4611267,117.7127762,50.58499936
2051.204714,128.3274439,116.0044889,51.49886006
2052.040995,126.6550195,112.0229499,52.98545651
2052.877137,127.9338066,106.1306368,55.04471179
2053.713139,126.8555729,101.0461198,57.54571532
2054.549002,119.4849523,97.4028225,60.15640768
2055.384725,110.9469684,94.10950806,62.32771378
2056.22031,109.1674064,90.90977477,63.36538957
2057.055755,113.9566615,88.01905297,62.59627513
2057.891061,118.2900167,83.95003337,59.59480465
2058.726228,115.2167042,75.36330854,54.39513559
2059.561255,102.454971,60.31832112,47.59701356
2060.396144,85.07618628,41.91964127,40.29964299
2061.230893,70.9516032,26.63986476,33.87144037
2062.065504,62.56075365,18.19222457,29.64456022
2062.899975,58.06960371,15.20478795,28.65294536
2063.734308,56.13647632,14.35242919,31.48389433
2064.568501,54.59680996,13.66166523,38.23803309
2065.402556,51.97408924,14.54271643,48.55869269
2066.236471,53.05547097,21.58231543,61.70575609
2067.070248,64.12403755,37.48856956,76.67345092
2067.903886,81.35388742,58.00200606,92.35694236
2068.737385,91.21094207,74.44856507,107.7494221
2069.570746,85.16013155,81.71143078,122.1098685
2070.403967,71.67361801,82.93308681,135.0199428
2071.23705,68.35071585,86.40480193,146.288058
2072.069994,80.54744262,97.82935584,155.7494324
2072.9028,96.70595397,115.9041854,163.0812204
2073.735467,107.8202384,134.9249563,167.7392123
2074.567995,116.9797966,149.5272487,169.0456041
2075.400384,125.4856601,156.4716311,166.3841089
2076.232636,127.619656,155.1196276,159.4243026
2077.064748,123.4506008,148.3857739,148.2949772
2077.896722,119.3790765,140.6524227,133.645399
2078.728558,115.1045179,132.7293537,116.5723209
2079.560255,105.1741108,121.6440045,98.43654202
2080.391814,90.53991547,107.1414502,80.62668536
2081.223235,78.56734907,95.06442625,64.3410605
2082.054517,75.38993848,91.37985816,50.45274934
2082.885661,79.43189414,94.12900718,39.49512387
2083.716666,80.10544512,94.54087188,31.75323715
2084.547533,69.9978717,87.3686811,27.39191076
2085.378262,57.79439299,77.24787347,26.53541683
2086.208853,56.45414861,71.96245984,29.25690084
2087.039306,62.13451438,72.51383461,35.50204139
2087.86962,61.2842672,74.67704769,45.00203399
2088.699797,54.20583503,77.7125531,57.21350735
2089.529835,54.2307765,85.08924353,71.30140531
2090.359736,67.16776475,97.68712843,86.18329846
2091.189498,85.29172885,111.712764,100.6514417
2092.019122,99.47907159,122.849885,113.5604664
2092.848608,107.2408486,128.8129536,124.037615
2093.677957,108.045516,128.4839737,131.657632
2094.507167,100.987468,122.5443048,136.5210498
2095.33624,92.48416867,115.5155828,139.1904626
2096.165175,94.42006835,113.1068677,140.4939826
2096.993972,106.5531149,116.062162,141.2764043
2097.822631,113.400221,119.8544966,142.1970898
2098.651152,107.0480695,121.8362524,143.6201979
2099.479536,99.68434215,125.4746557,145.5847832
2100.307782,104.5197972,135.2173729,147.8401534
2101.13589,117.5350424,149.6821365,149.9557869
2101.963861,126.0353982,162.3619122,151.5003239
2102.791694,123.8633598,167.4350767,152.230745
2103.619389,114.2339499,164.017396,152.2033147
2104.446947,104.9627171,156.766619,151.7525209
2105.274367,100.7641623,152.8470935,151.3579964
2106.10165,98.00580333,156.5782551,151.4698387
2106.928796,91.17981976,166.6729223,152.3574243
2107.755804,83.87266453,179.0682706,154.0151406
2108.582674,85.33907791,190.7720103,156.1430174
2109.409407,96.04790769,199.7622852,158.2199241
2110.236003,104.9688103,203.3121337,159.6658956
2111.062462,101.4788407,198.7100326,160.0415734
2111.888783,85.2066928,185.8762971,159.2015494
2112.714967,65.60855255,168.7206079,157.3372788
2113.541013,53.65240764,152.8201589,154.8997407
2114.366923,54.3125712,141.4555979,152.4508489
2115.192695,65.94299352,134.2716984,150.521592
2116.01833,81.55018023,128.9094204,149.5334299
2116.843828,92.90390923,123.8522777,149.7862879
2117.669189,100.2924197,120.5191972,151.4726822
2118.494413,112.9808941,121.769208,154.6755524
2119.3195,135.0048631,128.0509824,159.345235
2120.144449,158.3348674,136.2363782,165.2863269
2120.969262,174.5656747,142.7517731,172.1820454
2121.793938,186.3726377,147.4011357,179.6497076
2122.618477,201.6181585,152.941289,187.2930261
2123.442879,219.5639182,160.6966809,194.7262549
2124.267144,230.8987732,168.8979693,201.5786674
2125.091273,232.5800579,175.8851614,207.4957498
2125.915264,232.5826047,181.7690795,212.1287656
2126.739119,236.0355427,186.3747314,215.1026968
2127.562837,238.0141673,188.6230012,215.9905813
2128.386418,233.8406498,187.7190875,214.3446091
2129.209863,224.2582632,181.884516,209.8056609
2130.033171,207.0876345,167.1416144,202.2551876
2130.856342,178.1093644,142.4678654,191.9306151
2131.679377,144.888676,115.5850369,179.4331233
2132.502275,122.9884897,96.338678,165.6188442
2133.325036,113.7458379,84.64781769,151.4434614
2134.147661,104.4176314,73.34454023,137.8526717
2134.97015,90.39585623,60.76127426,125.7436597
2135.792502,77.43134465,51.42151528,115.9462645
2136.614718,67.65430202,47.60668495,109.1745704
2137.436797,60.4818956,48.07313032,105.9463258
2138.25874,57.92069721,52.09140731,106.4929019
2139.080546,58.70018302,59.89020764,110.6880573
2139.902217,58.62976105,71.60524337,118.0204639
2140.723751,61.0542465,88.12683474,127.6144846
2141.545148,73.58265141,109.950783,138.2864023
2142.36641,92.12844488,133.3989734,148.6389151
2143.187535,102.7707358,151.6342928,157.2170286
2144.008524,101.5721966,161.2078033,162.7197522
2144.829377,97.66784358,164.0461536,164.2067606
2145.650094,94.58489771,162.0783656,161.2299035
2146.470674,85.19125284,154.5774115,153.8654074
2147.291119,69.18821327,142.2097268,142.6554985
2148.111427,57.60272411,128.5809626,128.4849191
2148.9316,55.085818,115.9684947,112.4305898
2149.751637,54.645844,104.1111206,95.62507179
2150.571537,51.54076276,93.38547334,79.14951546
2151.391302,47.53595644,83.93384341,63.95273866
2152.210931,42.80062785,72.69238709,50.80050331
2153.030424,35.86001136,57.73414258,40.26184832
2153.849781,29.29677328,44.04698478,32.72159084
2154.669002,25.40345632,37.89677312,28.39836497
2155.488088,20.73469861,37.62579872,27.36010999
2156.307038,14.50222142,36.76601864,29.53337444
2157.125852,13.83664558,33.36056495,34.69155515
2157.94453,21.34694736,31.09866626,42.42030812
2158.763073,28.7365999,34.13849985,52.0916889
2159.58148,30.83245218,43.6022734,62.87872012
2160.399752,32.82800141,56.25643669,73.81349193
2161.217888,37.47504906,65.77306619,83.88263689
2162.035888,39.79381955,68.40943085,92.1558537
2162.853753,38.07773473,67.10021565,97.92076455
2163.671482,35.69742149,66.90148538,100.7744286
2164.489076,32.734166,68.3004809,100.6404639
2165.306534,27.63272036,68.47130024,97.72297771
2166.123858,22.94018277,66.70846354,92.43129537
2166.941045,21.37198785,64.64000866,85.30013623
2167.758098,20.61571041,62.45780187,76.92156505
2168.575015,17.10392572,58.62940853,67.89119812
2169.391796,11.84681026,52.92177975,58.7601674
2170.208443,8.668976294,46.78042148,49.98601748
2171.024954,9.4366838,41.48385345,41.89092652
2171.84133,13.40470241,38.32533223,34.64473644
2172.657571,17.92897919,38.7409155,28.28440818
2173.473676,19.64727342,41.68097455,22.76719799
2174.289647,17.72690243,42.65191843,18.03503078
2175.105482,15.46718933,38.01409649,14.05723504
2175.921183,17.74418314,29.60051378,10.8318692
2176.736748,24.99153636,22.67266175,8.363489404
2177.552178,29.95398875,19.49548334,6.648395479
2178.367474,26.32288124,17.62297344,5.684226365
2179.182634,19.12629645,14.45424208,5.486443015
2179.997659,17.68510275,10.69185254,6.079447513
2180.81255,23.12301978,10.10279721,7.454508338
2181.627306,32.50800495,17.32387416,9.518970043
2182.441926,45.46322319,32.56511226,12.0732803
2183.256412,57.27512852,47.77647429,14.846028
2184.070764,58.56552551,53.73621535,17.58771483
2184.88498,48.91518937,51.42697198,20.17456789
2185.699062,39.07239834,50.40756816,22.65279874
2186.513009,37.8063075,56.72544735,25.19614575
2187.326821,45.33501482,68.17071849,28.01216449
2188.140499,56.93347833,79.50195638,31.25307816
2188.954042,66.94542432,86.95883797,34.96751929
2189.76745,72.03972499,89.19586184,39.10159427
2190.580724,73.36133812,88.17052972,43.52996945
2191.393864,75.54176803,89.07438261,48.08658747
2192.206869,83.71810316,96.1983612,52.58189621
2193.019739,98.33672401,107.7262206,56.81864338
2193.832475,112.3098857,117.0665446,60.62404296
2194.645077,118.4038536,120.5008417,63.89712073
2195.457544,118.1213971,120.7789156,66.64249721
2196.269877,116.6158454,121.6058024,68.95946535
2197.082075,113.1067859,122.3061032,70.9766278
2197.894139,105.7477269,121.5599159,72.76340958
2198.706069,99.61972278,122.5177421,74.26101308
2199.517865,99.27154147,128.6175563,75.26126873
2200.329526,101.298484,137.2704545,75.44742812
2201.141053,101.315854,141.9544245,74.49070032
2201.952446,96.99579627,137.8096069,72.16405297
2202.763705,84.07600477,124.7268779,68.41884529
2203.57483,63.37261017,108.7753154,63.38555648
2204.385821,46.0781559,98.21371081,57.30446229
2205.196677,39.52408897,94.37238453,50.44436382
2206.0074,36.82245305,90.44020833,43.08367624
2206.817988,29.29600745,81.1544588,35.56833371
2207.628443,17.05566353,67.86838576,28.37877324
2208.438764,2.20348333,53.6424339,22.12725533
2209.24895,-14.38607757,40.70608348,17.46416575
2210.059003,-26.6085065,33.57021508,14.92404249
2210.868922,-25.44303126,37.96791758,14.76645028
2211.678707,-9.734987919,54.06127964,16.88025696
2212.488359,11.59800161,73.97312544,20.80844074
2213.297876,29.11372721,88.74323348,25.89376003
2214.10726,40.33772974,96.16853704,31.47258787
2214.91651,46.91922935,100.0473411,37.01978016
2215.725627,50.42099302,104.2440746,42.1929144
2216.534609,54.19438181,110.3904573,46.79184741
2217.343459,64.19436614,119.522347,50.68727094
2218.152174,81.99760627,131.2534473,53.76916597
2218.960756,100.4763119,141.278957,55.9406931
2219.769204,112.5888851,144.2752535,57.15180647
2220.577519,118.5947463,139.8051553,57.44136112
2221.3857,120.4965306,132.5005653,56.95633382
2222.193748,119.4843384,126.6317404,55.94366997
2223.001663,118.9631292,121.8531864,54.73385763
2223.809444,119.138394,114.0689191,53.73990987
2224.617091,113.1538072,100.3940257,53.47541888
2225.424606,97.62983186,83.21609626,54.55802961
2226.231986,79.94900537,68.22998179,57.63916876
2227.039234,67.50491018,58.26727276,63.23865388
2227.846348,58.11239224,51.78150395,71.54911666
2228.653329,48.49948833,48.32461736,82.31562927
2229.460177,43.06443311,50.86431245,94.85061597
2230.266892,46.73859812,60.10268364,108.1811064
2231.073473,55.77783941,70.29643598,121.2914934
2231.879922,60.50905322,73.55134161,133.394477
2232.686237,54.52123731,67.09785646,144.1313118
2233.492419,40.23483959,55.47506956,153.6117561
2234.298468,26.70210823,46.55339028,162.2723419
2235.104384,22.05071452,45.95192704,170.6197745
2235.910167,28.21714641,54.33966604,178.975885
2236.715818,41.6321125,68.20250871,187.3249139
2237.521335,55.54446145,81.6321039,195.3050407
2238.326719,63.04627133,89.00580594,202.3229835
2239.13197,62.47495749,89.04396537,207.7233771
2239.937089,58.86220805,85.9544657,210.9307152
2240.742074,57.65822517,84.45705832,211.5216007
2241.546927,59.02190035,84.01024798,209.2536409
2242.351647,59.28169615,79.78904661,204.1055378
2243.156234,55.11460906,68.6320989,196.3456447
2243.960689,46.28083237,52.3605038,186.5931914
2244.765011,36.83876681,36.27808082,175.8175478
2245.5692,32.05886816,25.20017236,165.2439571
2246.373257,32.45071286,19.99653976,156.1852813
2247.177181,34.27491983,18.48749911,149.8587414
2247.980972,36.10403538,19.6328012,147.2328862
2248.784631,39.81949111,24.31990988,148.9075895
2249.588157,46.85048025,33.04278304,155.0153782
2250.391551,58.810321,46.28824992,165.1453604
2251.194812,77.7393847,65.44868929,178.3022516
2251.997941,84.99839442,72.52028224,178.2083533
2252.800937,93.15951904,80.95360886,178.3117659
2253.603801,102.2227586,90.74866913,178.6124895
2254.406533,112.188113,101.9054631,179.1105241
2255.209132,123.0555823,114.4239906,179.8058697
2256.011599,134.8251665,128.3042519,180.6985262
2256.813934,147.4968656,143.5462468,181.7884936
2257.616136,161.0706796,160.1499754,183.0757721
2258.418206,175.5466085,178.1154376,184.5603615
2259.220144,190.9246523,197.4426335,186.2422618
2260.02195,207.204811,218.131563,188.1214732
2260.823624,224.3870846,240.1822262,190.1979955
