Wavelength,HS_V2S1_AAB_C4_S5_I2,HS_V2S1_AAB_C4_S5_I3
351.7692476,15.39140597,2.178282793
352.902517,15.73363644,5.904438011
354.0355789,16.37825184,9.747925594
355.1684331,17.32525217,13.70874554
356.3010798,18.57463743,17.78689786
357.4335191,20.12640764,21.98238254
358.5657509,21.98056277,26.29519959
359.6977753,24.13710284,30.725349
360.8295924,26.59602784,35.27283078
361.9612023,29.35733778,39.93764493
363.0926049,32.42103265,44.71979144
364.2238004,35.78711246,49.61927032
365.3547887,39.45557719,54.63608156
366.48557,41.31233168,58.30567591
367.6161443,44.00869399,61.88694683
368.7465116,47.86930673,66.08748441
369.876672,53.08830097,71.78674078
371.0066255,59.68392955,79.48162019
372.1363723,67.49312327,88.9543509
373.2659122,76.21085047,99.42902743
374.3952455,85.45079229,109.9871281
375.5243721,94.79929074,119.8479251
376.6532921,103.8558581,128.4225175
377.7820055,112.2653111,135.3055913
378.9105124,119.7371608,140.3125276
380.0388129,126.0392781,143.5128109
381.166907,130.9630229,145.1553988
382.2947947,134.2791708,145.456444
383.4224761,135.7150008,144.3772542
384.5499513,134.9725273,141.6050224
385.6772202,131.7869862,136.7926834
386.8042831,126.0052933,129.844396
387.9311398,117.6561987,120.9886447
389.0577904,106.9899573,110.6238548
390.1842351,94.48551578,99.14915634
391.3104739,80.82274089,86.95126328
392.4365067,66.82109425,74.50368939
393.5623337,53.35204399,62.41958381
394.6879549,41.24198576,51.36287943
395.8133703,31.18398408,41.85467845
396.9385801,23.67210086,34.12390261
398.0635842,18.96553893,28.14801314
399.1883827,17.0806143,23.84465198
400.3129757,17.80367948,21.17935017
401.4373632,20.72214853,20.02246942
402.5615452,25.27550299,19.89304788
403.6855219,30.82662964,19.91855275
404.8092932,36.74470774,19.1675699
405.9328592,42.48020107,17.15191706
407.05622,47.61454707,14.12974267
408.1793756,51.88221303,10.99579602
409.3023261,55.17334432,8.839037545
410.4250715,57.52362705,8.454735612
411.5476118,59.09395082,10.08872212
412.6699472,60.14192214,13.50077128
413.7920776,60.9863034,18.22500887
414.9140032,61.96517078,23.82596242
416.0357239,63.39184822,30.03035836
417.1572398,65.51698319,36.74527533
418.278551,68.49342855,44.01779174
419.3996575,72.34355585,51.95025565
420.5205593,76.93388076,60.56730173
421.6412566,81.97357318,69.69733383
422.7617494,87.04949446,78.98159999
423.8820376,91.68707363,88.00683998
425.0021215,95.40891084,96.37861216
426.1220009,97.77554487,103.6203383
427.241676,98.41624878,109.0574509
428.3611469,97.05831656,111.9058339
429.4804135,93.55448713,111.5527228
430.5994759,87.90489634,107.8397205
431.7183342,80.27452702,101.1755643
432.8369884,70.99944927,92.41946434
433.9554385,60.57040906,82.59579324
435.0736847,49.5876004,72.57138052
436.191727,38.69268077,62.84467073
437.3095654,28.49497199,53.55925872
438.4271999,19.50747849,44.7279708
439.5446307,12.09801595,36.49409532
440.6618577,6.456301336,29.20758072
441.778881,2.579621802,23.24817618
442.8957007,0.28711022,18.78270161
444.0123169,-0.732518828,15.70285466
445.1287295,-0.851959856,13.75173868
446.2449386,-0.433448944,12.64919483
447.3609443,0.234448362,12.1286856
448.4767466,0.985718414,11.97330751
449.5923455,1.79786412,12.10847899
450.7077412,2.769871213,12.66867233
451.8229337,4.063384626,13.93778217
452.9379229,5.834760213,16.19280698
454.0527091,8.180996424,19.57042853
455.1672921,11.10646459,24.02878056
456.2816721,14.51653895,29.41284191
457.3958491,18.24346352,35.59703494
458.5098232,22.09931802,42.61027077
459.6235944,25.93097406,50.61452676
460.7371628,29.65296779,59.71207203
461.8505284,33.25365222,69.74729609
462.9636912,36.78726391,80.32948457
464.0766514,40.3606548,91.07885153
465.1894089,44.10733624,101.8290869
466.3019639,48.14268003,112.5753736
467.4143163,52.5159587,123.2490201
468.5264662,57.18458778,133.5517714
469.6384136,62.02112467,142.9729521
470.7501587,66.83724869,150.91114
471.8617014,71.40332508,156.7525631
472.9730419,75.45730688,159.8743981
474.0841801,78.71059408,159.6774879
475.1951161,80.86814653,155.7596306
476.30585,81.67484405,148.2050595
477.4163818,80.97632726,137.7833606
478.5267115,78.76251087,125.8348652
479.6368392,75.16927722,113.8538804
480.746765,70.44097743,103.0350599
481.8564889,64.87756091,94.06202596
482.966011,58.79062451,87.19141681
484.0753312,52.47703093,82.42843931
485.1844497,46.20358621,79.55987084
486.2933665,40.19692691,78.04433348
487.4020817,34.64271572,76.99393003
488.5105953,29.69856524,75.44672201
489.6189073,25.5138187,72.82329016
490.7270178,22.24233054,69.21062082
491.8349268,20.04076327,65.24303734
492.9426345,19.0561082,61.71058541
494.0501408,19.41046916,59.20835364
495.1574458,21.185185,58.01059554
496.2645495,24.39627264,58.10563958
497.3714521,28.95691566,59.24522453
498.4781534,34.64599918,60.98931278
499.5846537,41.11587398,62.81266742
500.6909529,47.95532656,64.295731
501.7970511,54.79014545,65.37163523
502.9029483,61.37696918,66.52146913
504.0086446,67.64346623,68.73618525
505.1141401,73.65881964,73.18127776
506.2194347,79.56011894,80.72591837
507.3245286,85.47654025,91.57005462
508.4294218,91.47927481,105.1060975
509.5341143,97.56510461,120.0450725
510.6386062,103.6702492,134.7584923
511.7428975,109.7025459,147.7111875
512.8469882,115.5719725,157.8232281
513.9508786,121.2007618,164.6342342
515.0545684,126.5100803,168.2210253
516.158058,131.4020811,168.9320635
517.2613472,135.765136,167.1478714
518.3644361,139.51052,163.2803327
519.4673248,142.6142354,157.9723277
520.5700133,145.125715,152.2168016
521.6725016,147.1272182,147.1764059
522.7747899,148.659609,143.7732627
523.8768782,149.6518483,142.3436705
524.9787665,149.8923011,142.582129
526.0804548,149.0547077,143.712871
527.1819433,146.7597884,144.694296
528.2832319,142.6444493,144.4111411
529.3843207,136.4261825,141.9427812
530.4852098,127.9640198,136.8795
531.5858992,117.3130047,129.467268
532.6863889,104.7600393,120.4250705
533.7866791,90.82925985,110.5708883
534.8867697,76.24951792,100.5443548
535.9866608,61.8831051,90.77685339
537.0863525,48.62420921,81.63726854
538.1858447,37.28088661,73.58014359
539.2851376,28.45828048,67.16338022
540.3842312,22.46948057,62.89413628
541.4831256,19.3038372,60.97524023
542.5818207,18.66772652,61.15145615
543.6803167,20.08393567,62.83277046
544.7786136,23.01226794,65.42749125
545.8767114,26.95318387,68.61707577
546.9746102,31.51269157,72.38074811
548.07231,36.42050894,76.80819817
549.1698109,41.50467466,81.88224279
550.2671129,46.6423821,87.38066954
551.3642162,51.71578391,92.9024896
552.4611206,56.59357055,97.93009778
553.5578263,61.14674327,101.9067293
554.6543334,65.29649968,104.4061049
555.7506418,69.07954299,105.3944306
556.8467516,72.70481265,105.4066073
557.942663,76.57480659,105.4413369
559.0383758,81.25636085,106.5994418
560.1338902,87.39991508,109.7175963
561.2292062,95.61633795,115.2369372
562.3243239,106.3344799,123.3165486
563.4192432,119.6786044,134.0011664
564.5139644,135.4057076,147.2837068
565.6084873,152.9218927,163.0674054
566.7028121,171.3658606,181.0734407
567.7969388,189.7273993,200.6919775
568.8908675,206.9717931,220.8408997
569.9845981,222.1579463,240.0118392
571.0781308,234.5470384,256.6286291
572.1714656,243.6863843,269.5886721
573.2646026,249.4353764,278.6315173
574.3575417,251.9117774,284.2474223
575.4502831,251.3806569,287.1823487
576.5428267,248.1420503,287.9060901
577.6351727,242.4649006,286.4039526
578.7273211,234.5810807,282.3570134
579.8192719,224.7250492,275.4945244
580.9110251,213.1898777,265.847223
582.0025809,200.3683813,253.7706267
583.0939393,186.7606983,239.8046636
584.1851003,172.9470959,224.5267575
585.276064,159.5324153,208.4982387
586.3668304,147.0687649,192.3137769
587.4573995,135.9701307,176.6901086
588.5477715,126.4448882,162.4638588
589.6379463,118.4719097,150.406121
590.727924,111.8280092,140.9368115
591.8177047,106.15154,133.9216561
592.9072884,101.0159438,128.6464935
593.9966751,95.99671654,123.9760014
595.085865,90.73120036,118.6965809
596.1748579,84.97168589,111.9844713
597.2636541,78.62045213,103.7984234
598.3522535,71.72827165,94.91381308
599.4406563,64.44776094,86.47465499
600.5288623,56.96632285,79.29766119
601.6168717,49.45623436,73.38889732
602.7046846,42.0679634,67.99308858
603.7923009,34.96300845,62.10643176
604.8797208,28.36342538,55.09279653
605.9669443,22.59040907,47.07474855
607.0539713,18.06615237,38.98204205
608.1408021,15.26498304,32.2957296
609.2274365,14.62601033,28.62052129
610.3138748,16.46333694,29.27882918
611.4001168,20.90733095,35.05731584
612.4861627,27.88599585,46.08721707
613.5720125,37.13538068,61.79615125
614.6576662,48.22352565,80.94913059
615.743124,60.57854404,101.8209553
616.8283858,73.52277316,122.4827638
617.9134517,86.32236986,141.1573548
618.9983217,98.25697742,156.5898149
620.082996,108.7001603,168.3155285
621.1674744,117.1873322,176.6607015
622.2517572,123.4450541,182.4300745
623.3358443,127.3705156,186.4484904
624.4197358,128.9753392,189.1857193
625.5034317,128.3277002,190.5926192
626.586932,125.5296177,190.1834476
627.6702369,120.7362043,187.3374767
628.7533464,114.1966299,181.6906919
629.8362605,106.2829134,173.4106258
630.9189792,97.48145685,163.221714
632.0015027,88.33610933,152.2056493
633.0838309,79.35031091,141.4679159
634.1659639,70.88421076,131.7820851
635.2479018,63.09951544,123.3853763
636.3296446,55.98076649,116.0534307
637.4111923,49.41001138,109.3704146
638.492545,43.24212167,102.986606
639.5737027,37.35064618,96.76183868
640.6546656,31.6483429,90.80952332
641.7354335,26.09518223,85.42353089
642.8160067,20.70388231,80.87413315
643.8963851,15.54939354,77.1987637
644.9765687,10.78497834,74.16555142
646.0565577,6.652918343,71.4424173
647.136352,3.466462568,68.84146986
648.2159518,1.550513999,66.48991755
649.295357,1.15572277,64.85662247
650.3745677,2.380189363,64.59797298
651.453584,5.131993818,66.2300354
652.5324059,9.147899835,69.80136435
653.6110335,14.05807951,74.82679428
654.6894667,19.46616357,80.53435663
655.7677057,25.00908359,86.21005402
656.8457504,30.37396568,91.40207245
657.923601,35.27457605,95.89068029
659.0012575,39.41638887,99.47313146
660.07872,42.4898337,101.7653341
661.1559884,44.21040861,102.2592283
662.2330628,44.38267793,100.6208671
663.3099433,42.95121036,96.95610766
664.3866299,40.01903087,91.8448933
665.4631227,35.84696286,86.15335956
666.5394216,30.84221523,80.72266371
667.6155269,25.5305011,76.07266323
668.6914384,20.51296631,72.28694321
669.7671563,16.41798262,69.17224509
670.8426806,13.85561958,66.62363899
671.9180114,13.37034449,64.98017573
672.9931486,15.38648527,65.10937648
674.0680924,20.15448023,68.09842363
675.1428427,27.71540624,74.70879416
676.2173997,37.89570765,84.9287144
677.2917633,50.33428816,97.89341656
678.3659337,64.53863867,112.2147553
679.4399109,79.95912146,126.5170296
680.5136948,96.05956077,139.8837599
681.5872856,112.3588409,152.0291387
682.6606834,128.4279363,163.1508127
683.7338881,143.8451347,173.5145604
684.8068997,158.1340187,182.9791354
685.8797185,170.7238643,190.8110361
686.9523443,180.964133,195.9698615
688.0247773,188.1944454,197.6358156
689.0970174,191.8457811,195.5565964
690.1690648,191.5395014,189.9866015
691.2409195,187.1673482,181.3602741
692.3125815,178.9408899,170.0708812
693.3840508,167.3951116,156.5502234
694.4553276,153.3277895,141.4453729
695.5264119,137.6798669,125.6203654
696.5973036,121.3918161,109.9842713
697.6680029,105.2811555,95.27682802
698.7385099,89.97293244,81.89775587
699.8088244,75.89316335,69.88739772
700.8789467,63.31127821,59.12370682
701.9488767,52.3989897,49.59004929
703.0186145,43.27480625,41.46721941
704.0881601,36.02537068,34.97863987
705.1575136,30.71195777,30.16153817
706.226675,27.36754454,26.801482
707.2956444,25.98226988,24.60740143
708.3644218,26.47591899,23.46448331
709.4330073,28.66185953,23.53931905
710.5014009,32.21666066,25.19202942
711.5696026,36.67832575,28.7886271
712.6376126,41.48949988,34.45327998
713.7054308,46.08091715,41.79964869
714.7730573,49.97471008,49.8139696
715.8404921,52.88683931,57.08035247
716.9077353,54.80789029,62.34458937
717.974787,56.0305774,65.12437735
719.0416471,57.09294245,65.92052948
720.1083157,58.64383363,65.85633704
721.1747929,61.28868289,66.07482886
722.2410788,65.47753406,67.33640518
723.3071733,71.46053049,69.95912649
724.3730765,79.29867972,74.01014547
725.4387884,88.90174304,79.56234905
726.5043092,100.0680931,86.77561212
727.5696387,112.5146181,95.70050057
728.6347772,125.8964226,106.0009788
729.6997246,139.8226716,116.9063917
730.764481,153.8772158,127.4985273
731.8290465,167.6474223,137.1533635
732.893421,180.7532766,145.8278801
733.9576046,192.8603313,153.9680264
735.0215973,203.6664285,162.075626
736.0853993,212.8739379,170.2262811
737.1490106,220.174575,177.8320548
738.2124311,225.2658702,183.7520512
739.275661,227.8990125,186.7166536
740.3387003,227.9421362,185.9148643
741.401549,225.4321381,181.4288315
742.4642072,220.5881367,174.2133205
743.5266749,213.7821058,165.6128837
744.5889522,205.4934033,156.7334837
745.6510392,196.2781496,148.0728253
746.7129358,186.7544306,139.5903963
747.7746421,177.5784466,131.0672594
748.8361581,169.39357,122.4811151
749.897484,162.7565645,114.1981274
750.9586197,158.0596344,106.8847865
752.0195653,155.4706559,101.1797692
753.0803208,154.9060825,97.32563757
754.1408863,156.0371973,95.006607
755.2012619,158.3246177,93.50915918
756.2614475,161.0757716,92.09213192
757.3214432,163.5163832,90.2882577
758.3812492,164.8661766,87.90931509
759.4408653,164.4161324,84.7966095
760.5002916,161.6087781,80.62388993
761.5595283,156.114354,75.00443633
762.6185753,147.8814692,67.80962657
763.6774327,137.1504717,59.38739652
764.7361006,124.4193238,50.48365588
765.7945789,110.364086,41.93156263
766.8528678,95.73157269,34.34080915
767.9109672,81.23789283,27.96839979
768.9688772,67.50349955,22.76552405
770.0265979,55.03204904,18.5058509
771.0841294,44.21475967,14.9615988
772.1414715,35.33351356,12.11383666
773.1986245,28.54941814,10.26907512
774.2555883,23.88210113,9.902685011
775.312363,21.19556787,11.27171443
776.3689486,20.20844948,14.13659635
777.4253452,20.53430995,17.87588843
778.4815529,21.73620305,21.88414141
779.5375716,23.37496334,25.8853428
780.5934014,25.0431371,29.9427775
781.6490423,26.38937307,34.2707665
782.7044945,27.14008341,39.0628652
783.7597579,27.11981616,44.39550979
784.8148327,26.26602895,50.16240988
785.8697187,24.63096688,56.06243864
786.9244161,22.36555507,61.68760351
787.978925,19.69004409,66.67847219
789.0332454,16.86569208,70.87594357
790.0873772,14.16168629,74.4159234
791.1413206,11.81139908,77.72461166
792.1950757,9.962801865,81.38314374
793.2486423,8.645956024,85.88035552
794.3020207,7.780752994,91.37435374
795.3552108,7.227923224,97.63163021
796.4082127,6.863089708,104.1952319
797.4610265,6.642807673,110.6484276
798.5136521,6.64310621,116.7773776
799.5660896,7.072319585,122.5756183
800.6183391,8.26809003,128.2370907
801.6704006,10.67513831,134.2609398
802.7222742,14.78482058,141.5273831
803.7739599,21.02663857,151.0849293
804.8254577,29.63479576,163.6403593
805.8767677,40.53538499,179.091995
806.9278899,53.29336271,196.4469161
807.9788245,67.13291249,214.0914249
809.0295713,81.02751111,230.1441526
810.0801305,93.84919543,242.7676362
811.1305021,104.5520102,250.4922424
812.1806862,112.347045,252.556226
813.2306828,116.825913,249.1644468
814.2804919,118.0044065,241.5686919
815.3301136,116.2764053,231.8822539
816.379548,112.2886488,222.5325812
817.428795,106.7692323,215.4190759
818.4778548,100.3628175,211.1635424
819.5267273,93.52463825,208.9204544
820.5754126,86.50012425,206.8827126
821.6239108,79.38633889,203.1956438
822.6722219,72.24165398,196.7915233
823.720346,65.19146558,187.7476849
824.768283,58.48320051,177.0791522
825.8160331,52.46953781,166.1929918
826.8635963,47.52683287,156.3439109
827.9109725,43.93306099,148.314453
828.958162,41.74468685,142.3312903
830.0051647,40.71707229,138.0908711
831.0519806,40.30567257,134.7841524
832.0986098,39.75937108,131.1206576
833.1450524,38.28704589,125.475678
834.1913083,35.25870329,116.3137554
835.2373777,30.38897715,102.830013
836.2832606,23.84283832,85.46149627
837.328957,16.22823782,65.95040893
838.3744669,8.47964606,46.94785667
839.4197905,1.666130881,31.32224658
840.4649277,-3.229747165,21.32425823
841.5098787,-5.509883682,17.83333365
842.5546433,-4.88341901,20.04409107
843.5992218,-1.480230709,25.82610664
844.6436141,4.24446588,32.6147791
845.6878203,11.67779719,38.39716788
846.7318404,20.22707945,42.3088562
847.7756744,29.44485601,44.58266961
848.8193225,39.07127113,46.01811202
849.8627846,49.00741926,47.41389992
850.9060608,59.24894005,49.26729235
851.9491512,69.79812009,51.73648506
852.9920557,80.57081738,54.7258281
854.0347745,91.33396344,57.98394797
855.0773075,101.7070269,61.1509376
856.1196549,111.2298611,63.76172472
857.1618166,119.4662402,65.31685991
858.2037927,126.1027999,65.50792483
859.2455833,131.0129571,64.4913337
860.2871883,134.2736168,62.96915553
861.3286079,136.1429926,61.95933363
862.3698421,137.0233398,62.40686121
863.4108909,137.4179505,64.88840365
864.4517544,137.8734465,69.51718676
865.4924326,138.9047545,75.99623293
866.5329255,140.9241379,83.75595685
867.5732333,144.2009595,92.14988212
868.6133559,148.8560033,100.6476188
869.6532933,154.8719773,108.940271
870.6930457,162.1037537,116.9539149
871.7326131,170.2891308,124.8364039
872.7719955,179.0703158,132.937708
873.811193,188.0291532,141.7272134
874.8502055,196.7273356,151.6069558
875.8890333,204.7400712,162.7033169
876.9276762,211.679528,174.8114728
877.9661343,217.2151417,187.5541678
879.0044077,221.0997968,200.5957935
880.0424965,223.2004338,213.7192773
881.0804006,223.5199712,226.7398595
882.1181201,222.1970069,239.3655937
883.1556551,219.4811934,251.1321583
884.1930056,215.6934307,261.4463021
885.2301717,211.1807431,269.6434905
886.2671533,206.2735148,275.0142656
887.3039505,201.2539716,276.9288344
888.3405634,196.3372523,275.1173715
889.3769921,191.6529097,269.869447
890.4132365,187.2190349,261.8840502
891.4492967,182.9219087,251.8529059
892.4851727,178.5217632,240.1350434
893.5208646,173.6873406,226.7376067
894.5563725,168.0411268,211.5175407
895.5916964,161.2015525,194.4386609
896.6268362,152.8288525,175.7674104
897.6617922,142.6828936,156.0936345
898.6965642,130.6829988,136.1545719
899.7311524,116.9549303,116.6267066
900.7655568,101.8539986,98.06726175
901.7997774,85.95671222,80.99253082
902.8338143,70.01866737,65.94312117
903.8676675,54.90889635,53.46795039
904.9013371,41.53181889,44.07215251
905.9348231,30.73470427,38.13605241
906.9681256,23.20002953,35.814649
908.0012446,19.34279616,37.02059152
909.0341801,19.23949024,41.48999368
910.0669322,22.6037135,48.79159056
911.0995009,28.82008628,58.3101214
912.1318863,37.0425232,69.36977329
913.1640883,46.33158765,81.42888606
914.1961072,55.77845776,94.09383471
915.2279429,64.58022164,106.9083629
916.2595954,72.07118589,119.1399176
917.2910647,77.73297896,129.7744933
918.3223511,81.19850757,137.7496086
919.3534543,82.25411182,142.2858438
920.3843747,80.83917105,143.1059256
921.415112,77.0440293,140.4068344
922.4456665,71.10091515,134.6281491
923.4760381,63.36143523,126.2115925
924.5062269,54.27187581,115.5443819
925.5362329,44.35594195,103.0925664
926.5660562,34.19968487,89.56607361
927.5956968,24.42378572,76.00176483
928.6251548,15.6361103,63.72487824
929.6544302,8.367882325,54.10596315
930.683523,3.009014691,48.12529103
931.7124333,-0.228946819,46.04304845
932.7411612,-1.303737963,47.4698291
933.7697066,-0.304045584,51.71804469
934.7980697,2.583740212,58.09590787
935.8262504,7.089651,66.01843595
936.8542488,12.86459275,75.00840125
937.8820649,19.48911013,84.66752485
938.9096989,26.49573065,94.68044365
939.9371506,33.40620442,104.8625329
940.9644203,39.77418496,115.1558075
941.9915079,45.21796766,125.4593048
943.0184134,49.4365615,135.3421188
944.0451369,52.21798867,143.8705967
945.0716785,53.44934045,149.7576124
946.0980382,53.12887581,151.8243759
947.124216,51.37146649,149.5335979
948.1502119,48.39395758,143.2858355
949.1760261,44.48187039,134.3322021
950.2016586,39.94299334,124.359939
951.2271093,35.06237479,114.9043983
952.2523784,30.08053158,106.8351714
953.2774659,25.2133487,100.2278799
954.3023718,20.70710594,94.74599602
955.3270962,16.88837713,90.26624554
956.3516391,14.15927559,87.24894275
957.3760006,12.91807477,86.53586114
958.4001806,13.43523631,88.74910679
959.4241793,15.74983137,93.83076877
960.4479967,19.63998621,101.0766165
961.4716329,24.67403631,109.4910874
962.4950878,30.31388817,118.126575
963.5183615,36.03531745,126.3411004
964.541454,41.42991594,134.0023943
965.5643655,46.25547949,141.4500212
966.5870959,50.42221738,149.039756
967.6096453,53.93817356,156.5338582
968.6320137,56.85626804,162.8927019
969.6542011,59.24633036,166.6997848
970.6762077,61.18207689,166.8921821
971.6980335,62.71930232,163.2746842
972.7196784,63.85366261,156.5249023
973.7411426,64.48028849,147.7439992
974.762426,64.38922874,137.8384838
975.7835288,63.31950422,127.0975677
976.804451,61.06207434,115.2732195
977.8251925,57.56954606,102.1762748
978.8457535,53.01789452,88.33378523
979.866134,47.77710495,75.09263856
980.886334,42.29779432,64.03288417
981.9063536,36.9760877,56.21002362
982.9261929,32.07322398,51.84158593
983.9458517,27.72272163,50.5511885
984.9653303,23.99668447,51.79253748
985.9846287,20.97701981,55.07325672
987.0037468,18.79880973,59.99172289
988.0226847,17.66105299,66.31498098
989.0414426,17.80136206,74.03324
990.0600203,19.43251899,83.09671735
991.078418,22.66403019,92.92608535
992.0966357,27.44806151,102.2171933
993.1146734,33.57334468,109.3194512
994.1325312,40.7051668,112.9060849
995.1502092,48.45223478,112.4681106
996.1677073,56.43557426,108.4013859
997.1850256,64.3426251,101.7526948
998.2021641,71.96104615,93.83120409
999.219123,79.1920428,85.8906808
1000.235902,86.04605507,78.98785657
1001.252502,92.6255243,73.95927939
1002.268922,99.09656086,71.36879497
1003.285162,105.6504567,71.38367554
1004.301223,112.4639376,73.73033487
1005.317105,119.6807502,77.88406918
1006.332807,127.4223263,83.4119237
1007.348329,135.8080632,90.22002625
1008.363673,144.9552602,98.55267735
1009.378837,154.9399773,108.7709807
1010.393822,165.7232219,121.0384566
1011.408627,177.0753513,135.079716
1012.423254,188.5430069,150.1015538
1013.437701,199.4847408,164.83756
1014.45197,209.174893,177.7491952
1015.466059,216.9492443,187.4859961
1016.479969,222.3404896,193.4209368
1017.4937,225.1547694,195.8462027
1018.507253,225.4756283,195.7068611
1019.520626,223.6055833,194.1436446
1020.533821,219.9582736,192.1246242
1021.546837,214.9262077,190.2551686
1022.559674,208.7676519,188.7265193
1023.572333,201.5525625,187.2970676
1024.584812,193.1824271,185.2543229
1025.597114,183.4710207,181.47206
1026.609236,172.251058,174.7067369
1027.62118,159.4699713,164.0915047
1028.632946,145.2593839,149.6115506
1029.644533,129.9716274,132.293864
1030.655942,114.1648403,113.9215685
1031.667172,98.52088164,96.34955947
1032.678224,83.7185108,80.79835235
1033.689098,70.3090171,67.53379489
1034.699793,58.64020681,56.08128553
1035.710311,48.85283176,45.77500529
1036.72065,40.93871955,36.24995896
1037.730811,34.82525547,27.64612755
1038.740794,30.44988505,20.5879717
1039.750599,27.79522465,16.00153726
1040.760225,26.87145443,14.71619431
1041.769674,27.66989888,16.98779454
1042.778945,30.13616273,22.29219313
1043.788039,34.18560982,29.53140468
1044.796954,39.74278944,37.45673235
1045.805692,46.77951561,45.06575288
1046.814251,55.33752007,51.81946376
1047.822633,65.52210025,57.59280419
1048.830838,77.45946495,62.47216156
1049.838865,91.23297749,66.68479841
1050.846714,106.8308426,70.74491627
1051.854386,124.1352267,75.57099501
1052.86188,142.9607562,82.340067
1053.869197,163.1206216,92.13076386
1054.876336,184.4856231,105.6079916
1055.883298,207.0109935,122.9744758
1056.890082,230.7275383,144.2247878
1057.89669,255.6977167,169.5262699
1058.90312,281.9348578,199.4355668
1059.909373,309.290951,234.7242939
1060.915448,337.3467227,275.8843141
1061.921347,365.3581987,322.673422
1062.927068,392.2923197,373.97022
1063.932613,416.9391186,427.8669977
1064.93798,438.0639646,481.834719
1065.943171,454.5680627,532.9860828
1066.948184,465.6317292,578.5105434
1067.953021,470.8106514,616.1409134
1068.957681,470.060738,644.4063895
1069.962164,463.6914451,662.5876252
1070.96647,452.2715963,670.5001678
1071.9706,436.5227135,668.3350993
1072.974553,417.2305261,656.6820232
1073.978329,395.192547,636.6008254
1074.981929,371.2104473,609.5253681
1075.985352,346.1216537,577.0081238
1076.988598,320.8419436,540.5605381
1077.991668,296.3840357,501.8012938
1078.994562,273.8290267,462.7771643
1079.99728,254.2408431,426.0150651
1080.99982,238.5342662,394.0475336
1082.002185,227.335541,368.6992523
1083.004374,220.8866862,350.6515913
1084.006386,219.02906,339.5155626
1085.008222,221.2680398,334.2679344
1086.009882,226.8840468,333.70044
1087.011365,235.0395314,336.5689083
1088.012673,244.8464537,341.4460679
1089.013805,255.3865274,346.5991147
1090.01476,265.7036327,350.1843263
1091.01554,274.8043298,350.7166992
1092.016144,281.6926028,347.4940616
1093.016572,285.437819,340.6986621
1094.016824,285.2574606,331.1213203
1095.016901,280.5963458,319.6299752
1096.016801,271.1905218,306.6187235
1097.016526,257.1089641,291.6976134
1098.016076,238.7734213,273.8204853
1099.015449,216.956265,251.906119
1100.014648,192.7422541,225.7031939
1101.01367,167.4257703,196.3755714
1102.012517,142.3434942,166.4024255
1103.011189,118.6853104,138.805161
1104.009685,97.3456677,116.0571527
1105.008006,78.86752084,99.20179661
1106.006152,63.49685389,87.66502695
1107.004122,51.31474869,79.85245238
1108.001917,42.37522612,74.08810445
1108.999537,36.7819085,69.28255143
1109.996982,34.67951897,65.02203016
1110.994251,36.18144324,61.24241326
1111.991346,41.27611937,57.93385626
1112.988265,49.75529029,55.19134208
1113.98501,61.19459953,53.50374628
1114.981579,74.99372495,53.9007322
1115.977974,90.45989931,57.74043992
1116.974193,106.9094423,66.2845803
1117.970238,123.7628384,80.34590996
1118.966108,140.6117728,100.1788599
1119.961804,157.2479808,125.6309569
1120.957324,173.65951,156.4296483
1121.95267,190.0015974,192.4081778
1122.947841,206.5396182,233.5382684
1123.942838,223.5622623,279.716402
1124.93766,241.2731223,330.3629264
1125.932308,259.691448,384.0870678
1126.926781,278.5956995,438.6675341
1127.921079,297.5251773,491.3372548
1128.915204,315.8346742,539.202802
1129.909154,332.7848647,579.6562983
1130.902929,347.6424315,610.6735643
1131.896531,359.7640289,630.9598293
1132.889958,368.647257,639.9813806
1133.883211,373.9408024,637.8820304
1134.876289,375.4196662,625.2655984
1135.869194,372.9529735,602.9729055
1136.861924,366.4975042,572.0379904
1137.854481,356.1231883,533.7812279
1138.846864,342.0461794,489.8334186
1139.839072,324.6434019,442.0781522
1140.831107,304.4365163,392.6897114
1141.822968,282.038848,344.2367968
1142.814655,258.067351,299.5202926
1143.806168,233.0499481,260.9501884
1144.797507,207.3824069,229.7888267
1145.788673,181.3717643,205.8838578
1146.779665,155.3481773,188.1276406
1147.770483,129.7718679,175.1675046
1148.761128,105.2684823,165.7564313
1149.751599,82.58756308,158.7309728
1150.741897,62.52790899,153.0520294
1151.732021,45.86156963,148.1169316
1152.721972,33.25487551,144.087906
1153.71175,25.1792114,141.8723241
1154.701354,21.82324742,142.7000812
1155.690785,23.03299614,147.5661839
1156.680042,28.29980194,156.8214491
1157.669126,36.79833917,170.0112999
1158.658037,47.46827174,185.935079
1159.646775,59.13655911,202.8915332
1160.63534,70.66866904,219.063844
1161.623732,81.11388007,232.9307026
1162.611951,89.80365602,243.5912439
1163.599996,96.38037698,250.9500885
1164.587869,100.7573056,255.6892337
1165.575569,103.0333511,258.9241224
1166.563096,103.4063097,261.5959892
1167.55045,102.1325206,263.9469588
1168.537632,99.55435651,265.4942773
1169.52464,96.16549273,265.5394526
1170.511476,92.64619913,263.7551103
1171.498139,89.81511545,260.3432292
1172.48463,88.50849933,255.7504407
1173.470948,89.44691057,250.4236447
1174.457093,93.14055892,244.9702487
1175.443066,99.83406991,240.4713236
1176.428867,109.4669094,238.396796
1177.414495,121.6467389,239.9641213
1178.399951,135.658607,245.3420287
1179.385234,150.5351309,253.3066753
1180.370345,165.1937555,261.7300424
1181.355283,178.6084749,268.664609
1182.34005,189.9499788,273.2221218
1183.324644,198.6429423,275.6008173
1184.309066,204.3433604,276.3691712
1185.293316,206.8804472,275.6729164
1186.277394,206.2081792,272.9773508
1187.2613,202.3826678,267.4727326
1188.245034,195.5538376,258.7536833
1189.228596,185.9538123,247.1860299
1190.211986,173.8790763,233.6814735
1191.195204,159.6807157,219.1399854
1192.17825,143.7721425,204.0051889
1193.161125,126.6492658,188.1375488
1194.143827,108.9050092,170.9919799
1195.126358,91.23575211,152.0369287
1196.108718,74.44118686,131.2810669
1197.090905,59.40831584,109.6436927
1198.072921,47.05837928,88.88332702
1199.054766,38.24572961,71.03340523
1200.036439,33.62981667,57.65964147
1201.01794,33.56501506,49.3929981
1201.99927,38.04708244,45.97762636
1202.980429,46.72968293,46.76134936
1203.961416,58.9928101,51.31928046
1204.942232,74.01821043,59.75180087
1205.922877,90.83275495,72.33166805
1206.90335,108.3283871,88.69122453
1207.883652,125.3107696,107.2403583
1208.863783,140.616342,125.4462147
1209.843743,153.2763643,140.922331
1210.823532,162.6521461,152.5328177
1211.80315,168.4704446,160.6390944
1212.782596,170.7575684,166.3511658
1213.761872,169.7439979,170.4790916
1214.740977,165.8129748,172.9696941
1215.719911,159.503127,173.0348802
1216.698674,151.5269615,169.6953812
1217.677266,142.7652164,162.4147104
1218.655688,134.231626,151.6118015
1219.633938,127.0090504,138.8598339
1220.612018,122.1492006,126.5732427
1221.589928,120.532545,117.1877832
1222.567667,122.7179812,112.2277476
1223.545235,128.8352094,111.8234439
1224.522632,138.5548426,114.9424213
1225.499859,151.1356708,120.1165785
1226.476916,165.5278655,126.1906153
1227.453802,180.5066606,132.6680791
1228.430518,194.8162434,139.5078145
1229.407064,207.3143826,146.5977292
1230.383439,217.1114955,153.3442551
1231.359644,223.6864842,158.7080705
1232.335678,226.9483831,161.6959
1233.311543,227.2117931,161.9764715
1234.287237,225.0734345,160.158058
1235.262761,221.2190079,157.5200088
1236.238115,216.2304075,155.4181643
1237.2133,210.4637873,154.7319631
1238.188314,204.0270435,155.5495233
1239.163158,196.8419659,157.1481093
1240.137832,188.7583575,158.3015364
1241.112336,179.6854403,157.8417453
1242.086671,169.7057791,155.2326567
1243.060836,159.1375352,150.849184
1244.034831,148.5193426,145.7607267
1245.008656,138.5175361,141.0919751
1245.982311,129.7900969,137.3647257
1246.955797,122.8604763,134.3072001
1247.929113,118.0446894,131.2761513
1248.90226,115.4436465,127.9518058
1249.875237,114.977018,124.7465078
1250.848045,116.4242265,122.5950545
1251.820683,119.4640027,122.3387255
1252.793152,123.7267142,124.2492727
1253.765451,128.8552098,127.9861638
1254.737582,134.5415294,132.8463536
1255.709542,140.5177501,138.071684
1256.681334,146.5143552,143.0944804
1257.652956,152.2143602,147.6419676
1258.624409,157.2231124,151.6550441
1259.595693,161.0634026,155.0733774
1260.566808,163.198728,157.5701413
1261.537754,163.0855667,158.3454682
1262.508531,160.2568782,156.215896
1263.479139,154.4261652,150.160793
1264.449577,145.5761656,140.0442152
1265.419847,133.991908,126.9573039
1266.389948,120.223267,112.9024038
1267.359881,104.9903359,100.0022454
1268.329644,89.06520818,89.65526378
1269.299239,73.1704128,82.06192692
1270.268665,57.92515562,76.37369
1271.237922,43.84631956,71.35080858
1272.207011,31.3749578,66.07020346
1273.175931,20.88592264,60.27486766
1274.144682,12.66720278,54.36005833
1275.113265,6.889886321,49.22658706
1276.08168,3.584205295,46.05629606
1277.049926,2.611566137,45.88834183
1278.018003,3.627929653,49.0580704
1278.985912,6.069737717,54.8378289
1279.953653,9.207959085,61.58321518
1280.921226,12.28066636,67.35625226
1281.88863,14.66218138,70.66758724
1282.855866,16.00445451,70.90189959
1283.822934,16.30072049,68.24665333
1284.789834,15.86416896,63.37811763
1285.756566,15.24863138,57.32172563
1286.723129,15.13233249,51.52375551
1287.689525,16.16936281,47.76578182
1288.655752,18.83324557,47.73120232
1289.621812,23.30184553,52.44847874
1290.587704,29.41850308,61.90042295
1291.553428,36.73670245,74.94282601
1292.518984,44.63663398,89.60130181
1293.484372,52.48335246,103.686944
1294.449592,59.77943682,115.4809154
1295.414645,66.26568647,124.266468
1296.37953,71.94217765,130.6468526
1297.344247,76.99917703,136.5062519
1298.308797,81.67117464,144.3725599
1299.27318,86.06611401,156.2937534
1300.237394,90.04745656,172.8250522
1301.201441,93.22677516,192.7094627
1302.165321,95.07121552,213.3579317
1303.129034,95.08214501,231.8112619
1304.092578,92.97889045,245.7471294
1305.055956,88.82120634,254.1305004
1306.019166,83.02335505,257.2323072
1306.982209,76.25232394,256.1046248
1307.945085,69.25593544,251.9841068
1308.907794,62.69048503,245.9880615
1309.870335,56.99466478,239.0123108
1310.83271,52.32484075,231.6362444
1311.794917,48.55722017,224.0893252
1312.756957,45.34932274,216.3438204
1313.718831,42.23852406,208.2159483
1314.680537,38.75824536,199.4176405
1315.642076,34.5626943,189.6563992
1316.603449,29.5357915,178.8019472
1317.564654,23.84804504,167.0064255
1318.525693,17.93781047,154.7011873
1319.486565,12.41459889,142.4485599
1320.447271,7.909085995,130.6804918
1321.407809,4.926097372,119.5409103
1322.368181,3.756620284,109.0618399
1323.328387,4.457921494,99.48088206
1324.288426,6.868927517,91.22591156
1325.248298,10.63928176,84.49345983
1326.208004,15.28650497,78.89770269
1327.167543,20.29613634,73.61367804
1328.126916,25.24122729,67.91447189
1329.086122,29.87123309,61.66402764
1330.045162,34.13618303,55.4588558
1331.004036,38.14788735,50.38766121
1331.962744,42.10436765,47.51009069
1332.921285,46.21141865,47.3137996
1333.87966,50.6299959,49.54194649
1334.837869,55.45955251,53.5292486
1335.795912,60.74523121,58.75471285
1336.753788,66.48772373,65.20467918
1337.711499,72.63380879,73.29593576
1338.669043,79.039946,83.33574409
1339.626422,85.42447335,94.81281087
1340.583635,91.34938357,106.0707157
1341.540682,96.27055514,114.756458
1342.497562,99.65365887,118.8596459
1343.454278,101.1029871,117.6951557
1344.410827,100.4369631,112.2369403
1345.36721,97.67980247,104.601863
1346.323428,92.99139318,96.93010279
1347.279481,86.59845167,90.31312756
1348.235367,78.78474523,84.47977173
1349.191088,69.94423567,78.40174882
1350.146643,60.64517855,71.27963904
1351.102033,51.64394764,63.21993967
1352.057258,43.82073004,55.2815388
1353.012316,38.04849573,48.95415408
1353.96721,35.03463299,45.36650261
1354.921938,35.19510225,44.69529773
1355.876501,38.61744341,46.18189195
1356.830898,45.12010042,48.7077258
1357.785131,54.35704198,51.4672504
1358.739198,65.90562029,54.3396892
1359.693099,79.30593058,57.8178403
1360.646836,94.05554929,62.51335852
1361.600408,109.5938097,68.50437388
1362.553814,125.3192275,75.03704301
1363.507055,140.6548405,80.90511049
1364.460132,155.1331524,85.25835639
1365.413043,168.4564535,88.22027991
1366.36579,180.5099004,90.87578058
1367.318371,191.342109,94.68264797
1368.270788,201.1521331,100.7334717
1369.22304,210.312001,109.3300534
1370.175127,219.4231102,120.1023924
1371.12705,229.3661194,132.5854445
1372.078808,241.2862771,146.8903938
1373.030401,256.4796382,164.0713451
1373.981829,276.1955609,186.0605133
1374.933093,301.4059761,215.2582425
1375.884192,332.592549,253.8151371
1376.835127,369.5929615,302.7379348
1377.785897,411.5466275,361.2750677
1378.736503,456.9627961,426.9880657
1379.686945,503.8859791,496.3926527
1380.637222,550.1000008,565.7225915
1381.587335,593.3263244,631.4799945
1382.537283,631.4024361,690.6668186
1383.487067,662.435368,740.7824816
1384.436687,684.9190574,779.7807068
1385.386143,697.8019669,806.1317886
1386.335435,700.5043069,819.0278298
1387.284562,692.9020307,818.6463209
1388.233526,675.2931987,806.2003845
1389.182325,648.3484766,783.4992377
1390.130961,613.0530374,752.1638953
1391.079432,570.6642274,713.0856366
1392.02774,522.6989848,666.5901837
1392.975883,470.9251384,613.1885938
1393.923863,417.3043945,554.3439509
1394.871679,363.8546456,492.7103959
1395.819332,312.4519882,431.7359999
1396.76682,264.6342848,374.9455736
1397.714145,221.4631541,325.2273165
1398.661306,183.4636145,284.2275456
1399.608304,150.6357122,251.9811579
1400.555137,122.5405811,227.0154585
1401.501808,98.46019604,206.925891
1402.448315,77.6082311,189.0963031
1403.394658,59.35493524,171.2901635
1404.340838,43.42847965,152.078113
1405.286855,30.05132486,131.1367078
1406.232708,19.96855348,109.3849985
1407.178397,14.34853901,88.8752645
1408.123924,14.58000299,72.41443112
1409.069287,22.02090451,63.02312475
1410.014487,37.75480263,63.35819004
1410.959524,62.39597793,75.13899675
1411.904398,95.9786794,98.66890416
1412.849108,137.9570294,132.7050808
1413.793656,187.3085735,174.8696153
1414.73804,242.6940796,222.4806379
1415.682262,302.61205,273.4470291
1416.62632,365.5000489,326.8552042
1417.570216,429.7615926,382.9811507
1418.513949,493.7311931,442.6652721
1419.457519,555.6237125,506.2969659
1420.400926,613.5268404,572.9263545
1421.34417,665.4717241,640.0081596
1422.287251,709.5711749,703.8901868
1423.23017,744.1857504,760.6687792
1424.172926,768.0742193,806.9000061
1425.11552,780.5037114,839.9595665
1426.057951,781.3112436,858.1897053
1427.000219,770.9124505,861.0303404
1427.942325,750.2525366,849.1647384
1428.884268,720.7001093,824.5202865
1429.826049,683.8995584,789.9347823
1430.767667,641.6137733,748.511097
1431.709123,595.591121,702.9510751
1432.650417,547.4729683,655.1770897
1433.591549,498.7331179,606.2887193
1434.532518,450.6293858,556.6797651
1435.473325,404.1625806,506.2250442
1436.413969,360.0637614,454.6725996
1437.354452,318.8282564,402.3112962
1438.294772,280.7743577,350.554399
1439.234931,246.0755565,301.8423936
1440.174927,214.7451675,258.7044779
1441.114761,186.6137969,222.5525198
1442.054434,161.3586626,193.0377601
1442.993944,138.6125928,168.3975934
1443.933292,118.1001299,146.5416877
1444.872479,99.72038732,126.1212199
1445.811504,83.53313922,106.8964149
1446.750367,69.67534475,89.34880889
1447.689068,58.26918816,74.03872498
1448.627607,49.36595357,61.23537721
1449.565985,42.93915884,51.01641134
1450.504201,38.91134357,43.61835672
1451.442256,37.17691487,39.57056098
1452.380149,37.59543053,39.38348252
1453.31788,39.96966112,43.10811467
1454.25545,44.03550009,50.21270027
1455.192859,49.46645359,59.8028175
1456.130106,55.88448373,70.92678209
1457.067191,62.88439359,82.82803471
1458.004115,70.08468279,95.13839558
1458.940878,77.19701013,107.9842051
1459.87748,84.07687796,121.911524
1460.81392,90.71367299,137.5203683
1461.7502,97.15860936,154.899565
1462.686317,103.4416628,173.2968762
1463.622274,109.5335447,191.4266202
1464.55807,115.3557362,208.2250698
1465.493705,120.7961455,223.3706934
1466.429178,125.6842441,237.1335503
1467.364491,129.7461555,249.799429
1468.299643,132.5953885,261.223768
1469.234633,133.793191,270.7673661
1470.169463,132.9598521,277.4859915
1471.104132,129.8901689,280.4430818
1472.03864,124.6342215,279.122093
1472.972988,117.5125541,273.7797644
1473.907174,109.0481161,265.449155
1474.8412,99.83848124,255.5271701
1475.775066,90.42977381,245.250382
1476.70877,81.24419066,235.3878454
1477.642314,72.57307609,226.2073965
1478.575698,64.62155727,217.6429205
1479.508921,57.57951122,209.5981622
1480.441983,51.67920195,202.2090947
1481.374885,47.19678698,195.8318359
1482.307627,44.38649923,190.7737253
1483.240208,43.38457783,187.0705977
1484.172629,44.13741167,184.5680952
1485.104889,46.38075739,183.254375
1486.036989,49.65916717,183.490816
1486.968929,53.36344725,185.7650013
1487.900709,56.78293708,190.0294097
1488.832329,59.19144561,195.2452636
1489.763788,59.97622888,199.6554643
1490.695087,58.77759969,201.5412975
1491.626227,55.57791004,199.8020817
1492.557206,50.69925887,194.1364734
1493.488025,44.71406662,185.0715058
1494.418685,38.30021547,173.9165842
1495.349184,32.07566197,162.4249741
1496.279523,26.46540279,152.1341449
1497.209703,21.6568382,143.7649176
1498.139723,17.6618595,137.1012924
1499.069583,14.44359727,131.4041014
1499.999283,12.04055187,126.0532168
1500.928824,10.63391661,121.034209
1501.858205,10.53007334,117.0329399
1502.787426,12.06070946,115.1137173
1503.716488,15.43659353,116.1469551
1504.64539,20.61796426,120.2957478
1505.574133,27.26259203,126.852344
1506.502716,34.77490416,134.4921284
1507.43114,42.43453892,141.7659855
1508.359404,49.55714804,147.5539489
1509.287509,55.63406438,151.2928232
1510.215454,60.40553624,152.97291
1511.14324,63.8464825,152.9836654
1512.070867,66.07838085,151.8390329
1512.998335,67.25034703,149.8311503
1513.925643,67.44399316,146.8119982
1514.852793,66.64292686,142.289299
1515.779783,64.77291269,135.7251213
1516.706614,61.78615675,126.7577639
1517.633286,57.75415294,115.2901006
1518.559799,52.94092191,101.6149145
1519.486153,47.82113109,86.59681604
1520.412348,43.01428914,71.68677959
1521.338384,39.14235501,58.64651096
1522.264261,36.66210746,49.10438721
1523.18998,35.73015339,44.0962193
1524.115539,36.13941762,43.70811555
1525.04094,37.34716584,46.96398119
1525.966182,38.59384411,52.03589929
1526.891265,39.09182576,56.722908
1527.81619,38.23932831,59.07352612
1528.740956,35.80651319,57.99232287
1529.665563,32.03929392,53.61200181
1530.590012,27.63844676,47.23326007
1531.514302,23.6065804,40.87003316
1532.438434,21.00451493,36.68065601
1533.362407,20.69071178,36.48317183
1534.286222,23.11637765,41.31587678
1535.209879,28.22743668,51.03589185
1536.133377,35.49619615,64.18686593
1537.056717,44.07002129,78.37173502
1537.979898,52.98811923,91.04584522
1538.902921,61.39595334,100.3603842
1539.825786,68.68639753,105.6700496
1540.748493,74.52329223,107.4965618
1541.671042,78.75955135,107.0104086
1542.593432,81.31339744,105.3495284
1543.515665,82.0774676,103.1410255
1544.43774,80.89812069,100.3782169
1545.359656,77.62316536,96.56358168
1546.281415,72.19635996,90.98543364
1547.203015,64.76905149,83.08847944
1548.124458,55.79410713,72.9015228
1549.045743,46.06334665,61.33033787
1549.96687,36.65165922,50.05225723
1550.887839,28.76592395,41.00240742
1551.80865,23.53520368,35.7767588
1552.729304,21.79967622,35.29141148
1553.6498,23.95702214,39.79258633
1554.570138,29.91181712,49.06464757
1555.490319,39.14094149,62.5677392
1556.410342,50.84909956,79.39865195
1557.330208,64.16534503,98.29301921
1558.249916,78.32716376,117.9284595
1559.169466,92.80578769,137.4419813
1560.08886,107.3417946,156.7660657
1561.008095,121.8840634,176.4728918
1561.927174,136.4573597,197.210328
1562.846095,151.0129979,219.1347882
1563.764859,165.3195455,241.6720118
1564.683465,178.9199078,263.5879331
1565.601914,191.1552439,283.1795643
1566.520206,201.251415,298.5385162
1567.438341,208.4666578,307.9779067
1568.356319,212.2752606,310.615312
1569.27414,212.5260322,306.8691886
1570.191803,209.5039671,298.4833359
1571.10931,203.856256,287.8855678
1572.026659,196.4057809,277.185738
1572.943852,187.9287274,267.4053695
1573.860888,178.983922,258.2709872
1574.777766,169.8509178,248.5143109
1575.694488,160.5877328,236.5148252
1576.611053,151.1747849,221.0838166
1577.527462,141.6760475,202.0643235
1578.443713,132.3386154,180.4610741
1579.359808,123.584202,158.0984808
1580.275747,115.9044853,137.0603326
1581.191528,109.7142852,119.1691839
1582.107153,105.2229211,105.5929651
1583.022622,102.3695463,96.58671871
1583.937933,100.84248,91.45749052
1584.853089,100.164092,88.83450116
1585.768088,99.78984028,87.12125805
1586.68293,99.1774849,84.88584969
1587.597616,97.82836531,81.10534478
1588.512146,95.33094232,75.33458235
1589.426519,91.41679586,67.79234949
1590.340736,86.00806923,59.26670757
1591.254797,79.23037189,50.8064255
1592.168702,71.38467846,43.31760319
1593.08245,62.89187267,37.29304487
1593.996042,54.22270323,32.77277867
1594.909478,45.82008745,29.38484909
1595.822758,38.03118226,26.38141808
1596.735882,31.07825872,22.85556943
1597.64885,25.08132316,18.23293041
1598.561662,20.11400105,12.71979233
1599.474318,16.252973,7.280056531
1600.386819,13.58897157,3.127512049
1601.299163,12.20157709,1.166120192
1602.211351,12.12766029,1.77035855
1603.123384,13.34880761,4.886504409
1604.035261,15.80218255,10.19418131
1604.946982,19.4053357,17.19527852
1605.858547,24.07869885,25.2880588
1606.769957,29.7485004,33.89778638
1607.681211,36.32405834,42.64434166
1608.592309,43.66264037,51.47566841
1609.503252,51.54418164,60.7055114
1610.414039,59.66723887,70.88770118
1611.324671,67.66359868,82.48365726
1612.235147,75.13100258,95.43403053
1613.145468,81.69239666,108.8903554
1614.055634,87.08340875,121.3268495
1614.965644,91.23942988,131.0465603
1615.875499,94.32773738,136.823957
1616.785198,96.69162935,138.3326478
1617.694743,98.72983232,136.2031302
1618.604132,100.7711588,131.7655752
1619.513366,102.9950719,126.6033978
1620.422444,105.416645,122.1039734
1621.331368,107.9197396,119.1957084
1622.240136,110.3016453,118.2819221
1623.14875,112.2998846,119.1998258
1624.057208,113.6041043,121.1469138
1624.965512,113.8832482,122.8125238
1625.87366,112.8497715,122.9201726
1626.781654,110.3472707,120.9438127
1627.689492,106.4210317,117.4871616
1628.597176,101.3319661,114.064408
1629.504705,95.49908913,112.4663184
1630.412079,89.38891593,114.0996786
1631.319299,83.39379714,119.5583156
1632.226364,77.74342342,128.4257948
1633.133274,72.47973601,139.2583461
1634.040029,67.50791548,149.8717062
1634.94663,62.70763596,158.0120948
1635.853076,58.04723514,162.1467845
1636.759368,53.62927502,161.9597382
1637.665505,49.63718522,158.3358932
1638.571488,46.21835698,152.9074066
1639.477316,43.37957467,147.452168
1640.38299,40.9572879,143.423115
1641.28851,38.66816767,141.6694289
1642.193875,36.20325406,142.2833922
1643.099086,33.32189811,144.5476935
1644.004142,29.91891866,147.0308861
1644.909045,26.06194251,147.9469629
1645.813793,22.01272624,145.8724902
1646.718387,18.24004293,140.6324423
1647.622827,15.40284669,133.8060406
1648.527112,14.26566945,128.3727541
1649.431244,15.53383163,127.5660262
1650.335222,19.64853677,133.4910795
1651.239045,26.62295,146.17109
1652.142715,36.00025527,163.5018935
1653.046231,46.96170052,182.1638437
1653.949593,58.5343765,198.9925534
1654.852801,69.80405424,212.0805526
1655.755855,80.05401177,221.1312806
1656.658755,88.79735022,227.0189991
1657.561502,95.71866106,230.9149328
1658.464095,100.5785569,233.5612991
1659.366534,103.1408442,235.0707694
1660.26882,103.155186,235.1578796
1661.170952,100.39601,233.4278483
1662.07293,94.73779936,229.4377265
1662.974755,86.2406709,222.583031
1663.876426,75.2311884,212.1313484
1664.777944,62.35958114,197.6038526
1665.679308,48.60705933,179.343233
1666.580519,35.21816139,158.9068326
1667.481576,23.55030125,138.9816679
1668.382481,14.85668794,122.750765
1669.283231,10.04037226,112.9510906
1670.183829,9.435915887,111.0136968
1671.084273,12.69058711,116.5581297
1671.984564,18.80917438,127.3599504
1672.884702,26.37746448,139.8795671
1673.784687,33.90780946,150.3326446
1674.684518,40.19623305,155.9497711
1675.584197,44.57468148,155.8165918
1676.483722,46.98693721,150.9017428
1677.383095,47.89100122,143.4063706
1678.282314,48.04097776,135.8604533
1679.181381,48.21779942,130.3138596
1680.080294,48.98218547,127.8212103
1680.979055,50.52059639,128.316394
1681.877663,52.62618248,130.8247738
1682.776118,54.8056322,133.8302186
1683.67442,56.46284462,135.6387539
1684.57257,57.10158764,134.7232472
1685.470567,56.50006652,130.1220915
1686.368411,54.81787979,121.8763114
1687.266102,52.60102814,111.2940587
1688.163641,50.66178161,100.7460138
1689.061027,49.84926928,92.88163176
1689.958261,50.7830759,89.56864224
1690.855342,53.65319407,91.14869376
1691.752271,58.16430698,96.39810943
1692.649047,63.63984847,103.0819721
1693.545671,69.24468607,108.7459734
1694.442143,74.25286722,111.48408
1695.338462,78.27552104,110.5158823
1696.234629,81.37637371,106.414212
1697.130643,84.04065072,100.9087628
1698.026505,87.01330947,96.37202431
1698.922216,91.06386093,95.17255943
1699.817773,96.74237428,99.00422507
1700.713179,104.1835063,108.3097332
1701.608433,113.0086252,122.0490877
1702.503534,122.3568047,137.9750816
1703.398484,131.0330816,153.2577662
1704.293281,137.72875,165.1671165
1705.187927,141.2643559,171.6389684
1706.08242,140.81247,171.6441306
1706.976762,136.060873,165.3240605
1707.870952,127.27948,153.8849859
1708.76499,115.2710839,139.2186658
1709.658876,101.2142752,123.2876891
1710.55261,86.45400737,107.5485505
1711.446193,72.3144921,92.78275068
1712.339624,59.97699329,79.40130851
1713.232903,50.41144091,67.84576107
1714.12603,44.33118723,58.69026385
1715.019006,42.16402095,52.48122464
1715.911831,44.04888456,49.59341895
1716.804504,49.85322439,50.18440823
1717.697025,59.1976186,54.16091133
1718.589395,71.4880478,61.15844017
1719.481613,85.96420872,70.59770038
1720.37368,101.7604854,81.79578254
1721.265595,117.9588751,94.05714124
1722.15736,133.6133078,106.7249675
1723.048973,147.7489573,119.2039431
1723.940434,159.364294,130.9162088
1724.831745,167.4680732,141.1813002
1725.722904,171.172827,149.1487171
1726.613912,169.8394536,153.9007955
1727.504768,163.2300746,154.6559374
1728.395474,151.6090582,150.9693157
1729.286029,135.7570669,142.9305634
1730.176432,116.8963827,131.2868674
1731.066685,96.54554543,117.3525534
1731.956786,76.34181582,102.7572316
1732.846737,57.86381942,89.1988442
1733.736537,42.46469197,78.20805674
1734.626185,31.1210362,70.88986395
1735.515683,24.32251934,67.79491253
1736.405031,22.03524073,69.04096955
1737.294227,23.74700251,74.48271907
1738.183272,28.57306934,83.6538979
1739.072167,35.39759263,95.56155967
1739.960911,43.03374407,108.687015
1740.849505,50.38182962,121.3698511
1741.737948,56.55667661,132.3519621
1742.62624,60.95913478,141.0699719
1743.514382,63.29047929,147.4923864
1744.402373,63.52530579,151.7132608
1745.290214,61.87024592,153.7020936
1746.177904,58.72457666,153.3805591
1747.065444,54.64585761,150.900542
1747.952833,50.31421941,146.9199561
1748.840073,46.47836967,142.6764186
1749.727161,43.86757273,139.7154922
1750.6141,43.0833335,139.3615543
1751.500888,44.50853542,142.2610099
1752.387526,48.26439812,148.2691113
1753.274014,54.2097767,156.6162936
1754.160351,61.95964797,166.1171429
1755.046539,70.92236609,175.3965502
1755.932576,80.37272209,183.2596078
1756.818464,89.5555845,189.0830733
1757.704201,97.78843352,192.8807978
1758.589788,104.5350398,194.9249435
1759.475225,109.4453643,195.234338
1760.360513,112.3758912,193.3961505
1761.24565,113.4026076,188.8999594
1762.130638,112.8149113,181.6546782
1763.015476,111.0641709,172.1441707
1763.900164,108.6629987,161.0659611
1764.784702,106.0732719,148.8992492
1765.66909,103.6286937,135.9348829
1766.553329,101.5129854,122.7195766
1767.437418,99.77584992,110.3644276
1768.321358,98.3652412,100.3754436
1769.205148,97.1668,94.1506122
1770.088788,96.04472214,92.42887615
1770.972279,94.881981,94.92182299
1771.85562,93.62821257,100.3614299
1772.738812,92.35701151,107.0253126
1773.621854,91.30161294,113.3876381
1774.504747,90.82467534,118.438277
1775.38749,91.32203372,121.6785716
1776.270084,93.11031451,123.1317737
1777.152529,96.34187228,123.4116313
1778.034825,100.9594974,123.577712
1778.916971,106.6955135,124.7006033
1779.798968,113.1174948,127.4101846
1780.680816,119.706814,131.7390949
1781.562515,125.9390729,137.2921343
1782.444065,131.3283458,143.4528372
1783.325465,135.4172968,149.3647589
1784.206717,137.7450258,153.828279
1785.087819,137.8518957,155.4790345
1785.968773,135.3530992,153.3198549
1786.849577,130.0513687,147.2439255
1787.730233,122.0273454,138.1140503
1788.610739,111.6654849,127.3144511
1789.491097,99.61805808,116.0982378
1790.371306,86.73594195,105.1409
1791.251367,73.99274337,94.51385441
1792.131278,62.41439749,84.04261709
1793.011041,53.00761287,73.80777515
1793.890655,46.6644722,64.45525376
1794.77012,44.02712366,57.1015313
1795.649437,45.33630643,52.90250703
1796.528605,50.32940247,52.58505232
1797.407625,58.24886256,56.22932017
1798.286496,67.96767283,63.36537301
1799.165218,78.18247278,73.20783778
1800.043792,87.60662765,84.79950502
1800.922218,95.11758422,97.00380013
1801.800495,99.8505963,108.4655877
1802.678624,101.2528725,117.6602951
1803.556604,99.1126079,123.0823808
1804.434436,93.57288872,123.6043948
1805.31212,85.12917174,118.9265867
1806.189656,74.58676787,109.8517544
1807.067043,62.95883949,98.15853361
1807.944283,51.31297359,86.11555978
1808.821374,40.60215736,75.86256753
1809.698317,31.51975133,68.84850489
1810.575112,24.40995739,65.42803661
1811.451758,19.25769913,64.75432151
1812.328257,15.76963917,65.14226847
1813.204608,13.52623735,64.84981256
1814.080811,12.14524527,62.86956627
1814.956866,11.38986892,59.28745394
1815.832773,11.19291013,55.10539842
1816.708532,11.61335266,51.73723786
1817.584143,12.75693337,50.45755165
1818.459607,14.6837462,51.98879834
1819.334923,17.32124219,56.25138993
1820.210091,20.41178711,62.2701729
1821.085111,23.53047412,68.35897261
1821.959984,26.18216654,72.65298938
1822.834709,27.93973503,73.77340841
1823.709286,28.56365188,71.27904218
1824.583716,28.06072892,65.72331784
1825.457998,26.66826077,58.3692913
1826.332133,24.77512311,50.76279826
1827.20612,22.80888561,44.37253747
1828.07996,21.12575285,40.34806658
1828.953653,19.93283725,39.31036483
1829.827198,19.25891476,41.18123131
1830.700596,18.97377498,45.16617881
1831.573846,18.84481555,49.94210779
1832.446949,18.6236337,54.05673929
1833.319905,18.15191138,56.49810455
1834.192714,17.44772721,57.17359825
1835.065375,16.72314301,56.94162366
1835.93789,16.32030258,57.12874752
1836.810257,16.59807501,58.83224337
1837.682477,17.81621776,62.39507939
1838.55455,20.05499274,67.28178082
1839.426476,23.1929116,72.35158271
1840.298255,26.94701157,76.35079767
1841.169887,30.95676632,78.40885947
1842.041372,34.87250669,78.36071969
1842.91271,38.40948422,76.75806374
1843.783901,41.35582501,74.5404495
1844.654946,43.55480974,72.5281134
1845.525844,44.88955025,71.01669636
1846.396594,45.27992752,69.68409101
1847.267199,44.68882938,67.83730882
1848.137656,43.13496366,64.85965712
1849.007967,40.70935363,60.60801981
1849.878131,37.58716693,55.5319444
1850.748148,34.01733223,50.45679681
1851.618019,30.28085801,46.13441036
1852.487743,26.63127439,42.80830711
1853.357321,23.25320853,40.14987973
1854.226753,20.26018432,37.65959226
1855.096037,17.71047502,35.11206478
1855.965176,15.61408871,32.59949744
1856.834168,13.9366207,30.25989205
1857.703014,12.61837874,28.11046733
1858.571713,11.6066788,26.18302776
1859.440266,10.87921655,24.75339504
1860.308673,10.43963632,24.36486449
1861.176933,10.28644671,25.58874638
1862.045047,10.37374058,28.69646679
1862.913016,10.59236024,33.47577908
1863.780838,10.78732183,39.31686861
1864.648513,10.80141724,45.45719884
1865.516043,10.51755618,51.17096298
1866.383427,9.889047074,55.86229299
1867.250665,8.963915996,59.16617595
1868.117756,7.902049355,61.08576289
1868.984702,6.973199655,62.07353223
1869.851502,6.527722182,62.93299073
1870.718156,6.941847647,64.49407616
1871.584664,8.545378877,67.19169578
1872.451026,11.55149519,70.82677986
1873.317243,16.01143239,74.74258027
1874.183314,21.80925744,78.36250253
1875.049239,28.69001305,81.68192852
1875.915018,36.29806499,85.28508915
1876.780651,44.21356474,89.92347218
1877.646139,51.99087757,96.09826825
1878.511482,59.19789865,103.9319021
1879.376679,65.44750645,113.2143079
1880.24173,70.41880628,123.4099973
1881.106635,73.87422873,133.620782
1881.971396,75.67863463,142.6683979
1882.83601,75.82295647,149.4066397
1883.70048,74.44986667,153.1992734
1884.564804,71.86034177,154.3232483
1885.428982,68.47197523,153.9707666
1886.293016,64.72107393,153.7128901
1887.156904,60.94698579,154.7039642
1888.020646,57.31546142,157.1403608
1888.884244,53.81363674,160.2863748
1889.747696,50.31174669,162.9678686
1890.611003,46.66124391,164.1693451
1891.474165,42.78923695,163.3955254
1892.337182,38.75213824,160.7045207
1893.200054,34.73529211,156.5631775
1894.06278,31.00135336,151.7013471
1894.925362,27.81258248,146.979707
1895.787799,25.35425825,143.1681276
1896.650091,23.6781827,140.6432943
1897.512238,22.68185381,139.2164538
1898.374239,22.13404628,138.2738827
1899.236097,21.74036838,137.1552319
1900.097809,21.22360993,135.4871484
1900.959376,20.38876129,133.228139
1901.820799,19.15623208,130.4665832
1902.682077,17.57064733,127.283435
1903.54321,15.79978799,123.9225493
1904.404199,14.11811823,121.1190056
1905.265043,12.84105282,120.1191565
1906.125742,12.2038399,122.1141501
1906.986297,12.23982408,127.4009402
1907.846707,12.7382205,134.9486227
1908.706973,13.3180628,142.7934851
1909.567094,13.58417667,149.0441446
1910.427071,13.2842371,152.771274
1911.286903,12.38969351,154.1534654
1912.146591,11.07601534,153.9241291
1913.006135,9.637551714,152.723437
1913.865534,8.395590455,150.8575735
1914.724789,7.631870807,148.468714
1915.5839,7.557654266,145.7911104
1916.442866,8.307221669,143.2204393
1917.301688,9.943032832,141.1839345
1918.160366,12.46977346,139.9915785
1919.0189,15.86132123,139.8456676
1919.87729,20.09651606,140.9998247
1920.735536,25.18317833,143.8234746
1921.593638,31.14934566,148.5902529
1922.451595,38.00496302,155.1940917
1923.309409,45.69670644,163.1218128
1924.167079,54.07185696,171.6802859
1925.024604,62.85917287,180.2060473
1925.881986,71.67736131,188.0729144
1926.739224,80.0891677,194.5834551
1927.596318,87.69639524,199.005283
1928.453269,94.24011138,200.9002716
1929.310075,99.65827713,200.5413726
1930.166738,104.0690715,198.9535183
1931.023257,107.683035,197.3417246
1931.879633,110.6901819,196.2740563
1932.735865,113.1918813,195.2977487
1933.591953,115.2213142,193.3226911
1934.447897,116.8323992,189.4842957
1935.303698,118.1889923,183.8502988
1936.159356,119.592896,177.4986408
1937.01487,121.4342563,171.9864078
1937.87024,124.088918,168.6424119
1938.725468,127.8043963,168.1598208
1939.580551,132.6112506,170.6304082
1940.435492,138.2767157,175.7355113
1941.290289,144.3003397,182.7447452
1942.144942,149.9533873,190.359474
1942.999453,154.3687278,196.745004
1943.85382,156.6734193,199.9208924
1944.708044,156.1376149,198.3412343
1945.562124,152.3092093,191.3890438
1946.416062,145.1022596,179.5647499
1947.269856,134.816293,164.2880019
1948.123508,122.081939,147.4600093
1948.977016,107.757768,131.022778
1949.830381,92.80713043,116.5858482
1950.683603,78.17073414,105.081752
1951.536683,64.65261899,96.55977147
1952.389619,52.84991716,90.3100466
1953.242412,43.14698142,85.30822009
1954.095063,35.76232943,80.76467859
1954.947571,30.81184785,76.51912794
1955.799935,28.35212995,73.08715528
1956.652157,28.3878758,71.37445605
1957.504237,30.84522402,72.27450447
1958.356173,35.52120218,76.33325923
1959.207967,42.03028978,83.52949731
1960.059618,49.78206954,93.17876485
1960.911127,58.02408108,103.9988756
1961.762493,65.96086801,114.3726373
1962.613716,72.91786207,122.7648991
1963.464797,78.48669091,128.1817938
1964.315735,82.59484429,130.5439435
1965.166531,85.47438051,130.8039869
1966.017184,87.53885412,130.6564551
1966.867695,89.21260865,131.8752143
1967.718064,90.78180466,135.537901
1968.56829,92.32072856,141.5166762
1969.418374,93.70868322,148.530652
1970.268315,94.70471723,154.7160038
1971.118114,95.02832185,158.3315225
1971.967771,94.41654145,158.2425233
1972.817286,92.66369251,154.1232377
1973.666659,89.65733729,146.4796915
1974.515889,85.40395269,136.5215303
1975.364977,80.02648032,125.8346862
1976.213924,73.73264642,115.9045887
1977.062728,66.77098603,107.7062673
1977.91139,59.38918615,101.5281559
1978.75991,51.79710055,96.97699318
1979.608288,44.14304478,93.10064631
1980.456524,36.52670019,88.7280633
1981.304619,29.05610995,83.03146347
1982.152571,21.91326608,75.99662424
1983.000382,15.37784068,68.47043924
1983.84805,9.789323878,61.8128073
1984.695577,5.463246091,57.38741454
1985.542962,2.587437049,56.06074052
1986.390206,1.134600278,57.85319812
1987.237308,0.835526718,61.8566922
1988.084268,1.237846252,66.42019917
1988.931086,1.835968342,69.59913263
1989.777763,2.22863792,69.84126805
1990.624298,2.242068153,66.6406657
1991.470692,1.965954347,60.7520226
1992.316944,1.691874721,53.82949017
1993.163055,1.789244683,47.74628702
1994.009024,2.5683137,43.9441142
1994.854852,4.170103716,43.00632034
1995.700538,6.516572943,44.54550672
1996.546083,9.342527743,47.46937945
1997.391487,12.29204257,50.53363404
1998.23675,15.02601433,52.84935991
1999.081871,17.29220484,54.03648832
1999.926851,18.94763668,54.07623065
2000.771689,19.95027063,53.1451784
2001.616387,20.32982961,51.53160993
2002.460943,20.14482128,49.54070442
2003.305358,19.45142149,47.39501557
2004.149632,18.29722293,45.20269092
2004.993765,16.72657254,42.94681818
2005.837757,14.78680669,40.45526338
2006.681608,12.54692867,37.42876884
2007.525318,10.13483257,33.57814298
2008.368888,7.77654783,28.80958818
2009.212316,5.814953409,23.36213959
2010.055603,4.697646352,17.85277177
2010.898749,4.930865895,13.23071273
2011.741755,7.006032347,10.62567677
2012.58462,11.31621318,11.10060734
2013.427344,18.07918155,15.3975141
2014.269927,27.27300983,23.73069831
2015.11237,38.59579747,35.63064196
2015.954672,51.47709984,49.95632809
2016.796833,65.15225237,65.20531439
2017.638853,78.76854752,79.95227564
2018.480733,91.48182934,93.08233171
2019.322473,102.5327101,103.774144
2020.164072,111.3127274,111.4799592
2021.00553,117.4202939,116.0194033
2021.846848,120.68966,117.6457946
2022.688026,121.1834318,116.9781696
2023.529063,119.1549179,114.854077
2024.36996,114.9850604,112.1262887
2025.210716,109.10642,109.3623742
2026.051332,101.9422046,106.5510461
2026.891808,93.88857518,103.0755594
2027.732144,85.34588271,98.10488269
2028.572339,76.77845516,91.24137671
2029.412394,68.76607395,83.03772018
2030.252309,62.00681538,75.0607075
2031.092084,57.24817986,69.46057523
2031.931719,55.15798143,68.28513253
2032.771213,56.17314191,72.88300707
2033.610568,60.36633779,83.57293088
2034.449782,67.36377291,99.52188181
2035.288857,76.34726774,118.8156008
2036.127791,86.15871906,138.8359711
2036.966586,95.48236135,156.8761366
2037.805241,103.050621,170.6819858
2038.643756,107.8348092,178.7768194
2039.482131,109.2062231,180.7231481
2040.320366,107.0383793,177.3381146
2041.158461,101.7094492,170.5337761
2041.996417,93.98710299,162.6092151
2042.834233,84.83892821,155.3939277
2043.671909,75.23912739,149.790653
2044.509446,66.02123218,145.8114991
2045.346843,57.7954786,142.8507472
2046.1841,50.93108467,140.0257838
2047.021218,45.58963541,136.549543
2047.858196,41.78407732,132.0329474
2048.695035,39.43646464,126.5780571
2049.531734,38.41696339,120.6402442
2050.368294,38.56111555,114.776433
2051.204714,39.67371276,109.4518838
2052.040995,41.52625174,105.0139158
2052.877137,43.84589229,101.769225
2053.713139,46.2934504,99.9816566
2054.549002,48.44485678,99.69635206
2055.384725,49.79704897,100.4828723
2056.22031,49.81572083,101.2857629
2057.055755,48.02796035,100.5718481
2057.891061,44.14694645,96.84667298
2058.726228,38.19824939,89.35881404
2059.561255,30.60365563,78.62124256
2060.396144,22.17883091,66.41600012
2061.230893,14.0290934,55.20218914
2062.065504,7.360505704,47.22880587
2062.899975,3.260192752,43.86328868
2063.734308,2.504820025,45.43727203
2064.568501,5.438519345,51.50798546
2065.402556,11.93406801,61.20969375
2066.236471,21.42794628,73.4334325
2067.070248,33.0156149,86.83060149
2067.903886,45.60247694,99.87654896
2068.737385,58.09724416,111.2155993
2069.570746,69.59953539,120.1998902
2070.403967,79.51081899,127.2074712
2071.23705,87.52391159,133.3633979
2072.069994,93.51162165,139.7525873
2072.9028,97.3911966,146.6551969
2073.735467,99.04344514,153.2887106
2074.567995,98.31970227,158.1308189
2075.400384,95.11201311,159.5652058
2076.232636,89.4387758,156.5105507
2077.064748,81.50467489,148.780897
2077.896722,71.71514589,137.0874947
2078.728558,60.64426839,122.7683448
2079.560255,48.97134533,107.4231869
2080.391814,37.40093182,92.56423061
2081.223235,26.57925637,79.3055239
2082.054517,17.02264003,68.15358
2082.885661,9.080720612,59.02116504
2083.716666,2.944025533,51.5177131
2084.547533,-1.318039068,45.3819725
2085.378262,-3.722723341,40.77694906
2086.208853,-4.367682656,38.25858197
2087.039306,-3.445209705,38.49621964
2087.86962,-1.249749579,41.97424927
2088.699797,1.83369831,48.80792188
2089.529835,5.351895298,58.63458198
2090.359736,8.814447613,70.51322462
2091.189498,11.74799315,82.88206672
2092.019122,13.78261027,93.73507648
2092.848608,14.75384874,101.1362531
2093.677957,14.78300697,103.9451462
2094.507167,14.28631932,102.3536056
2095.33624,13.88029295,97.82290514
2096.165175,14.20168453,92.38523863
2096.993972,15.71481423,87.79214181
2097.822631,18.58503324,85.10501262
2098.651152,22.65348625,84.81587168
2099.479536,27.50036676,87.05142282
2100.307782,32.56131125,91.51295988
2101.13589,37.27024574,97.32520769
2101.963861,41.20335742,103.1700025
2102.791694,44.18748888,107.7782811
2103.619389,46.33088009,110.515271
2104.446947,47.96308644,111.7406482
2105.274367,49.50687091,112.7539299
2106.10165,51.32756572,115.2966248
2106.928796,53.60424367,120.7704469
2107.755804,56.25398361,129.4993334
2108.582674,58.93077646,140.3703562
2109.409407,61.11251333,151.0281525
2110.236003,62.26578554,158.6028508
2111.062462,62.03885122,160.7648223
2111.888783,60.40918161,156.7078588
2112.714967,57.72675554,147.5678535
2113.541013,54.64049554,135.9726571
2114.366923,51.94004853,124.9156851
2115.192695,50.3751371,116.6000909
2116.01833,50.51400362,111.8903277
2116.843828,52.67452957,110.5478586
2117.669189,56.92355729,111.8854838
2118.494413,63.1152849,115.2641579
2119.3195,70.94277969,120.1720963
2120.144449,79.9935449,126.1049758
2120.969262,89.80560554,132.553985
2121.793938,99.91244284,139.1378609
2122.618477,109.862549,145.7222785
2123.442879,119.2148084,152.4177825
2124.267144,127.5278516,159.46682
2125.091273,134.355652,167.0452969
2125.915264,139.2455988,174.9689124
2126.739119,141.741284,182.3943277
2127.562837,141.4118191,187.7587468
2128.386418,137.9300781,189.1465625
2129.209863,131.1895608,185.0299374
2130.033171,121.4136363,175.0887318
2130.856342,109.1998422,160.6498877
2131.679377,95.46646255,144.3356534
2132.502275,81.31871567,128.9666833
2133.325036,67.89673055,116.4072567
2134.147661,56.26519906,107.1527511
2134.97015,47.35185011,100.7842969
2135.792502,41.89967884,96.73459658
2136.614718,40.40761522,94.81363089
2137.436797,43.06291148,95.30897667
2138.25874,49.68231876,98.74345725
2139.080546,59.68476571,105.5361423
2139.902217,72.11708445,115.7856168
2140.723751,85.73798878,129.1420426
2141.545148,99.14637438,144.6307471
2142.36641,110.937455,160.5103908
2143.187535,119.8753274,174.4194103
2144.008524,125.0583252,183.8956446
2144.829377,126.035545,187.0559958
2145.650094,122.8410647,183.1303548
2146.470674,115.9502431,172.6764653
2147.291119,106.1773878,157.4294759
2148.111427,94.53194479,139.8000623
2148.9316,82.05694493,122.1799197
2149.751637,69.68758649,106.3543922
2150.571537,58.15932685,93.23476409
2151.391302,47.97558518,82.94165797
2152.210931,39.43362728,75.1779465
2153.030424,32.69168273,69.7075886
2153.849781,27.83887531,66.62955159
2154.669002,24.93051876,66.2855195
2155.488088,23.98271651,68.9878518
2156.307038,24.94526969,74.82569718
2157.125852,27.67089875,83.57251092
2157.94453,31.89439364,94.636035
2158.763073,37.23582563,107.0997673
2159.58148,43.2319675,119.8597989
2160.399752,49.38410696,131.7424213
2161.217888,55.20651805,141.5789805
2162.035888,60.26689296,148.3379938
2162.853753,64.21632774,151.3213493
2163.671482,66.8104622,150.3140147
2164.489076,67.92571986,145.6130093
2165.306534,67.56930014,137.9200781
2166.123858,65.87724251,128.1161415
2166.941045,63.09122736,117.0087736
2167.758098,59.51811145,105.1902795
2168.575015,55.48367078,93.08882163
2169.391796,51.29069836,81.16128217
2170.208443,47.18373274,70.04967377
2171.024954,43.32334732,60.53419381
2171.84133,39.77566075,53.27606719
2172.657571,36.52065182,48.51625747
2173.473676,33.48217631,45.95374328
2174.289647,30.57965745,44.89636884
2175.105482,27.78905454,44.55471542
2175.921183,25.18863386,44.2766631
2176.736748,22.9680286,43.65247083
2177.552178,21.39578534,42.57038076
2178.367474,20.75407775,41.3006404
2179.182634,21.25189197,40.53519541
2179.997659,22.93399003,41.21698266
2180.81255,25.61806392,44.12829049
2181.627306,28.89532171,49.43288089
2182.441926,32.20790129,56.46013652
2183.256412,34.98579158,63.93086306
2184.070764,36.79841268,70.54887766
2184.88498,37.45893824,75.56095298
2185.699062,37.03583015,78.88965777
2186.513009,35.77873748,80.8431198
2187.326821,34.01182331,81.75143742
2188.140499,32.04496154,81.82995565
2188.954042,30.12144306,81.28353787
2189.76745,28.39309743,80.44858161
2190.580724,26.90299623,79.76245362
2191.393864,25.57198549,79.52311034
2192.206869,24.20571276,79.60454752
2193.019739,22.54884066,79.37642254
2193.832475,20.38990047,77.97236168
2194.645077,17.67623786,74.79430978
2195.457544,14.57724031,69.91661918
2196.269877,11.45965774,64.10101783
2197.082075,8.787692093,58.44369788
2197.894139,6.990957893,53.91984402
2198.706069,6.343140435,51.03342092
2199.517865,6.884147912,49.63798522
2200.329526,8.410480308,49.01221742
2201.141053,10.53736867,48.2421833
2201.952446,12.80322192,46.72812493
2202.763705,14.77380564,44.48762914
2203.57483,16.11805593,42.04294245
2204.385821,16.64572291,39.93009298
2205.196677,16.31561894,38.16570463
2206.0074,15.23516718,36.14514002
2206.817988,13.66113977,33.13158066
2207.628443,11.98435648,28.95669053
2208.438764,10.67341913,24.39140088
2209.24895,10.17778738,20.95577263
2210.059003,10.81439522,20.28392302
2210.868922,12.67586828,23.33925196
2211.678707,15.59567111,29.8725814
2212.488359,19.19486284,38.46459607
2213.297876,22.99940762,47.1691691
2214.10726,26.57522489,54.35939145
2214.91651,29.62132501,59.26916818
2215.725627,31.99487384,62.01171552
2216.534609,33.6742827,63.21161724
2217.343459,34.6885298,63.53773013
2218.152174,35.04396452,63.39058685
2218.960756,34.68394895,62.87608852
2219.769204,33.50308107,62.00226249
2220.577519,31.40691008,60.84930929
2221.3857,28.38740699,59.51407917
2222.193748,24.59026623,57.91155654
2223.001663,20.36248526,55.69114862
2223.809444,16.26853771,52.43763527
2224.617091,13.0602891,48.10435187
2225.424606,11.58931999,43.39928728
2226.231986,12.66819143,39.78043913
2227.039234,16.91323167,38.96917272
2227.846348,24.61674588,42.26881888
2228.653329,35.68384089,50.05405869
2229.460177,49.64072551,61.56704485
2230.266892,65.70750458,75.03639823
2231.073473,82.92878811,88.1831537
2231.879922,100.3435281,99.06768471
2232.686237,117.1487916,106.938184
2233.492419,132.7986283,112.5846028
2234.298468,147.0015992,117.907864
2235.104384,159.6293176,124.8877054
2235.910167,170.5879912,134.5268183
2236.715818,179.7160672,146.3605965
2237.521335,186.7440243,158.755749
2238.326719,191.3237229,169.7406164
2239.13197,193.1026352,177.8067038
2239.937089,191.8038989,182.2086436
2240.742074,187.2908066,182.7441223
2241.546927,179.6223536,179.4202064
2242.351647,169.1068152,172.3954853
2243.156234,156.3367309,162.1916763
2243.960689,142.1775892,149.8550805
2244.765011,127.6974008,136.8174875
2245.5692,114.0493966,124.5048182
2246.373257,102.3382115,113.9609845
2247.177181,93.49987707,105.7351947
2247.980972,88.20778356,100.049935
2248.784631,86.80088748,97.04610716
2249.588157,89.23288303,96.90828276
2250.391551,95.04940203,99.81581965
2251.194812,103.4001842,105.7484553
2251.997941,102.4647966,104.5740818
2252.800937,102.0730023,104.2720743
2253.603801,102.2248016,104.842433
2254.406533,102.9201942,106.2851577
2255.209132,104.1591803,108.6002485
2256.011599,105.9417598,111.7877054
2256.813934,108.2679328,115.8475284
2257.616136,111.1376992,120.7797175
2258.418206,114.551059,126.5842727
2259.220144,118.5080123,133.2611939
2260.02195,123.008559,140.8104813
2260.823624,128.0526992,149.2321347
