Raman shift (cm-1),RM_AS,RM_HS_V1,RM_HS_V2,RM_HS_V3
2260.823624,166.343775,160.4575348,73.89721336,90.34589
2260.02195,156.3337223,151.1096152,69.92646265,85.57783
2259.220144,146.9575717,142.3525375,66.18998959,81.03417
2258.418206,138.215323,134.1863017,62.68779417,76.71491
2257.616136,130.1069763,126.6109078,59.41987639,72.62005
2256.813934,122.6325316,119.6263559,56.38623626,68.74959
2256.011599,115.791989,113.2326459,53.58687378,65.10353
2255.209132,109.5853483,107.4297778,51.02178894,61.68187
2254.406533,104.0126096,102.2177516,48.69098174,58.4846
2253.603801,99.07377294,97.59656738,46.59445219,55.51174
2252.800937,94.76883827,93.56622506,44.73220029,52.76327
2251.997941,91.0978056,90.12672467,43.10422603,50.2392
2251.194812,88.06067493,87.27806621,41.71052942,47.93954
2250.391551,71.95077753,75.47968671,36.24981804,41.44298
2249.588157,61.16651037,67.36681262,32.23325203,32.74887
2248.784631,55.93492019,60.66450768,28.48348842,27.32787
2247.980972,56.36510993,56.91996576,26.18522043,23.62595
2247.177181,61.52963153,56.65214772,25.03101922,19.63821
2246.373257,65.0443602,57.83989733,23.75898359,22.97245
2245.5692,68.68825519,61.44945199,24.41063994,29.72518
2244.765011,75.83474426,69.95501116,28.75076868,37.94941
2243.960689,88.21877635,83.38222835,35.68593317,45.18715
2243.156234,99.08579843,95.26616611,43.70325861,46.96476
2242.351647,108.8490668,102.9796035,50.33684416,48.50779
2241.546927,122.0906272,107.2739787,53.58717356,49.30231
2240.742074,127.4207277,107.0248667,55.44123592,48.48417
2239.937089,131.642727,107.9924905,58.51570708,51.23704
2239.13197,135.8453982,110.5725344,61.42433927,56.00922
2238.326719,136.174037,109.3606259,61.16268703,57.36103
2237.521335,130.9658802,101.3785343,57.17625451,52.51646
2236.715818,117.484676,89.07957179,52.17209689,42.96087
2235.910167,111.3206994,80.03142441,49.72210448,36.32563
2235.104384,108.503088,74.82158256,50.05390186,35.19956
2234.298468,110.5019041,74.77338235,50.6021213,36.94895
2233.492419,118.7956398,80.13859455,50.52465733,43.9041
2232.686237,118.4653087,84.80637219,50.22017644,50.34884
2231.879922,114.789514,84.958919,48.49133572,52.53333
2231.073473,105.7546543,77.94023016,43.37572923,49.15538
2230.266892,94.34537272,66.51803959,35.45095759,40.46458
2229.460177,86.10208257,56.93244521,29.09200252,39.91715
2228.653329,78.44365821,51.81497217,27.2729483,42.25381
2227.846348,77.09708055,50.96583427,28.36657449,44.21861
2227.039234,73.67428987,51.91880838,31.06315739,51.30408
2226.231986,72.26269457,56.45840393,36.2655415,56.43371
2225.424606,84.84459944,67.67787196,43.7862074,64.28451
2224.617091,97.21520147,78.3696538,51.02796574,72.79383
2223.809444,102.7589667,83.8544538,55.04289731,75.37124
2223.001663,106.1736773,86.25408399,56.17012603,76.95091
2222.193748,107.4619058,87.53007503,57.16718603,76.26654
2221.3857,110.1062779,90.48100889,59.51646709,74.59844
2220.577519,110.3824135,92.46231876,63.84531542,76.35401
2219.769204,110.5552989,92.94761322,69.16688492,77.45569
2218.960756,111.2691709,90.14287517,71.44940921,74.82556
2218.152174,104.9581961,82.06664533,68.84575503,69.32978
2217.343459,101.4090991,75.33972114,65.15416316,64.91751
2216.534609,99.97953374,71.32197639,63.70266616,64.99372
2215.725627,95.33070029,67.91266356,62.14058988,65.46286
2214.91651,90.94144007,64.90562166,57.76507756,62.79072
2214.10726,85.23762618,60.86528353,52.77513638,58.28373
2213.297876,81.05650908,54.60808192,48.82969809,52.44025
2212.488359,76.94010765,44.33951297,43.19466545,43.53266
2211.678707,65.63635136,29.30191419,34.64319933,32.74003
2210.868922,55.10046676,17.18732281,27.62807963,25.29018
2210.059003,52.62072824,14.51956129,26.49746344,25.68555
2209.24895,54.0563187,18.90496007,29.23088914,29.5935
2208.438764,56.58707906,27.51160712,32.92348854,33.13745
2207.628443,56.14684424,35.86773573,38.03973869,35.82223
2206.817988,62.08750522,44.32800035,42.47331261,38.28923
2206.0074,69.95799068,51.73547194,42.39361351,42.52111
2205.196677,66.20853166,52.80091378,38.37465224,41.46458
2204.385821,63.60104554,54.62766556,35.12784323,39.28496
2203.57483,67.2976526,62.26648398,37.53062646,44.11709
2202.763705,77.41896969,73.29628723,44.90187535,50.03741
2201.952446,84.74947419,81.71793348,51.50169608,53.8641
2201.141053,85.3481677,84.43447952,54.0950603,58.26036
2200.329526,88.55338538,84.75788557,52.90094695,62.08132
2199.517865,84.64059729,80.8411848,49.10398268,61.60511
2198.706069,82.16061581,77.65956025,45.66387707,61.55551
2197.894139,87.22754525,78.38053629,44.56676745,64.7803
2197.082075,89.04530407,79.0256988,44.18124327,64.32883
2196.269877,88.81201362,79.35362751,43.45442626,58.3253
2195.457544,91.07579111,80.07990488,44.20597207,54.54776
2194.645077,98.97625211,81.05072352,46.8005933,54.32635
2193.832475,103.5390622,77.69281074,47.5129528,53.19479
2193.019739,99.06989214,69.89972321,43.44273132,50.62981
2192.206869,90.40977593,61.38078784,38.23249447,46.94332
2191.393864,83.80280124,55.83080735,37.34980283,44.46002
2190.580724,79.77234031,54.34702977,38.97292732,43.87347
2189.76745,75.86536593,54.0384073,37.96507251,43.86047
2188.954042,71.08735213,53.50937806,35.90777431,42.22933
2188.140499,67.53560843,50.1290317,35.38415386,36.41987
2187.326821,64.9667418,45.5710314,32.96092583,32.63894
2186.513009,58.31677047,42.68430887,29.46433215,30.64038
2185.699062,51.73590685,41.3068693,31.40403274,25.25649
2184.88498,50.07548269,44.43108449,38.44678625,24.0961
2184.070764,52.65081117,48.64793972,44.57937847,24.9938
2183.256412,51.15130366,46.3353334,46.3313272,21.62997
2182.441926,41.7857494,37.74993154,43.91571782,16.55417
2181.627306,31.82955703,29.30745708,41.13976727,13.57272
2180.81255,27.34941237,25.34740105,42.77732988,13.71913
2179.997659,25.42779668,23.70476145,48.80623441,14.25138
2179.182634,27.37337699,24.1898735,54.5512908,14.4086
2178.367474,35.58662585,26.50783155,57.31187668,10.94759
2177.552178,41.94196879,27.17434933,58.67624578,9.15236
2176.736748,50.57911531,26.69691608,59.55925735,12.46661
2175.921183,61.37270315,28.19903793,58.79162006,17.76146
2175.105482,70.46211401,31.1696198,57.23547569,25.33546
2174.289647,77.49562515,32.44065885,56.14935844,28.40812
2173.473676,78.95632644,32.66961517,53.39513452,29.2844
2172.657571,81.40016229,32.21522351,47.80503888,32.2729
2171.84133,86.29545833,31.94332848,41.48568871,35.13215
2171.024954,96.48317775,35.40773758,35.49627069,37.50853
2170.208443,110.1844536,41.04617598,30.74283821,37.24253
2169.391796,120.1742977,46.746266,29.16139414,38.18574
2168.575015,133.199625,53.05875895,29.03734373,41.37445
2167.758098,141.5708265,58.48236822,27.56379716,42.12203
2166.941045,145.2183041,63.13257792,26.64711288,38.43004
2166.123858,152.8670273,68.50676799,27.39969276,34.32347
2165.306534,157.3662686,73.75105117,26.6024855,36.17143
2164.489076,160.0126043,77.10119042,23.05835076,41.32152
2163.671482,157.5955208,78.27985537,19.33983646,43.24326
2162.853753,149.6088216,78.79226598,17.96761343,41.05756
2162.035888,137.335259,78.30546197,19.00643752,39.11916
2161.217888,123.7164889,73.77265391,20.50895204,38.33856
2160.399752,112.1501996,64.868228,21.19217147,38.26511
2159.58148,102.1755966,56.75573525,21.28888307,38.02289
2158.763073,97.95197265,50.85465971,21.12390705,38.83526
2157.94453,90.17527443,44.78572818,20.20827619,43.36877
2157.125852,81.92415947,40.66439028,18.44352722,46.14562
2156.307038,72.40913746,40.25487007,18.00531319,47.7854
2155.488088,61.18061797,41.5432512,21.61495535,50.23161
2154.669002,53.86333003,42.29889676,28.12073463,49.72256
2153.849781,48.14796045,46.5980179,33.05292686,51.6324
2153.030424,55.6236355,57.39615736,35.46320949,58.29304
2152.210931,66.24422878,68.60725141,38.23044339,63.43612
2151.391302,73.83180755,78.89282766,41.79866187,65.12127
2150.571537,82.62391242,90.65267751,46.29588912,66.73708
2149.751637,90.85145098,103.2339811,53.5883345,72.67323
2148.9316,105.2839074,117.035261,61.35808136,78.17552
2148.111427,116.7460714,130.7032989,65.81321266,79.91704
2147.291119,128.3376216,146.0595752,68.18678325,84.70527
2146.470674,144.5922056,162.470857,69.52416766,90.88042
2145.650094,148.0189525,170.8758434,68.28878013,93.61631
2144.829377,143.8404092,172.5683562,65.76239482,93.55114
2144.008524,138.5304285,170.9028237,64.36689158,89.45978
2143.187535,125.3740512,162.4541924,63.55422345,81.90632
2142.36641,109.1521086,147.0706528,61.16916022,73.1957
2141.545148,95.80117694,127.070439,56.97377807,66.14668
2140.723751,89.76353554,110.3284996,53.38290957,64.28947
2139.902217,84.85674281,98.30144392,50.5650245,63.00756
2139.080546,73.89385541,86.52013767,46.03944778,55.43317
2138.25874,61.32946872,76.85242799,41.09502426,44.64582
2137.436797,54.96326395,70.65661659,39.409882,38.63623
2136.614718,58.34409767,69.32858216,41.44849735,37.88247
2135.792502,64.25483874,70.87831005,45.82618844,38.06352
2134.97015,70.59390792,74.52183826,50.42327494,38.94944
2134.147661,79.92181246,81.76957815,52.05922635,39.75983
2133.325036,89.24626288,86.93003039,49.94699512,38.13702
2132.502275,97.94625713,91.72356444,47.17677119,35.07854
2131.679377,117.0120742,106.1907579,48.9249375,34.96737
2130.856342,146.9016082,128.6009705,57.82540858,41.32644
2130.033171,170.9003373,146.6265256,67.89786689,51.58032
2129.209863,187.1808557,156.3108025,70.03914278,58.59782
2128.386418,195.7634368,160.3343799,64.86264599,62.16906
2127.562837,193.188848,159.7845952,60.08872919,63.67003
2126.739119,190.0725932,157.8389294,58.42800548,62.35448
2125.915264,184.8439329,154.7445428,58.29576278,63.18317
2125.091273,177.8472936,152.1000835,59.24010241,64.56113
2124.267144,177.3537468,149.2005928,60.80119639,63.67538
2123.442879,171.0784082,141.042797,62.62602131,62.94799
2122.618477,162.9364704,132.2157446,63.76142701,62.04202
2121.793938,156.794639,125.2924064,62.14203919,61.79995
2120.969262,145.9075386,118.3425352,58.47340177,59.40754
2120.144449,129.6069036,109.9447121,54.45814136,53.0342
2119.3195,107.9099033,98.83648402,50.57489051,46.04267
2118.494413,98.65573783,90.43498303,48.75803779,43.94469
2117.669189,97.37029416,86.02678218,49.04250047,48.49299
2116.843828,96.096416,83.94670973,48.0920871,51.19159
2116.01833,93.53114393,81.45700814,44.94271263,48.43219
2115.192695,83.07085375,76.89642079,40.97405223,42.90761
2114.366923,81.17115732,76.43295119,36.59620474,41.05
2113.541013,87.83283496,81.02375331,32.41024992,44.60314
2112.714967,102.5163872,91.35601491,31.12136186,49.8592
2111.888783,122.8375741,104.7839162,34.56702093,58.69021
2111.062462,131.3559415,112.4671203,38.74191311,67.97646
2110.236003,130.0638845,111.8687723,38.16976052,74.28048
2109.409407,121.603238,105.0088682,33.57667084,74.78713
2108.582674,110.106878,96.96865409,28.76987234,70.6522
2107.755804,102.5586036,91.49352185,25.84004701,67.04777
2106.928796,102.1095696,89.94895844,25.23961008,63.27867
2106.10165,104.9275337,89.82656561,25.56350138,62.28486
2105.274367,106.9105783,90.09023411,26.67889921,64.29445
2104.446947,111.5937067,92.48025103,31.33031888,66.22728
2103.619389,113.0867316,96.32911976,37.77611923,68.44453
2102.791694,112.1064254,100.7065664,39.44396031,67.7914
2101.963861,108.7549227,99.78264508,36.55418973,64.45742
2101.13589,103.91582,93.12060342,35.40161312,59.63709
2100.307782,101.5193839,85.11634808,36.72397487,53.25867
2099.479536,102.3311344,80.34004231,38.52802701,51.68798
2098.651152,110.8533894,83.91430871,42.47499303,53.73996
2097.822631,111.3599059,87.6553628,47.41004135,52.23584
2096.993972,107.0306735,87.34843213,49.41138511,45.36171
2096.165175,107.5987598,87.51789742,50.97801867,38.10183
2095.33624,111.0533116,91.69469844,56.89630003,38.47748
2094.507167,125.53361,103.0016607,64.9544363,46.01078
2093.677957,135.5214046,112.0506374,70.6959284,52.8068
2092.848608,135.080797,112.1164297,73.47567872,52.19855
2092.019122,126.3652727,105.4553255,73.73613791,46.39761
2091.189498,109.1823461,93.94163244,72.16657765,41.19958
2090.359736,96.88969241,82.24043894,70.37026545,38.15571
2089.529835,90.09854925,73.24212382,68.93402891,34.30005
2088.699797,90.53861911,68.48818913,67.37002291,30.51639
2087.86962,95.10633853,67.46797653,65.11069509,30.32354
2087.039306,93.99670037,66.13755349,61.84136428,30.93826
2086.208853,92.21156764,63.93106652,58.26673967,33.35902
2085.378262,94.51687265,66.34004043,55.84030012,36.86335
2084.547533,99.78254135,73.97780386,54.54724836,39.03859
2083.716666,105.3317575,80.84028844,51.74152446,43.79052
2082.885661,105.3859864,83.1867808,46.15370307,49.16973
2082.054517,106.3139107,83.48252019,41.46072553,54.649
2081.223235,116.8285129,89.1843971,40.72444218,62.10695
2080.391814,128.1548419,101.1251488,41.67117313,69.49158
2079.560255,139.2385848,116.1100711,42.32916832,77.88888
2078.728558,149.4945958,130.1383904,44.08694524,82.9702
2077.896722,155.9529836,139.9935116,47.23611576,83.25635
2077.064748,166.2371414,149.2302297,50.85555818,84.88951
2076.232636,174.7273523,156.206862,55.39764406,88.97111
2075.400384,176.8247976,157.3749724,59.68539936,91.50248
2074.567995,173.2794636,154.0762456,60.04795487,88.1048
2073.735467,161.3075153,145.9938199,55.94617634,81.94004
2072.9028,147.6217644,133.7939299,50.9592606,72.82948
2072.069994,135.8530241,120.7737618,48.67188462,61.37608
2071.23705,128.3655512,111.4887085,49.85291914,57.76113
2070.403967,128.8036611,108.0756286,51.95503112,59.22686
2069.570746,129.1696343,105.3239193,53.23066568,56.97614
2068.737385,121.481947,96.90628813,52.44015433,51.18625
2067.903886,105.7939652,81.76258138,46.05343548,41.8283
2067.070248,86.13944914,63.19568288,36.2674103,32.70585
2066.236471,68.01054263,46.65332887,30.44657277,27.72
2065.402556,56.0290641,36.10480419,29.04899796,24.86394
2064.568501,44.39694587,30.345207,28.45309206,23.83605
2063.734308,29.66540564,26.07167232,27.46340151,26.23016
2062.899975,20.26551713,24.64163558,25.21649987,29.91573
2062.065504,17.14270349,26.29031688,23.06383172,29.92703
2061.230893,20.59184297,32.03265239,24.81319462,30.46182
2060.396144,31.78349576,44.93410312,31.56890546,34.75071
2059.561255,48.4892254,61.13770782,40.92846485,41.9414
2058.726228,61.60443381,74.22454008,49.70760676,49.66819
2057.891061,66.61851189,81.62599422,56.53225508,52.49981
2057.055755,67.68202786,84.68703099,61.36096181,52.67002
2056.22031,63.49449579,85.10644817,63.69395948,50.82227
2055.384725,60.23204598,85.58585887,64.26064343,50.50722
2054.549002,62.79053994,88.06498165,63.74382645,52.97623
2053.713139,68.40521214,90.86689646,61.74619014,54.09488
2052.877137,77.64997107,93.99053686,61.38947021,56.9553
2052.040995,86.40859936,98.32256112,64.90131261,62.92365
2051.204714,90.86112397,101.6760984,67.10084732,70.69734
2050.368294,96.29083883,103.5870405,65.83376604,74.67333
2049.531734,100.1026903,106.231844,66.87167815,77.80003
2048.695035,106.0725657,112.6249774,70.06725149,86.52903
2047.858196,114.1310255,119.7911561,69.74742969,95.86499
2047.021218,114.8992024,122.617582,67.39509159,104.47282
2046.1841,114.5178144,124.1913083,65.93787423,108.69013
2045.346843,112.9798075,125.3384775,63.69404935,108.54771
2044.509446,111.2301985,128.0123214,60.88906243,109.75632
2043.671909,111.7614739,132.5315828,58.70261755,109.41361
2042.834233,115.106861,135.3105774,56.73727497,105.64495
2041.996417,117.6116198,137.5961918,57.06879221,102.64576
2041.158461,123.1774768,145.6983835,63.2242105,106.40273
2040.320366,140.2671875,163.0653928,73.85418008,114.42209
2039.482131,149.8374168,175.7886782,81.22117453,119.17828
2038.643756,142.8592292,174.2273648,79.85843793,114.18637
2037.805241,128.9333399,163.9305335,74.3981052,101.29967
2036.966586,116.9597221,152.8688479,71.97543493,90.8451
2036.127791,108.1394324,143.0480723,71.91677287,83.78587
2035.288857,96.35777744,127.4262654,68.91415209,77.71586
2034.449782,84.44552677,109.4793257,61.96602387,68.57369
2033.610568,78.6806477,99.1089502,57.76922306,59.89474
2032.771213,76.76268531,96.36260257,61.71877533,58.43361
2031.931719,71.92570749,95.96047194,68.30285583,58.26721
2031.092084,69.01211477,95.71470991,71.6258754,59.6249
2030.252309,71.51750417,99.49644952,75.49702972,61.85948
2029.412394,73.90903528,106.2615594,82.6187426,64.84677
2028.572339,75.88518474,112.1118105,89.09679822,69.70541
2027.732144,75.50153608,115.2116567,92.88924662,70.46284
2026.891808,70.90843599,113.630576,94.87321849,69.1691
2026.051332,65.73121937,111.6527028,94.92916035,64.82301
2025.210716,64.86625042,111.5450294,93.62877089,60.46318
2024.36996,67.68560997,113.18591,93.11231646,60.83575
2023.529063,69.96202473,116.2439821,94.72624296,59.99653
2022.688026,72.6262686,116.6603471,97.42764962,59.24938
2021.846848,69.56182042,114.4985615,98.96528012,58.60173
2021.00553,65.79765938,112.9673869,98.69589766,56.249
2020.164072,68.64358786,110.6052908,95.64889259,53.26392
2019.322473,64.89031404,100.9719473,87.85913099,48.27204
2018.480733,57.60287084,86.56949685,79.38323144,42.42964
2017.638853,56.42163123,74.5042296,76.66883856,38.06784
2016.796833,57.55558515,64.6408069,76.01562184,34.62265
2015.954672,53.54433081,52.51819794,69.32462574,29.42621
2015.11237,43.86693704,36.10425076,57.70358561,21.54924
2014.269927,36.03421674,24.904202,49.00174845,15.25306
2013.427344,37.60900046,22.58869008,47.14409023,16.01151
2012.58462,43.62874867,21.93743721,47.96861847,19.56072
2011.741755,44.40836686,21.85077923,47.03548638,24.45103
2010.898749,47.25382094,25.37403521,47.03736128,34.44693
2010.055603,52.36486227,33.37003575,50.42072589,40.40738
2009.212316,57.91131894,42.44180878,54.2678504,41.14646
2008.368888,65.37516998,51.94874805,56.68432553,44.76195
2007.525318,72.56897958,61.65875053,57.25956577,48.18218
2006.681608,75.76672268,67.44801022,54.64182887,51.52064
2005.837757,74.58343049,70.02486538,49.97223784,54.39562
2004.993765,74.64257404,70.35989775,46.03272536,56.12764
2004.149632,71.67115482,70.86149823,44.27175384,59.90673
2003.305358,69.3726689,73.46472559,45.06274518,60.4512
2002.460943,62.08917605,71.75521171,45.52195097,58.07815
2001.616387,54.71939803,68.59583488,42.94931245,57.62691
2000.771689,61.8759689,70.04543029,41.39053788,59.90327
1999.926851,64.60293958,69.25229386,43.63561103,62.85678
1999.081871,60.91835383,63.96580182,45.59956751,61.83877
1998.23675,59.45856607,60.39580472,46.20045123,59.72761
1997.391487,59.53899118,59.4756538,46.91713019,59.27405
1996.546083,57.58391781,54.69802699,44.65975944,57.19705
1995.700538,50.34252092,44.63445037,39.31607398,52.99064
1994.854852,48.23036593,37.62979349,36.05128581,51.84454
1994.009024,51.06186309,37.58981568,35.74618061,55.49956
1993.163055,57.78394052,40.65245283,36.88951841,57.9807
1992.316944,63.38337121,44.4368655,40.96882451,57.75579
1991.470692,63.17271542,50.746135,47.40318478,57.6716
1990.624298,71.22640344,60.4991943,52.192842,59.49826
1989.777763,79.48910024,67.51660254,53.44528167,60.46796
1988.931086,80.53969964,66.64516333,51.67058053,56.8121
1988.084268,76.74630653,60.88741361,47.1925679,53.01687
1987.237308,65.29883475,53.64837985,41.84984428,51.37992
1986.390206,57.38524451,48.79950454,39.87008554,51.40791
1985.542962,50.96720476,46.49780035,42.408705,52.42985
1984.695577,49.25887576,46.84242948,44.41890215,50.08475
1983.84805,58.70314543,52.63440932,43.22777859,46.46234
1983.000382,66.23291989,58.14494533,43.68693485,45.95793
1982.152571,74.96914599,63.50874629,48.03093561,49.00019
1981.304619,92.00428319,71.32700563,53.1043176,50.87928
1980.456524,100.8535508,74.64806177,58.51396959,48.86819
1979.608288,95.60622954,72.31517977,63.77339098,45.42612
1978.75991,98.56438159,72.42355792,65.84921191,40.69521
1977.91139,110.2111843,78.87372435,66.9739357,42.63904
1977.062728,121.0163748,86.09072031,71.85435164,50.11406
1976.213924,131.1805293,90.05403229,77.91855322,52.07402
1975.364977,136.8644662,93.63587711,80.46865561,52.89951
