Raman shift (cm-1),RP_AS,RP_HS_V2,RP_HS_V3,RP_HS_V4
341.6070517,-49.93544009,-28.10030667,-18.47430933,1.81792
346.7134786,39.79804265,46.30704,23.63709354,13.6228
351.8120798,125.5572788,98.91635333,6.861457959,29.69288
356.9028684,155.4721994,118.26998,35.18156471,1.44659
361.9858576,124.6371888,75.49715667,50.66916837,61.70876
367.0610602,137.646859,68.74838333,56.86404118,11.59438
372.1284892,194.6101202,68.52092667,101.1786947,93.13658
377.1881577,279.4801795,73.29147,104.5815062,84.66979
382.2400784,529.4065453,95.18456333,107.9984704,82.25044
387.2842644,800.1842846,46.29546,68.1467102,82.86187
392.3207284,892.5467219,18.58559,-37.25529433,-37.64617
397.3494833,697.3269406,35.40423667,-4.794992958,8.47189
402.370542,443.4990417,88.44699333,68.76721558,27.19766
407.3839172,343.3406668,120.6729967,28.16015613,-13.45274
412.3896217,228.6276551,98.88363,10.96920429,17.85058
417.3876683,129.8554086,83.56481,19.19245638,37.14725
422.3780697,65.92886262,72.66118333,41.75948304,22.88251
427.3608386,58.13775367,84.14797333,101.0271551,71.64878
432.3359876,107.8111097,78.93359667,131.5866851,119.93815
437.3035295,74.16810524,80.05579667,150.3794062,165.7558
442.2634769,11.59510819,71.04773333,115.1749856,133.83425
447.2158423,26.09804157,29.95613333,61.84452683,55.24152
452.1606383,52.88734643,21.04525333,35.461167,71.25741
457.0978776,8.852183574,29.76285667,-24.0426243,-42.36231
462.0275727,-12.51194276,35.91269,1.765160739,-10.57661
466.9497361,36.1133584,126.4004167,93.23124409,108.329
471.8643802,46.8960033,114.59514,129.2603954,145.09935
476.7715176,75.02630951,124.61619,143.7044232,156.91739
481.6711608,170.3922044,204.7014333,131.0988777,103.88105
486.5633221,236.8567141,278.2033,95.08056656,89.7646
491.448014,232.3925035,232.3688133,65.13069816,50.45084
496.3252488,157.2414545,172.5487933,75.59928931,27.50191
501.195039,99.79761944,115.65152,120.9970865,86.32243
506.0573969,104.6928593,104.0980633,120.0679827,62.89537
510.9123349,59.90518557,104.0310333,45.83305767,40.47689
515.7598651,41.34419067,50.40422,-22.50634341,-61.18971
520.6,51.48769796,53.80741667,-9.621914959,5.17095
525.4327518,71.48640826,67.28735333,57.43553074,103.29475
530.2581327,49.57145502,85.68773333,124.4074112,90.07621
535.076155,63.66505975,111.34033,146.064611,128.90662
539.8868309,33.33970203,148.8237667,133.8862238,96.31269
544.6901726,10.31942717,73.81388667,105.4741368,103.88674
549.4861922,93.02053963,34.32833333,64.7043574,39.72764
554.2749019,69.48712451,37.65433333,46.51738438,65.36927
559.0563139,6.824025724,33.30421,22.34274728,5.61406
563.8304402,7.545175755,23.96027333,53.55074864,12.34625
568.597293,51.58882779,40.90671333,122.2339372,87.05992
573.3568844,26.55857028,17.08269667,87.97275927,122.10816
578.1092263,82.24617808,34.12062667,31.27384,56.39352
582.8543308,148.7743049,89.69588333,10.73837702,14.00134
587.5922101,115.7062625,57.99059,18.01925322,21.81467
592.322876,109.0941171,50.17867333,33.11990977,14.64622
597.0463405,130.5884617,105.0313167,22.24838991,20.39015
601.7626157,82.52224734,80.38852333,60.30136572,68.2344
606.4717135,115.0392382,72.14139667,91.76241904,71.2994
611.1736458,132.4883217,83.9306,33.2971075,15.08346
615.8684246,49.43765821,51.52763667,-18.98103986,-4.61534
620.5560617,72.80168485,13.98730667,8.436611168,-2.27216
625.2365691,78.70050559,15.05979,27.520172,41.12952
629.9099585,20.68618927,20.05856333,-9.227402221,11.07006
634.5762419,38.31146558,36.23897667,0.507453028,51.44942
639.2354312,88.71542372,50.05595667,70.31162283,71.96589
643.887538,29.17846802,126.1175867,138.4934788,193.92378
648.5325743,-27.95074529,155.1053967,148.568572,175.46107
653.1705518,62.03216599,111.8106133,104.1370559,120.56288
657.8014823,41.66458888,67.85491,61.62242811,41.00489
662.4253775,-55.43848696,42.93173667,47.48761458,21.12626
667.0422493,-21.14841009,75.01534333,90.52591282,144.04641
671.6521092,18.89084897,43.35788333,115.1666974,108.51077
676.2549691,6.237628879,59.18468,98.51005107,138.60007
680.8508407,7.592480424,50.85444333,98.39938885,131.7118
685.4397355,32.98054475,24.28198,40.22429075,42.63199
690.0216654,13.54503306,8.915193333,-31.0249867,-35.59228
694.5966419,39.63083957,12.60695333,-3.420354625,-22.89524
699.1646767,24.13314261,-0.953806667,49.26998254,83.18487
703.7257814,23.61621496,41.69023667,77.30934325,77.73706
708.2799676,69.02582403,87.1423,81.598393,74.03042
712.827247,159.7574994,129.0366867,63.76676061,67.56701
717.367631,196.0472578,147.9858967,56.91633413,70.38644
721.9011314,75.20094616,75.38330667,30.5922942,49.26039
726.4277595,27.12702939,14.59378667,4.799651235,-37.00958
730.9475271,51.33407567,8.490276667,4.366277238,17.79279
735.4604456,44.56994651,19.69288,-3.613997368,6.82355
739.9665264,96.94241718,65.08185667,34.04319937,62.95193
744.4657813,94.02538422,71.64887333,96.35628793,78.20475
748.9582215,20.97342091,48.24738,100.5736254,73.84156
753.4438587,1.619891461,4.76117,56.59710324,28.77708
757.9227042,-13.59282408,-6.699373333,-13.0997479,-14.39817
762.3947696,-46.01278151,29.89458333,-31.13726326,-10.54288
766.8600662,17.36304769,-9.460836667,50.32745704,38.01299
771.3186056,128.1770544,77.43681667,105.544842,121.09296
775.770399,65.86201984,88.19710333,94.81438727,75.97504
780.215458,21.81901086,57.88227667,100.6342118,118.67141
784.6537939,19.77722023,49.64512667,53.62162584,82.26235
789.0854181,36.08862389,48.38757333,-29.65379775,-17.813
793.510342,96.16643857,42.93308,24.72899526,26.85696
797.9285769,107.7573754,42.10087333,102.6084313,126.75597
802.3401342,54.28727634,50.87237,41.91558331,45.05534
806.7450253,94.12400456,52.67260667,-14.04771024,-0.1988
811.1432614,95.29266494,71.65968333,7.29141273,-3.22718
815.5348538,18.40453554,42.58833,21.1340449,12.00012
819.9198139,50.30818829,73.29794,15.70714305,29.8557
824.2981531,58.50573295,75.72981667,27.56802363,28.26864
828.6698824,47.83389269,91.31733,56.23481972,93.14359
833.0350133,-25.78033317,93.14053667,42.63212058,78.87658
837.393557,-27.09080302,35.79468667,-4.080846112,5.22439
841.7455248,47.70776099,50.19762667,0.952807297,38.10083
846.0909278,14.2573055,45.47441667,31.08507376,69.9298
850.4297774,-9.259599235,8.968316667,7.937924842,52.88777
854.7620848,23.19602342,2.911366667,-30.06115667,-31.28899
859.0878611,12.90094129,-8.542233333,-17.68361911,-5.60052
863.4071176,60.39415859,-12.40949333,5.79978583,11.77704
867.7198655,145.6451068,37.67504333,6.847912084,-36.88674
872.026116,189.4601455,82.70536,31.88510567,16.59921
876.3258802,196.271505,108.4068333,63.14061374,100.90041
880.6191693,137.319488,138.0820067,73.62244257,88.84749
884.9059946,194.9014216,186.2155,108.6215532,118.70479
889.186367,186.349673,198.0759633,86.96430664,101.40277
893.4602979,9.822330853,120.9964267,10.39349581,17.85352
897.7277982,-12.01690567,62.94611667,22.28876952,47.97677
901.9888793,122.5740456,42.70527,48.22539964,10.36458
906.2435521,120.1066493,66.82516,57.38530296,25.68046
910.4918277,78.46146614,108.98996,86.57026297,51.48302
914.7337174,52.97316305,87.80247333,81.13643194,56.59511
918.9692321,15.73167311,86.27775667,78.20573431,36.78569
923.1983831,32.08803635,78.3382,88.25304571,39.16602
927.4211813,45.15778479,44.70820333,113.8217106,127.982
931.6376378,83.24586769,52.38550667,125.3144465,195.27931
935.8477637,75.01838186,56.53617,69.66943929,56.63819
940.0515701,29.76896307,55.47015667,40.60911585,56.16325
944.249068,11.85998185,6.597206667,48.64193878,-8.89663
948.4402684,11.31260875,12.19108667,12.72767681,-38.47022
952.6251825,-0.347067414,49.81932667,-17.49669152,32.6853
956.8038212,44.94097567,44.28222333,29.03886357,65.18323
960.9761955,69.331214,37.27010667,77.42462597,98.772
965.1423166,87.01562971,34.00591667,82.5628371,61.08321
969.3021953,62.45537146,43.62200667,100.5756164,92.57263
973.4558427,35.86640573,62.60491333,83.56504803,48.04937
977.6032699,46.51254929,55.68507667,40.40101856,15.11614
981.7444877,34.68124913,38.16672667,32.71226033,35.10757
985.8795072,38.01426172,27.26851333,14.18722421,23.96731
990.0083394,-27.26713839,-6.579866667,2.036221017,27.15007
994.1309953,-48.00171606,12.93127,8.445729421,38.37383
998.2474857,-10.45645404,44.52246,-18.26061188,19.30118
1002.357822,10.95431213,36.66717333,-41.44527954,-31.37471
1006.462014,91.74890289,93.91104333,-14.14602302,36.52362
1010.560075,140.4708562,115.2773933,16.8302628,66.93084
1014.652013,63.04331362,80.83152333,29.68646647,74.79365
1018.737841,66.51316646,47.77924,35.23479905,120.8782
1022.81757,97.81340654,80.23638667,29.09060127,104.28565
1026.891209,54.20081606,96.96308333,44.93023241,139.66387
1030.958771,28.32113194,63.30227,54.53607348,113.65545
1035.020266,40.56382928,80.81324333,31.58793397,135.48458
1039.075705,20.59257179,62.86900667,4.845089784,60.95638
1043.1251,16.15060057,47.34208667,-8.707475615,24.68904
1047.16846,43.965573,43.788,43.34016301,80.10685
1051.205797,42.8840101,-7.07133,69.01232258,135.34101
1055.237121,20.1623263,4.028136667,7.778301688,37.76795
1059.262444,72.1833457,124.51819,7.467151122,8.08078
1063.281777,260.0212395,296.3284467,102.5315999,73.63398
1067.295131,636.4501562,581.6507767,259.4277845,213.09541
1071.302515,1028.620293,824.41516,391.9802588,454.09371
1075.303942,1204.228746,803.84628,373.8809377,432.75894
1079.299422,1196.789967,658.34293,256.5975652,355.05349
1083.288966,839.8171616,434.9556967,129.4550838,180.72434
1087.272585,427.3863173,186.63202,2.020611737,38.03921
1091.250289,229.5609856,55.59183,-55.52306812,-33.00664
1095.222091,53.93762411,2.924113333,9.912418994,15.91977
1099.187999,-17.66477161,16.50276333,62.47153032,38.64532
1103.148026,10.53600631,23.07815,29.6098985,38.61209
1107.102183,-15.06221592,18.77232333,11.91559837,3.2778
1111.050479,22.62621804,27.16596,48.76109281,9.13722
1114.992927,33.82422848,42.74302,85.89807688,58.1932
1118.929536,6.115153286,97.36569333,78.24428985,29.2414
1122.860318,90.48647355,191.6128867,61.80535257,28.77197
1126.785283,222.6763445,355.59946,111.684847,52.59183
1130.704443,444.1103443,681.6045333,269.6517535,213.19443
1134.617808,758.2930081,1046.886853,476.9013617,419.3262
1138.52539,976.6622285,1286.77818,594.7082928,569.0083
1142.427198,966.8189164,1243.942653,558.5660899,523.0221
1146.323244,703.7757122,923.0160833,409.161543,408.53461
1150.213538,377.4501456,564.72398,191.2393233,189.44025
1154.098093,206.0012174,298.3801067,19.88929196,56.36376
1157.976917,137.7179151,176.7548867,16.63437981,59.39134
1161.850023,74.32847614,93.78884667,45.27730641,47.18426
1165.717421,40.21324652,38.42502333,6.844451195,1.25043
1169.579121,58.708287,-6.27963,0.010637837,2.60747
1173.435135,60.20894635,-8.728036667,2.426076917,-13.46479
1177.285474,57.96605032,7.931186667,-11.3863373,-10.97975
1181.130148,105.5719719,71.65823333,-1.592669109,33.22442
1184.969169,186.4517434,173.69682,25.7603129,34.8361
1188.802547,173.7219677,211.6528767,72.71805544,89.62374
1192.630292,103.7943511,211.9440267,86.82273564,126.77558
1196.452416,108.408521,182.5881967,50.67261158,114.92443
1200.26893,74.00737175,139.8082567,44.81615931,76.0468
1204.079844,-36.28210869,91.94703333,41.78724906,34.66959
1207.88517,-24.65570019,47.96096333,-12.80304676,-5.08077
1211.684917,0.508814132,9.81904,-21.98491112,-42.52128
1215.479098,56.43549993,59.04439,50.01996556,53.96748
1219.267722,139.1868216,107.7997667,65.39700088,140.7096
1223.050801,70.36624726,61.32237667,11.82684371,41.57544
1226.828346,3.225973553,61.46307667,-8.925369682,-13.48389
1230.600366,69.42098029,50.09659,-4.522901482,7.63026
1234.366874,137.6935006,47.65698667,16.58530913,14.24456
1238.12788,52.9217766,49.96421333,22.77491452,5.3806
1241.883395,50.2595111,34.80828333,16.90637879,19.13687
1245.633429,117.5456418,76.81380667,61.49035535,80.2552
1249.377994,60.89886036,60.67615333,54.82975881,78.62397
1253.1171,68.1162916,62.75620667,9.21810499,13.84683
1256.850759,56.19796456,38.79308333,28.76588085,25.00869
1260.578981,1.186902332,28.4372,32.03511842,39.5459
1264.301776,124.1787221,62.50609,28.89378934,47.7949
1268.019157,167.7826921,82.46952333,26.86252475,43.24045
1271.731133,52.57756961,47.95950333,-18.15335713,8.20645
1275.437715,49.69894458,40.13593667,-1.129657749,20.21307
1279.138915,55.85360203,46.34136,73.19366615,123.81086
1282.834743,36.2175559,44.61571667,75.11084405,64.10733
1286.52521,41.61916126,20.75142,2.759425176,0.93734
1290.210328,-9.76712633,2.19131,-37.44098013,-24.85929
1293.890106,-13.57663711,17.99954667,1.931777469,5.15802
1297.564555,62.33006814,87.61676,62.30226409,122.24099
1301.233688,135.1054784,83.23942333,85.50012865,96.76306
1304.897514,124.0123905,86.97404333,81.03916043,109.48529
1308.556044,141.9555762,153.3181267,80.33878399,118.29843
1312.209289,145.1766572,118.27619,75.0049798,119.47869
1315.857261,49.49040488,68.55244333,74.43310315,69.35981
1319.499969,53.69323978,31.05567,57.02074029,18.90694
1323.137425,109.3612209,19.96713667,0.953123211,33.82351
1326.769641,112.4410471,12.78363333,-13.48967694,18.21885
1330.396626,38.68349869,26.05826667,21.79147753,61.33065
1334.018391,5.186865456,18.21389333,49.85433839,44.08229
1337.634948,42.83265546,26.56801,36.38692155,17.45702
1341.246307,21.15669994,19.59783333,2.569193578,3.3488
1344.85248,-19.84671288,47.46230333,25.64679769,37.65397
1348.453477,-15.97765823,57.66941667,46.0173264,30.67158
1352.049309,-3.391648747,30.27958,10.49678551,1.55413
1355.639987,58.36977841,9.599706667,4.457797348,28.65514
1359.225522,125.9447052,28.91509667,11.37982531,45.93107
1362.805925,67.33174406,51.53271667,3.475459586,39.44463
1366.381207,13.90214594,81.99880333,34.95391613,24.49516
1369.951379,71.66574511,114.9474167,70.80071224,60.60026
1373.516452,120.690798,94.89636,96.12513198,77.56303
1377.076436,185.2076473,215.96449,164.351124,187.25614
1380.631343,284.4237421,369.0017033,240.2206611,241.54698
1384.181184,367.157206,504.85777,277.2064636,261.63079
1387.725969,468.1704633,626.7661,298.1027821,283.97331
1391.26571,449.1897952,556.5987667,265.2354326,219.10396
1394.800417,313.8144316,389.5483,165.8714222,123.38167
1398.330102,224.8420939,232.0400833,115.2811361,136.33832
1401.854776,140.9545428,90.24689333,84.4972986,75.39875
1405.374448,46.87628713,2.490236667,-3.850279633,-3.76892
1408.889132,-3.710948455,-9.55516,-51.0083471,-14.92017
1412.398837,-43.52089631,16.68089,5.783388338,-8.85632
1415.903574,94.33272207,182.6590567,133.0318464,129.9503
1419.403355,317.1857566,381.8315467,233.7851471,209.0005
1422.89819,447.5690775,560.0612933,307.589565,293.67694
1426.388091,545.311363,805.35637,409.7381358,416.20293
1429.873069,592.7938438,902.56078,396.2829302,403.6527
1433.353134,498.8323143,791.3577,314.0132241,324.75687
1436.828298,401.314525,608.02476,300.8341524,294.36541
1440.298571,254.939085,424.13569,218.4465998,201.3947
1443.763965,106.699846,297.9034333,98.67016436,104.97399
1447.224491,32.5476659,197.5387033,39.06995564,41.17263
1450.68016,60.32341032,141.0641333,1.422681197,-22.22647
1454.130983,159.6218275,114.1662,23.05377198,24.69953
1457.576971,43.67760902,87.86091333,51.4480673,93.29971
1461.018135,22.46818829,85.15141667,55.90973346,74.68179
1464.454486,36.35612772,98.10674,93.11494799,138.82247
1467.886036,14.2123079,52.79692,70.48732984,89.7317
1471.312794,26.71731217,48.58475333,-15.82746042,-30.20095
1474.734774,54.45199516,43.63329333,-35.73818811,-25.60491
1478.151985,99.51346913,65.17958,-1.235964955,25.29998
1481.564439,89.61859886,51.32603333,24.67959367,55.51222
1484.972146,12.35460932,27.46334,11.47566729,77.86074
1488.375119,-28.95488446,-21.60799333,3.579132877,7.05379
1491.773368,2.922309972,-1.00836,29.6618728,3.21756
1495.166904,77.1664606,25.19408667,21.37020919,38.54832
1498.555739,104.3394695,-3.577956667,30.16412909,42.30282
1501.939883,41.25859185,42.30917333,38.7921933,63.44484
1505.319349,-0.085976096,24.60860667,-7.20703787,12.38003
1508.694146,15.0753237,63.11480333,6.306342228,14.7153
1512.064286,98.70103997,90.05980667,53.72621512,41.84657
1515.429781,123.9258853,96.99535,66.63567462,113.6316
1518.790642,25.64396559,64.43018667,72.68145838,90.02635
1522.146879,-75.19370854,30.43980667,29.7590996,63.33457
1525.498505,27.8154693,5.726373333,-41.03209903,-32.64678
1528.845529,67.85352438,39.42462667,-31.08007153,-22.06656
1532.187965,47.13023529,46.07376,30.23223053,26.27393
1535.525822,74.77328184,33.25280667,67.6587226,65.30409
1538.859112,76.27621538,44.89007667,103.5450698,142.07018
1542.187846,111.7917318,64.33187333,120.1927384,130.61332
1545.512036,126.5855236,57.39474667,84.99030586,98.1061
1548.831693,178.9201166,38.00861333,50.50527223,69.76595
1552.146829,193.9667973,59.77230667,50.54085638,67.80239
1555.457453,150.107307,75.39629667,39.12699707,48.81736
1558.763579,165.04545,95.84966333,11.74719535,27.40909
1562.065216,238.7368042,96.83108333,18.64265091,35.88262
1565.362377,315.95497,139.8983033,61.32333659,108.07467
1568.655073,381.8633317,181.3565367,96.49311189,131.07817
1571.943315,441.4574689,240.9709967,109.1532128,102.38613
1575.227114,480.7669403,286.70373,149.6596843,170.34478
1578.506482,496.2185823,278.6554867,196.5448918,188.00188
1581.781431,552.173513,283.8829333,169.4694952,178.77783
1585.051971,552.8849405,209.2583467,116.774286,145.48489
1588.318114,487.6770205,207.6868267,128.9917373,124.83407
1591.579872,469.4381403,211.2817867,180.7050431,217.94363
1594.837255,391.8237411,162.7813233,201.0603196,177.84411
1598.090275,258.2496374,134.2356267,175.0191815,118.3519
1601.338945,275.0965913,160.93679,141.8897408,89.42535
1604.583274,243.8791734,120.8841167,133.1811397,148.27214
1607.823275,44.79698471,44.99484667,71.6475614,86.59418
1611.058959,-16.78413454,-17.10458,-32.27779076,-47.86137
1614.290338,-34.00092209,-63.37963,-40.94577103,-30.6214
1617.517422,-54.82278586,-17.52306667,1.201608988,-14.19549
1620.740224,64.7318585,69.95653333,62.26631499,32.2684
1623.958755,154.6465671,95.21038667,152.679075,111.94577
1627.173027,65.19694743,94.92692,163.9777202,142.69165
1630.38305,17.06468914,125.5975367,149.5726079,104.86745
1633.588838,28.64016823,67.91973333,171.0393271,106.74471
1636.7904,69.59326054,60.12823,155.8919279,106.97603
1639.987749,113.021139,104.7093967,117.3788085,98.4979
1643.180896,52.08963411,90.41485333,90.62569267,79.27598
1646.369853,29.37844116,76.48489,103.7067327,76.7096
1649.554632,54.79349976,88.8303,119.7623706,72.26651
1652.735244,32.35124573,29.31623667,58.75014372,5.25443
1655.9117,1.425216387,19.29741,-5.289824916,10.55023
1659.084013,10.62425617,57.70239667,25.66012958,21.7489
1662.252193,40.3041685,89.88085,75.76879774,69.63408
1665.416254,53.24699006,85.79154333,54.26133282,32.39649
1668.576205,77.57943678,49.54154,46.93690938,29.07794
1671.732059,82.96093061,66.28669333,72.11604044,56.6402
1674.883828,76.76624742,52.56913667,44.5190231,58.31189
1678.031523,34.83947706,26.92327667,38.70614698,20.01953
1681.175157,4.094789332,46.89185333,46.27594491,13.79753
1684.314739,36.82663577,16.67569667,-24.14304077,-14.50216
1687.450284,-0.906208088,21.5805,-35.01898629,-58.46959
1690.581801,-26.29451627,21.12783667,36.8300208,61.91469
1693.709304,4.217505588,-2.68179,30.88529987,11.21737
1696.832803,24.25469159,9.053713333,5.104448909,-4.3372
1699.952311,14.21099883,32.75318,32.37727684,16.97102
1703.067839,79.5284193,60.13875667,49.52951394,38.14151
1706.179399,119.711492,56.55264333,48.10920153,53.39545
1709.287003,94.17858236,51.19332667,56.54833309,38.4279
1712.390663,88.00696022,60.88005667,74.87097244,30.19769
1715.49039,67.79870128,57.96029,69.84924568,51.38634
1718.586197,78.83073774,62.43502333,44.67952458,30.72021
1721.678095,84.88769757,14.52780333,0.516938057,1.24391
1724.766096,-6.45536655,-23.00505,-37.78441714,-30.22677
1727.850213,-41.94150321,-32.44212,0.687925693,6.38164
1730.930456,7.802342967,30.41943333,39.62382782,31.72728
1734.006838,21.43335864,64.78452,1.93972236,3.1419
1737.079372,43.22198823,8.574803333,-27.52329257,-27.24167
1740.148067,71.88034011,66.61709,12.50544858,8.17971
1743.212938,93.83593662,69.32846,58.08934667,126.81671
1746.273996,63.67837255,52.15785667,69.76341129,82.61557
1749.331252,14.40492685,76.12636333,72.57988344,86.37097
1752.384718,24.28762541,42.27715667,32.9563979,44.97446
1755.434408,60.2539826,32.39477333,0.585097494,46.47141
1758.480332,64.58705981,60.02309333,48.63893605,63.51559
1761.522503,83.87058026,29.30494333,78.79961389,69.15502
1764.560933,61.85465719,36.17626333,29.73852225,24.74042
1767.595634,1.433518169,28.17484667,-18.61061862,-28.26923
1770.626618,-12.13887527,21.94813333,-0.343242346,-10.43627
1773.653896,9.541820979,57.26511667,53.73584978,51.60225
1776.677482,0.792996705,45.24990333,67.13662826,69.39386
1779.697388,-20.21861636,-0.060433333,19.74036217,23.53421
1782.713625,8.155475488,3.55618,-16.61737454,-16.62028
1785.726205,45.04016681,31.65868667,-1.093536497,52.97341
1788.735141,73.84049089,51.39307667,4.685975598,45.29043
1791.740445,72.97139903,42.91947667,-7.78470558,5.3862
1794.742129,43.31228945,50.72607667,37.37159363,50.40495
1797.740206,48.72098152,73.75277333,85.84134669,78.6579
1800.734687,71.79840447,45.36253,33.37247233,57.74041
1803.725585,67.23144065,37.25754333,-16.00065909,-5.59793
1806.712912,14.12735615,33.2474,9.183459901,18.04419
1809.69668,10.51132676,41.09689,17.98852207,25.71038
1812.676902,29.06003578,38.21671667,11.3300856,18.25469
1815.65359,-25.56555398,-8.105426667,14.8626532,23.19538
1818.626756,17.15923557,1.142743333,-5.615500424,-1.77744
1821.596413,39.17468598,9.41167,-31.35744754,-59.06181
1824.562573,-8.850859151,17.94839,-18.09864703,3.15298
1827.525247,45.32471193,40.69034667,4.925714363,18.3762
1830.48445,74.84044158,28.54782667,4.651376358,19.03853
1833.440192,-5.636329876,27.84251333,3.644786215,21.99424
1836.392487,-6.745878855,31.44708667,7.942240102,44.61451
1839.341347,31.55849219,36.54309333,29.20480134,41.67193
1842.286784,51.90343886,45.38115333,40.63835703,33.29976
1845.22881,93.73874958,39.39648667,32.42753646,40.85916
1848.167439,70.84597029,26.58575,62.29802039,63.39728
1851.102682,45.67488911,44.28781667,63.97293918,91.32785
1854.034553,-8.368408104,21.63103333,6.840810424,23.92003
1856.963063,-14.27889453,7.337066667,15.44172625,46.6327
1859.888226,73.17103704,65.21182667,84.77496895,85.64109
1862.810053,81.45042671,33.27165667,94.07278773,98.44595
1865.728557,51.65581116,11.79558333,38.21892517,65.53863
1868.643751,11.26894786,57.13506333,-5.31202895,2.95421
1871.555648,-12.56076634,14.10946667,-15.92109355,-17.87603
1874.46426,2.164514995,-1.164843333,-10.74356764,-11.68502
1877.369599,6.20715945,17.72344333,17.34062305,85.37823
1880.271679,30.64932633,13.88988667,38.02332105,49.30864
1883.170512,26.07421881,13.73343333,19.8496874,9.86974
1886.06611,13.56342183,29.29814667,27.21513688,29.68621
1888.958487,3.456226497,55.80646333,32.31023046,17.77311
1891.847655,1.267681253,6.77605,-15.6358328,-4.05542
1894.733626,-3.578595532,-11.66038333,-10.38303576,24.17038
1897.616414,-10.49030475,34.53481,20.07405476,43.96884
1900.496032,15.83883049,32.57330333,2.985931632,25.23345
1903.372491,28.96702064,44.90104,3.363066511,4.86187
1906.245805,60.99071828,18.46047333,19.57020787,72.31592
1909.115987,64.05881365,5.648273333,30.44499233,103.1381
1911.983049,37.57315681,30.12629333,28.74913216,45.68754
1914.847004,28.23900949,28.81967,22.8908906,38.93133
1917.707866,-18.89785456,21.18856333,49.73242471,80.35523
1920.565646,-12.07652992,36.18616667,55.80897012,79.85092
1923.420359,14.4775869,42.40192,18.5312612,8.45194
1926.272016,8.565608755,14.79992667,-13.37463657,-13.32927
1929.120631,37.94395073,17.41933,-37.70327892,-24.89696
1931.966216,58.86623787,36.34543333,-15.64650531,-11.75224
1934.808786,49.43528977,1.473466667,41.69534295,35.51154
1937.648351,13.84978227,11.68698,41.79004476,24.54869
1940.484927,6.942243451,55.16861,32.7910797,6.08757
1943.318525,30.01461927,55.22550333,63.64645014,50.51079
1946.149158,71.80256097,57.90437333,87.5311363,60.97881
1948.97684,131.7326946,69.32721333,104.591231,85.04479
1951.801584,121.7381531,59.08735667,95.12433361,61.42367
1954.623403,36.81212967,40.39635667,47.28549459,58.04289
1957.44231,-3.462676538,16.72381333,0.430115123,-9.43118
1960.258318,-15.83991544,10.00038667,-9.148098791,-4.027
1963.071439,-21.80595822,27.16829333,34.33633957,35.56851
1965.881688,45.69918329,35.20249333,51.57893137,4.42893
1968.689078,122.3260854,30.45713667,13.73241203,9.47904
1971.493621,67.08158422,9.991083333,9.935385359,20.08497
