Raman shift cm-1,4ATP_10uM_rep3_acc1_processed_intensity
-93.47115107,533.6714179522573
-87.69374369,71.2412578289751
-81.9253076,-81.83683691589172
-76.16582701,-8.702190716117363
-70.41528615,46.6248586521201
-64.67366933,7.469845658676741
-58.94096086,-52.70592984132917
-53.21714512,-51.58596300437503
-47.50220652,44.693510043574605
-41.79612954,170.38178353534258
-36.09889866,213.92823214349505
-30.41049843,183.88065910585294
-24.73091343,154.78855201822574
-19.0601283,119.78747998008322
-13.39812769,41.68020527680533
-7.744896327,3.2842277242907922
-2.100418946,108.83670571032357
3.535319659,210.0273297797712
9.162334658,130.34628007118872
14.78064118,-11.7149201263705
20.39025432,-45.16059224033827
25.99118913,61.19192071888714
31.58346061,191.9335054147251
37.16708375,169.43327786713616
42.74207347,55.116981793978866
48.30844468,20.006248542116715
53.86621222,-11.12800675705148
59.41539093,-101.91867794896139
64.95599558,-52.45773691938558
70.48804091,129.21632436204624
76.01154164,110.26546956066709
81.52651243,-26.88582723849867
87.03296792,61.99026835533486
92.5309227,163.07043059050804
98.02039134,41.826656684080284
103.5013884,-16.452809075003962
108.9739282,41.72389663858763
114.4380255,51.291296627292496
119.8936944,183.12486021526774
125.3409495,329.64450053115473
130.779805,115.44854444875563
136.2102753,-142.54869128291543
141.6323747,-45.63017884861977
147.0461174,74.4049464868766
152.4515176,-8.563983758591984
157.8485895,-67.74761686764002
163.2373472,-17.44702525252176
168.6178049,55.35773417139086
173.9899766,63.94730171462021
179.3538764,-5.13430339361274
184.7095182,-20.22142942413538
190.0569161,37.204467215037596
195.396084,28.472840655355185
200.7270358,-27.666074087797398
206.0497854,-28.20093513313485
211.3643466,7.662645057919292
216.6707333,17.626880427013987
221.9689593,-13.404793640224625
227.2590382,-23.69821154408666
232.5409839,52.32485099595266
237.8148101,162.94255077618243
243.0805303,225.0447124628462
248.3381582,261.7670701226817
253.5877075,349.0456949169401
258.8291917,473.31882554646785
264.0626244,564.4261431849578
269.288019,633.9086710705268
274.5053891,677.877476344932
279.7147481,641.8745376458842
284.9161094,584.1021148941726
290.1094865,573.3461289623373
295.2948927,550.5842763233666
300.4723414,391.4986087524267
305.6418459,72.51741135470411
310.8034194,-130.2015483802698
315.9570752,26.051739791232762
321.1028267,316.7581062940834
326.2406869,451.4079174775949
331.370669,483.3260157936879
336.4927863,560.904266766737
341.6070517,719.6472757655632
346.7134786,899.6544094185888
351.8120798,1001.8178639265436
356.9028684,1043.7220997001882
361.9858576,1155.080435175299
367.0610602,1368.863336005562
372.1284892,1700.701319558425
377.1881577,2658.2681642372027
382.2400784,5151.038131288182
387.2842644,8734.391938271518
392.3207284,10872.483624377459
397.3494833,9923.017454754918
402.370542,7191.483273197058
407.3839172,4609.525235108743
412.3896217,2755.71905082749
417.3876683,1561.7892553752795
422.3780697,922.8711495383894
427.3608386,600.9040554703977
432.3359876,438.06776365742513
437.3035295,406.7514257272443
442.2634769,342.82484821709875
447.2158423,178.7453079506734
452.1606383,57.32821107167359
457.0978776,-23.292998317046496
462.0275727,-73.2768107296506
466.9497361,-32.9153292659115
471.8643802,14.291762006756436
476.7715176,35.64431678473963
481.6711608,96.15454892786653
486.5633221,164.02141097920753
491.448014,131.35763440478388
496.3252488,13.380387190425495
501.195039,32.52822127563732
506.0573969,180.34876432579733
510.9123349,141.4600358018522
515.7598651,12.719066388854579
520.6,114.19620515240689
525.4327518,195.51999020771376
530.2581327,28.984140057884456
535.076155,-2.009005932520818
539.8868309,166.67958218432457
544.6901726,196.3551928948511
549.4861922,227.16261742837366
554.2749019,273.13149757914596
559.0563139,22.71396184065972
563.8304402,-134.95806235781407
568.597293,105.85510064026236
573.3568844,187.54770669147632
578.1092263,6.797997673079273
582.8543308,7.518966776253421
587.5922101,65.2317834155394
592.322876,-27.143638000518017
597.0463405,-23.391460546490805
601.7626157,65.5518918732384
606.4717135,-16.19488621817386
611.1736458,-103.15259030412373
615.8684246,-7.257444672324188
620.5560617,52.813288840891346
625.2365691,55.12727834136519
629.9099585,239.97747801858796
634.5762419,496.4527019361772
639.2354312,539.3082465273187
643.887538,370.1114432553999
648.5325743,204.9776509983438
653.1705518,152.82840330560776
657.8014823,63.20919709583266
662.4253775,-78.77395543531081
667.0422493,-52.64490402330756
671.6521092,50.213300262142496
676.2549691,9.62003157140294
680.8508407,-49.53752035491753
685.4397355,-32.6790938398384
690.0216654,-26.746241815678573
694.5966419,70.95654289330359
699.1646767,332.3418394076349
703.7257814,515.650881108694
708.2799676,468.32080586471096
712.827247,308.0844663126778
717.367631,150.16156773748014
721.9011314,40.57279136857643
726.4277595,-1.4888936853255785
730.9475271,9.969098781838255
735.4604456,66.40922291538458
739.9665264,137.96540874799177
744.4657813,151.14064826915953
748.9582215,60.65708025948543
753.4438587,-76.26251963834596
757.9227042,-115.16004617738025
762.3947696,32.63781238355124
766.8600662,282.38538344624055
771.3186056,441.34975362788185
775.770399,462.5687403412991
780.215458,446.51640390837497
784.6537939,384.2496835579998
789.0854181,383.0170846642785
793.510342,683.4296842110039
797.9285769,1092.834169964531
802.3401342,1255.9663663106994
806.7450253,1208.9767400120586
811.1432614,1041.8849517121473
815.5348538,770.2066076217711
819.9198139,581.3168899568491
824.2981531,544.9562243309313
828.6698824,451.1406195591642
833.0350133,255.97973407680075
837.393557,167.47814108889602
841.7455248,168.52909708179038
846.0909278,66.33065101342825
850.4297774,-33.32578354358248
854.7620848,16.74242881902276
859.0878611,19.711320242014654
863.4071176,-94.84323163667209
867.7198655,-38.98973033753683
872.026116,169.8303271784559
876.3258802,164.36794911595226
880.6191693,51.70676558721162
884.9059946,157.51678943849535
889.186367,213.63098651006916
893.4602979,22.098846470336156
897.7277982,0.8506459669055175
901.9888793,253.0268333656693
906.2435521,345.44656031604825
910.4918277,206.2433352678817
914.7337174,190.43267466899331
918.9692321,372.42019471771476
923.1983831,530.5036701703445
927.4211813,617.0352388864749
931.6376378,681.3405060585004
935.8477637,695.2292169523205
940.0515701,694.0129196290314
944.249068,727.273386586434
948.4402684,781.72055606918
952.6251825,902.1775132625181
956.8038212,1129.3170336210997
960.9761955,1270.370408989113
965.1423166,1189.1131933093193
969.3021953,1147.3486037301573
973.4558427,1220.9335655361954
977.6032699,1174.4307168951614
981.7444877,1083.247671555367
985.8795072,1045.1568993076978
990.0083394,961.9928322349352
994.1309953,919.9817774766473
998.2474857,993.4674589619568
1002.357822,1103.8969100616096
1006.462014,1128.8502530013157
1010.560075,921.5375296209206
1014.652013,577.1391084278405
1018.737841,291.019651462732
1022.81757,56.14531101029482
1026.891209,-42.04551431511034
1030.958771,73.8219354696013
1035.020266,112.1798416884886
1039.075705,-46.24252520929187
1043.1251,-55.591840273834634
1047.16846,123.52598648947082
1051.205797,189.14042595609476
1055.237121,202.33436745706783
1059.262444,417.702146078606
1063.281777,1104.7023452627225
1067.295131,2727.169321012989
1071.302515,5431.224525064997
1075.303942,8404.86391402611
1079.299422,9858.389676817214
1083.288966,8427.427854270158
1087.272585,5127.955041790324
1091.250289,2306.2425655579905
1095.222091,890.0449309032529
1099.187999,359.7179273827236
1103.148026,179.11816137828794
1107.102183,100.2357000741896
1111.050479,19.31726738255938
1114.992927,-34.758954704342
1118.929536,30.44771944610829
1122.860318,221.37447511923295
1126.785283,515.8445715157961
1130.704443,1082.4667815966334
1134.617808,1972.76217329601
1138.52539,2758.524169590269
1142.427198,2888.138864680977
1146.323244,2313.542530503581
1150.213538,1556.5317309186823
1154.098093,986.4104450908369
1157.976917,598.1386360794853
1161.850023,481.9448594777879
1165.717421,642.3249368943369
1169.579121,855.696571602827
1173.435135,1060.3430869445542
1177.285474,1373.30777401447
1181.130148,1766.8729206386038
1184.969169,1869.6462209680762
1188.802547,1432.1136849623383
1192.630292,856.5341490824497
1196.452416,551.5521389834793
1200.26893,339.19009958498697
1204.079844,62.47710793499926
1207.88517,-101.28040419827931
1211.684917,-27.528709606439747
1215.479098,192.57010263628143
1219.267722,249.33521741944466
1223.050801,64.87629854242006
1226.828346,24.775745493960336
1230.600366,166.8644110077118
1234.366874,166.47631201835907
1238.12788,148.23365565210372
1241.883395,380.8730597194834
1245.633429,620.2478518578811
1249.377994,519.9375447398189
1253.1171,280.5646067241057
1256.850759,210.9592906453126
1260.578981,189.28957409122043
1264.301776,109.25583462076148
1268.019157,31.101992105888094
1271.731133,-57.617049196409795
1275.437715,-27.66013840897746
1279.138915,199.4349354470236
1282.834743,301.4589771305705
1286.52521,121.70425698190303
1290.210328,10.310278672029945
1293.890106,144.93484950985567
1297.564555,250.01350726630645
1301.233688,212.61381189240709
1304.897514,241.74544338915481
1308.556044,311.6903502987838
1312.209289,176.71897629823218
1315.857261,-29.514147672546827
1319.499969,17.814592692573058
1323.137425,197.16914686196068
1326.769641,225.11672453492338
1330.396626,124.25490782161275
1334.018391,30.73080829857042
1337.634948,17.129768580143526
1341.246307,52.787993214957226
1344.85248,33.90859497033581
1348.453477,-47.28682389298649
1352.049309,-46.70480369647708
1355.639987,140.29717851013223
1359.225522,330.07103156081445
1362.805925,342.5194159380966
1366.381207,323.7379302770064
1369.951379,382.2182711338302
1373.516452,471.99324132420867
1377.076436,600.5642567198868
1380.631343,796.2151087965715
1384.181184,1119.044408875386
1387.725969,1484.9982857153705
1391.26571,1569.35245249103
1394.800417,1290.4651460981333
1398.330102,929.7574180118617
1401.854776,644.1478586599021
1405.374448,347.5118208207188
1408.889132,31.062911585137485
1412.398837,-86.3468803824566
1415.903574,122.02951491131671
1419.403355,429.30627529630885
1422.89819,743.8792510030828
1426.388091,1281.2442129627502
1429.873069,1821.8998565500706
1433.353134,1894.5719971194737
1436.828298,1601.6171848496288
1440.298571,1202.038052301476
1443.763965,684.6110704422479
1447.224491,228.1317393834303
1450.68016,64.66703952643951
1454.130983,37.08286986660087
1457.576971,-21.276696369083055
1461.018135,-17.612305889404908
1464.454486,26.19408996373079
1467.886036,-16.42298452720945
1471.312794,-61.73126646531548
1474.734774,37.350366006939225
1478.151985,214.0306661030852
1481.564439,253.53320536690157
1484.972146,118.85119285976472
1488.375119,69.08262486477028
1491.773368,209.61634461193725
1495.166904,253.8696476771792
1498.555739,98.40858008492852
1501.939883,-22.555110567720185
1505.319349,-40.53891723246452
1508.694146,-19.383283668072963
1512.064286,13.066104792449348
1515.429781,38.738007325203284
1518.790642,91.64930860943356
1522.146879,49.19210235072164
1525.498505,-138.47756400653418
1528.845529,-159.5755707389701
1532.187965,7.76299962893296
1535.525822,74.85767161735856
1538.859112,56.440782366157805
1542.187846,74.95959177758456
1545.512036,214.6261826466277
1548.831693,442.8725075586828
1552.146829,453.1958456637047
1555.457453,249.74884750639836
1558.763579,247.24656416150415
1562.065216,553.5242990073383
1565.362377,952.7727140935874
1568.655073,1283.2466176935823
1571.943315,1530.3962749408242
1575.227114,1853.0025779408536
1578.506482,2371.252435405536
1581.781431,2994.0920261062506
1585.051971,3632.578173714739
1588.318114,4146.685265893185
1591.579872,4150.468208967419
1594.837255,3419.6503866603457
1598.090275,2320.040430292862
1601.338945,1414.325468144666
1604.583274,774.2785950480938
1607.823275,257.7617685870838
1611.058959,30.854143166187953
1614.290338,28.009078682119906
1617.517422,-41.40002360943578
1620.740224,-48.737632552375686
1623.958755,50.5563513474595
1627.173027,23.194666978488527
1630.38305,-64.24294376678904
1633.588838,-60.25054545249392
1636.7904,21.50025515800732
1639.987749,89.72815849414708
1643.180896,47.78330809926645
1646.369853,54.55478093934222
1649.554632,143.3985959572868
1652.735244,34.314034481773234
1655.9117,-71.27446517881593
1659.084013,109.77159147282505
1662.252193,171.51682884245972
1665.416254,-17.868375737152093
1668.576205,-3.825532234666683
1671.732059,160.5526055631545
1674.883828,105.83062529460139
1678.031523,-13.559884390492225
1681.175157,14.372286852524741
1684.314739,34.70740782633219
1687.450284,-16.884334194383882
1690.581801,-43.00397651879466
1693.709304,-22.824267972154992
1696.832803,10.928973077301052
1699.952311,10.9845910216699
1703.067839,26.853908280890824
1706.179399,110.41927114789618
1709.287003,116.70330651755248
1712.390663,30.091358782519055
1715.49039,35.33544119808678
1718.586197,94.12300575435471
1721.678095,56.41804785380958
1724.766096,-43.7381980155737
1727.850213,-78.24706022711965
1730.930456,-10.871071993328961
1734.006838,8.12568771197575
1737.079372,-57.588966923895846
1740.148067,13.244183883481842
1743.212938,172.99282673962944
1746.273996,139.59143537129418
1749.331252,8.050292817781436
1752.384718,7.62508798335607
1755.434408,58.522226313052585
1758.480332,73.78504304665645
1761.522503,48.14069722917175
1764.560933,-86.44622462340986
1767.595634,-157.47666654897472
1770.626618,24.34993611193796
1773.653896,155.58634464615892
1776.677482,50.97337527812175
1779.697388,22.84704077035213
1782.713625,154.85947262663487
1785.726205,210.07528799328304
1788.735141,128.2724175945072
1791.740445,23.768272681484145
1794.742129,33.18061211519084
1797.740206,167.59436729779395
1800.734687,242.95976784420463
1803.725585,177.21926898327789
1806.712912,103.82922127339133
1809.69668,60.543584973257225
1812.676902,-35.01056920373752
1815.65359,-107.37008721229753
1818.626756,-65.51758976387681
1821.596413,-16.837582784880436
1824.562573,4.799055587835511
1827.525247,53.08259778864403
1830.48445,33.920624721231285
1833.440192,-30.091619630684928
1836.392487,24.633218637191312
1839.341347,70.13115710069853
1842.286784,-22.204735833538397
1845.22881,-3.407505467988284
1848.167439,131.91037903835203
1851.102682,57.94599264264338
1854.034553,-76.06354094427276
1856.963063,56.488329604233236
1859.888226,232.34062323496943
1862.810053,184.52548865996795
1865.728557,57.90625169205279
1868.643751,-47.78094537064729
1871.555648,-144.6026339103674
1874.46426,-91.6938989712927
1877.369599,47.988729948311075
1880.271679,46.42041923979951
1883.170512,41.875657762125535
1886.06611,108.15761346990337
1888.958487,41.66787096383982
1891.847655,-13.37316746664813
1894.733626,68.36180076985197
1897.616414,19.11976561086065
1900.496032,-106.9628429208839
1903.372491,-16.595917257297728
1906.245805,156.9135510808471
1909.115987,164.52486540111707
1911.983049,71.63240008535149
1914.847004,34.14820545425794
1917.707866,45.037451581224715
1920.565646,19.296911976308202
1923.420359,-38.284497411019856
1926.272016,-82.94083872323733
1929.120631,-87.67392382706824
1931.966216,-30.55179835447989
1934.808786,35.08815563859234
1937.648351,34.938060987797726
1940.484927,-10.755682446045117
1943.318525,50.44564187455863
1946.149158,315.779449630825
1948.97684,493.6807099953842
1951.801584,326.3787861451257
1954.623403,98.6674732673134
1957.44231,26.318367227208253
1960.258318,-24.483564358622555
1963.071439,-31.730797725910453
1965.881688,48.761520980592735
1968.689078,54.89711960414064
1971.493621,-73.26772943314647
