Raman shift cm-1,4ATP_100nM_rep3_acc3_processed_intensity
-93.47115107,531.6962862483721
-87.69374369,189.39248401133605
-81.9253076,20.55362516319417
-76.16582701,10.340234041376505
-70.41528615,17.466114814130094
-64.67366933,-24.752680479793852
-58.94096086,-58.77154993834068
-53.21714512,-25.65901727759322
-47.50220652,56.174488880943464
-41.79612954,125.66540326786355
-36.09889866,135.6087580746346
-30.41049843,91.16198942924788
-24.73091343,45.28664186038324
-19.0601283,31.354932066829846
-13.39812769,28.221992303053682
-7.744896327,15.826254214106072
-2.100418946,8.621494449898577
3.535319659,13.208329968538209
9.162334658,10.851784485265824
14.78064118,-3.9072864904731404
20.39025432,-4.023147994489534
25.99118913,33.15091811802758
31.58346061,82.57429040788315
37.16708375,94.77995457239126
42.74207347,55.00276885480253
48.30844468,-10.751102084600841
53.86621222,-59.254070696301746
59.41539093,-49.26085525661506
64.95599558,9.543291770694903
70.48804091,41.74624259104523
76.01154164,11.848266338276897
81.52651243,-0.2275449997092771
87.03296792,72.21366998778426
92.5309227,149.70188800082428
98.02039134,122.05882076169839
103.5013884,21.992430453763617
108.9739282,-18.9689351047095
114.4380255,63.541919193022174
119.8936944,189.57377549322018
125.3409495,215.6096555118232
130.779805,112.31310272819957
136.2102753,14.948091138952197
141.6323747,30.900433131070294
147.0461174,86.49363102746813
152.4515176,64.42140402071966
157.8485895,-6.407953508978007
163.2373472,-13.78475484677957
168.6178049,59.7103891585612
173.9899766,127.94712685604864
179.3538764,137.84954682216787
184.7095182,125.12669172312818
190.0569161,128.7618057967067
195.396084,129.24167912320698
200.7270358,104.44245822091357
206.0497854,81.30374986588282
211.3643466,85.99169919012228
216.6707333,91.68638376343569
221.9689593,65.32741210243836
227.2590382,25.736831471529975
232.5409839,6.2116214798383
237.8148101,1.6204465299991
243.0805303,-3.903093882495
248.3381582,-1.5953099425544082
253.5877075,21.816319479738823
258.8291917,66.82780117291948
264.0626244,127.58580884173611
269.288019,177.71261405465563
274.5053891,161.88276303028866
279.7147481,51.34783149948723
284.9161094,-74.32213546415261
290.1094865,4.422373828794353
295.2948927,574.6424494109235
300.4723414,1781.3065229284555
305.6418459,3417.361780670133
310.8034194,4977.417135450703
315.9570752,6008.178712284612
321.1028267,6429.302153676216
326.2406869,6500.0704734263445
331.370669,6515.032448387814
336.4927863,6597.412019203905
341.6070517,6722.244520854631
346.7134786,6806.433298509066
351.8120798,6786.034443288317
356.9028684,6679.326404371655
361.9858576,6556.7826521591605
367.0610602,6443.589833151626
372.1284892,6311.137597240377
377.1881577,6162.40640401985
382.2400784,6058.94479763544
387.2842644,6039.363014080259
392.3207284,6043.355553870344
397.3494833,5953.41666876773
402.370542,5714.400929808607
407.3839172,5389.906263993129
412.3896217,5093.390087414731
417.3876683,4878.758172188744
422.3780697,4721.139481020859
427.3608386,4587.412419869435
432.3359876,4462.371735205038
437.3035295,4310.632337132529
442.2634769,4093.1346610540027
447.2158423,3828.2033231517726
452.1606383,3578.72577714392
457.0978776,3386.5039227801562
462.0275727,3250.186417069809
466.9497361,3147.274591346543
471.8643802,3062.282019711214
476.7715176,2987.5385943658707
481.6711608,2891.9711076718395
486.5633221,2733.870446774093
491.448014,2530.9521647415795
496.3252488,2356.2651591442304
501.195039,2226.7136082434354
506.0573969,2071.8256869956203
510.9123349,1862.9415590610206
515.7598651,1674.1313973827068
520.6,1547.5528909736931
525.4327518,1409.2053218412093
530.2581327,1197.3485073165039
535.076155,976.0313466210591
539.8868309,848.4775001407033
544.6901726,822.3520461871049
549.4861922,801.6292973435529
554.2749019,695.7314912882603
559.0563139,537.2907259356016
563.8304402,439.83906874984314
568.597293,416.2303364693644
573.3568844,366.43963018807153
578.1092263,258.12484907607814
582.8543308,155.92872380885092
587.5922101,92.92098029619137
592.322876,53.416830261966425
597.0463405,30.956656272216605
601.7626157,21.047113327931584
606.4717135,11.461917369651928
611.1736458,0.012592682038302883
615.8684246,-10.911308305485363
620.5560617,-17.283715279686476
625.2365691,-8.781823313122914
629.9099585,11.289590298297298
634.5762419,21.96048530763801
639.2354312,17.87043826961417
643.887538,15.189705472897913
648.5325743,14.660454707990993
653.1705518,-5.023933480563755
657.8014823,-41.381957338502616
662.4253775,-51.06399780223137
667.0422493,-4.757455222005774
671.6521092,65.29181569789898
676.2549691,97.03084580422183
680.8508407,67.14423608832112
685.4397355,12.113110393450825
690.0216654,-13.286383706326433
694.5966419,15.885173762014347
699.1646767,87.8940338457005
703.7257814,174.73006726867197
708.2799676,242.81548020271885
712.827247,256.0169706693596
717.367631,202.15055773322456
721.9011314,123.86466853396541
726.4277595,96.68667488884375
730.9475271,158.25235815578526
735.4604456,270.87636185242354
739.9665264,361.868818086165
744.4657813,379.55864513932374
748.9582215,313.1984426929489
753.4438587,203.14616811218457
757.9227042,135.5302362430648
762.3947696,179.348621997412
766.8600662,306.13430116508175
771.3186056,397.5311890075968
775.770399,360.68428226540095
780.215458,218.0029872127709
784.6537939,72.9705037180654
789.0854181,24.01615147393045
793.510342,93.88197889768753
797.9285769,204.08836633397277
802.3401342,257.5394466807618
806.7450253,242.4741559702661
811.1432614,202.5533962492044
815.5348538,155.5374445158069
819.9198139,99.54984481534893
824.2981531,44.34886345682821
828.6698824,1.4374533784956611
833.0350133,-23.518254652478504
837.393557,-26.295556172824206
841.7455248,-8.836755942971536
846.0909278,17.087713322419063
850.4297774,30.662254912685057
854.7620848,10.322425419343574
859.0878611,-30.050064347459625
863.4071176,-18.872322242589547
867.7198655,101.57954895027649
872.026116,280.1401870977819
876.3258802,401.77857667200783
880.6191693,411.65950383932517
884.9059946,323.83546224903523
889.186367,170.44936746807144
893.4602979,29.7560511777574
897.7277982,7.020446430195605
901.9888793,91.61474569968357
906.2435521,135.96792367091484
910.4918277,57.84318533732512
914.7337174,-37.37893142476061
918.9692321,-11.524131835671877
923.1983831,122.02396783611043
927.4211813,243.26315631196837
931.6376378,282.4534998133833
935.8477637,256.39721329736176
940.0515701,191.35694650009188
944.249068,98.11948202961295
948.4402684,26.972503614425538
952.6251825,54.16682704063065
956.8038212,173.43266785714334
960.9761955,274.85541426375767
965.1423166,270.58736053293984
969.3021953,188.0468675853749
973.4558427,116.86319943678976
977.6032699,109.13313420942477
981.7444877,144.367393614234
985.8795072,167.3943597142466
990.0083394,146.87385300738293
994.1309953,90.10747991607784
998.2474857,26.31942732085043
1002.357822,3.2169526668543056
1006.462014,61.97006567906121
1010.560075,187.42383700654477
1014.652013,303.6271505986395
1018.737841,328.62582578678104
1022.81757,247.46373578755046
1026.891209,135.0216360088163
1030.958771,76.79119008576713
1035.020266,85.06212327244585
1039.075705,126.22414897430723
1043.1251,175.18805627944113
1047.16846,199.36728229332329
1051.205797,151.79705084155484
1055.237121,32.15782287781296
1059.262444,-69.53013229855455
1063.281777,-27.233107683812065
1067.295131,202.57041020482953
1071.302515,523.2082730573508
1075.303942,773.5194414992551
1079.299422,835.8246371271689
1083.288966,690.2320067994486
1087.272585,425.25885745787
1091.250289,176.36887640467575
1095.222091,26.84555142255827
1099.187999,-15.46164539096108
1103.148026,14.797953738637762
1107.102183,61.8220445202355
1111.050479,78.75055464966798
1114.992927,57.66116858654484
1118.929536,16.26139805753045
1122.860318,-12.603227927429849
1126.785283,32.359375676506524
1130.704443,192.86298612600592
1134.617808,408.8048117419851
1138.52539,557.183633363431
1142.427198,579.8827532990075
1146.323244,524.5584991539874
1150.213538,465.80955570838955
1154.098093,427.31855251507113
1157.976917,400.4306135650392
1161.850023,395.373107320903
1165.717421,414.0580240527638
1169.579121,409.2862069598282
1173.435135,347.84823406139196
1177.285474,289.13797231036165
1181.130148,312.47397576536804
1184.969169,378.66741054980577
1188.802547,368.8984777463297
1192.630292,252.847713923241
1196.452416,109.20360821759441
1200.26893,2.330287562129513
1204.079844,-50.278469627232596
1207.88517,-21.248579494914352
1211.684917,98.36076996743054
1215.479098,220.9584894694293
1219.267722,223.21106247180944
1223.050801,110.67499999334164
1226.828346,15.965505532679636
1230.600366,4.662047397408003
1234.366874,14.839506227426526
1238.12788,7.872016954410072
1241.883395,27.11931446915566
1245.633429,83.99282206954854
1249.377994,116.4034029193989
1253.1171,89.90576182103143
1256.850759,44.005664514544044
1260.578981,16.263287277436753
1264.301776,-6.405127739575992
1268.019157,-33.67704566664212
1271.731133,-22.61247085953871
1275.437715,61.09207699064268
1279.138915,154.89452014975112
1282.834743,154.4035179625346
1286.52521,63.35792382164541
1290.210328,-1.07086967407324
1293.890106,29.421353364691598
1297.564555,98.80452028347335
1301.233688,133.95412507353507
1304.897514,132.53274688927485
1308.556044,115.76264727171223
1312.209289,88.40198026487698
1315.857261,77.38450828718234
1319.499969,125.98168417014352
1323.137425,224.56514188763933
1326.769641,304.3832036242412
1330.396626,305.1897526283554
1334.018391,226.29047224310125
1337.634948,118.47208316203177
1341.246307,32.135497155540804
1344.85248,-16.9542321460573
1348.453477,-27.473517668672116
1352.049309,9.67021808648962
1355.639987,80.42748330864634
1359.225522,127.04513274554387
1362.805925,114.55885224755363
1366.381207,88.36429255111244
1369.951379,116.5190881795524
1373.516452,204.87456670355652
1377.076436,295.79987013434027
1380.631343,336.37709090986107
1384.181184,332.03962074899187
1387.725969,315.8667567302296
1391.26571,292.9246568372152
1394.800417,256.83200360546715
1398.330102,218.37744784612624
1401.854776,173.4666510775839
1405.374448,96.76768897778182
1408.889132,9.514736904497823
1412.398837,-12.404372240204793
1415.903574,52.42642221494292
1419.403355,131.03395444538944
1422.89819,170.38821457153978
1426.388091,198.8407207919153
1429.873069,239.4337489927218
1433.353134,260.07944096290146
1436.828298,232.34399861787438
1440.298571,164.43473043339233
1443.763965,76.84659585761666
1447.224491,3.4862672678998905
1450.68016,-0.2948307258874223
1454.130983,92.22275891540374
1457.576971,226.2762245578674
1461.018135,297.9566932602954
1464.454486,249.03991853364562
1467.886036,131.94592167664402
1471.312794,69.85677418782615
1474.734774,125.37537058994906
1478.151985,220.6546982868499
1481.564439,234.5811781425926
1484.972146,162.81141385608095
1488.375119,107.1203426170508
1491.773368,116.77237117176485
1495.166904,133.36608828306936
1498.555739,96.77178302434193
1501.939883,22.358205588527255
1505.319349,-32.13856277142038
1508.694146,-22.092140619297744
1512.064286,57.75387637104494
1515.429781,168.56496326899324
1518.790642,238.90606317296024
1522.146879,206.85802026645882
1525.498505,95.62541691273621
1528.845529,12.340360022503873
1532.187965,21.645160997440996
1535.525822,83.0039631758508
1538.859112,141.22948756171795
1542.187846,200.79158746369
1545.512036,282.353058612301
1548.831693,348.3755175031946
1552.146829,324.4522704147033
1555.457453,218.47476560109465
1558.763579,155.8563451268245
1562.065216,235.02181280892475
1565.362377,399.2087666851709
1568.655073,511.78884281968556
1571.943315,521.670040655966
1575.227114,496.6306943175026
1578.506482,509.8324627126005
1581.781431,558.627065396443
1585.051971,600.9302300918102
1588.318114,600.8519997497249
1591.579872,532.2795749068666
1594.837255,412.0897802978234
1598.090275,315.6400407734287
1601.338945,282.09121396611636
1604.583274,246.41955573329645
1607.823275,146.71668467422933
1611.058959,30.957862562839665
1614.290338,-24.15926467099085
1617.517422,-18.94024660198579
1620.740224,4.6524942654748
1623.958755,20.614753881417926
1627.173027,13.73752538346654
1630.38305,-16.008131981256355
1633.588838,-32.38020349825628
1636.7904,4.5740300160888125
1639.987749,78.0401167183698
1643.180896,132.3482091584335
1646.369853,142.09995428082243
1649.554632,111.25456216215562
1652.735244,52.00256516151052
1655.9117,5.277307054190496
1659.084013,1.9217467817234863
1662.252193,12.800025606725898
1665.416254,17.770076711860565
1668.576205,46.708906178554
1671.732059,94.73095473706199
1674.883828,104.18074054341875
1678.031523,57.16627852929491
1681.175157,-0.6131266811103302
1684.314739,-27.32243845091972
1687.450284,-22.80342100337844
1690.581801,-8.146863553785543
1693.709304,1.4576083000675126
1696.832803,3.342869973643623
1699.952311,6.139509412991572
1703.067839,29.1602586942429
1706.179399,78.18798870687361
1709.287003,122.41059573394301
1712.390663,134.10854673320893
1715.49039,126.85166628129647
1718.586197,112.93203489472768
1721.678095,73.9846531123058
1724.766096,13.16100074588573
1727.850213,-24.34990717242058
1730.930456,-13.74692818537224
1734.006838,25.836930242190654
1737.079372,81.61851214631905
1740.148067,150.77077826195287
1743.212938,194.7028282719177
1746.273996,173.0090112793165
1749.331252,121.06906973358144
1752.384718,115.82229463809243
1755.434408,166.79533484261245
1758.480332,195.69929450681116
1761.522503,132.66495877132905
1764.560933,15.0630353372107
1767.595634,-44.19766600863623
1770.626618,-6.0570760713190595
1773.653896,48.92314733767157
1776.677482,61.78626262214254
1779.697388,76.98855756068524
1782.713625,128.46386306574757
1785.726205,153.15986624911932
1788.735141,92.74595403785129
1791.740445,12.399183404922951
1794.742129,29.228454482825818
1797.740206,146.89948541370325
1800.734687,250.20658419826782
1803.725585,253.0271182522821
1806.712912,173.73366492034694
1809.69668,79.73585847175382
1812.676902,15.926307486008639
1815.65359,-14.108403404853373
1818.626756,-22.128099076881085
1821.596413,-8.531232699612534
1824.562573,26.02978940456178
1827.525247,55.607579569130216
1830.48445,46.77089645001589
1833.440192,7.565222950479134
1836.392487,-16.159449307890565
1839.341347,2.563540321679273
1842.286784,54.79552890898657
1845.22881,116.83156721438705
1848.167439,154.4047175774881
1851.102682,147.51101595856912
1854.034553,131.29439428654965
1856.963063,151.60163003392293
1859.888226,183.497349123719
1862.810053,164.31134320561802
1865.728557,86.41677401610812
1868.643751,2.736137186088598
1871.555648,-27.366005617540935
1874.46426,17.509843168433477
1877.369599,93.98611005346581
1880.271679,132.91091017676433
1883.170512,124.99839844053977
1886.06611,118.50887337586346
1888.958487,139.09905068717575
1891.847655,163.69454133056075
1894.733626,159.22524189247574
1897.616414,124.77185546904406
1900.496032,103.1041860227869
1903.372491,132.24757505335197
1906.245805,188.00965037394366
1909.115987,214.59205433299718
1911.983049,200.27012131154004
1914.847004,178.3702071029942
1917.707866,159.84137690828635
1920.565646,112.88603880936364
1923.420359,29.234044477719856
1926.272016,-32.851194506212565
1929.120631,-13.86390798212225
1931.966216,60.153508932783154
1934.808786,96.78937095876074
1937.648351,56.761220095158784
1940.484927,26.148579984914193
1943.318525,119.3207414788229
1946.149158,307.19145035237926
1948.97684,420.191881568864
1951.801584,353.15857452174635
1954.623403,176.96010837154319
1957.44231,22.524499039805107
1960.258318,-36.19681163860947
1963.071439,10.287605093179785
1965.881688,96.22609715488449
1968.689078,103.47061417551302
1971.493621,-2.5957716995357885
