Raman shift cm-1,4ATP_1mM_rep3_acc1_processed_intensity
-93.47115107,570.3577043221188
-87.69374369,159.11210340539375
-81.9253076,-8.116934404852035
-76.16582701,28.406080795810198
-70.41528615,52.782590755211395
-64.67366933,-19.73734113613462
-58.94096086,-86.09936666406286
-53.21714512,-53.231835362856
-47.50220652,49.30738273499069
-41.79612954,139.5194027980623
-36.09889866,170.71435996631394
-30.41049843,151.02428704123537
-24.73091343,113.23466640170084
-19.0601283,66.58896772039577
-13.39812769,0.2938900677966245
-7.744896327,-50.75697082353936
-2.100418946,-25.77131450425715
3.535319659,41.58096527285031
9.162334658,45.932501494853085
14.78064118,-14.74402661243694
20.39025432,-22.91363965895161
25.99118913,72.87151391368297
31.58346061,179.14668892856548
37.16708375,193.62510492698567
42.74207347,120.5801914443662
48.30844468,19.282984475676756
53.86621222,-65.50072698775752
59.41539093,-90.83357042224554
64.95599558,-37.36432335455145
70.48804091,24.30958683459759
76.01154164,10.287174760403886
81.52651243,-33.29356165977552
87.03296792,-11.840834746975247
92.5309227,46.609439962971834
98.02039134,55.93349031859425
103.5013884,16.776677040672126
108.9739282,-1.6371111277033776
114.4380255,53.490312610089745
119.8936944,150.72464341990803
125.3409495,170.65996805061175
130.779805,58.44415247349572
136.2102753,-62.785458135531606
141.6323747,-57.38424592195048
147.0461174,19.490355324562373
152.4515176,18.43635420156589
157.8485895,-69.45527115643297
163.2373472,-112.90495031075186
168.6178049,-45.49856798381544
173.9899766,54.06581124081117
179.3538764,91.3430239613044
184.7095182,67.89882775126895
190.0569161,34.736422032146805
195.396084,7.856844534140038
200.7270358,-18.601023858329015
206.0497854,-26.11476907075624
211.3643466,0.17114641217851556
216.6707333,31.535084155146436
221.9689593,35.893289932751834
227.2590382,21.4207274728744
232.5409839,4.345556898496866
237.8148101,-16.17018149567771
243.0805303,-30.380940054979668
248.3381582,-18.937396035634194
253.5877075,10.214789557402142
258.8291917,28.949989239516317
264.0626244,34.98343308448825
269.288019,46.876133644857745
274.5053891,37.18103855361844
279.7147481,-66.11736465773151
284.9161094,-207.23175455120855
290.1094865,15.77740835500282
295.2948927,1277.0960276268231
300.4723414,3964.350816085976
305.6418459,7585.422558518227
310.8034194,10930.458031503129
315.9570752,13022.941688782432
321.1028267,13846.100148137073
326.2406869,14060.412099232173
331.370669,14211.488198928664
336.4927863,14412.081270013472
341.6070517,14583.325475466707
346.7134786,14658.527398956447
351.8120798,14589.083807874405
356.9028684,14383.173323139043
361.9858576,14138.822641662391
367.0610602,13998.5216974415
372.1284892,14186.571772922834
377.1881577,14995.995576313282
382.2400784,16427.624701512468
387.2842644,17893.7811951903
392.3207284,18638.735483949575
397.3494833,18449.799270951782
402.370542,17663.022107608827
407.3839172,16587.466523431485
412.3896217,15291.843898811347
417.3876683,13869.761335320565
422.3780697,12592.718841554533
427.3608386,11744.303805766482
432.3359876,11335.952909464428
437.3035295,11009.630023804804
442.2634769,10345.829186421484
447.2158423,9329.822661434544
452.1606383,8400.473627047995
457.0978776,7929.232961480783
462.0275727,7747.251559043983
466.9497361,7393.001154391704
471.8643802,6759.06058829228
476.7715176,6168.053707604522
481.6711608,5825.550168339842
486.5633221,5579.195732713675
491.448014,5252.367278270325
496.3252488,4872.692906869999
501.195039,4497.228248536534
506.0573969,4068.608517142864
510.9123349,3552.084539950136
515.7598651,3050.3267371238344
520.6,2660.393373603387
525.4327518,2326.897198521343
530.2581327,1965.4738309004679
535.076155,1618.37813949687
539.8868309,1340.271914284278
544.6901726,1063.9068927352982
549.4861922,722.6978866546087
554.2749019,379.43370870708895
559.0563139,143.76793244619148
563.8304402,52.85405787528907
568.597293,61.79656511348003
573.3568844,94.71122457429374
578.1092263,84.46779904551659
582.8543308,-1.039359398682791
587.5922101,-110.71082979260245
592.322876,-119.44471093526772
597.0463405,21.772275687526417
601.7626157,193.72888966512255
606.4717135,259.13832375538004
611.1736458,218.4136522984736
615.8684246,153.41325820960265
620.5560617,147.01803354115327
625.2365691,291.75499292309905
629.9099585,641.8213021911779
634.5762419,1103.0272887427927
639.2354312,1431.6077407848843
643.887538,1400.3861082302392
648.5325743,993.8589446827464
653.1705518,441.2488848551857
657.8014823,46.46699051887299
662.4253775,-42.563649256972894
667.0422493,59.36363602646088
671.6521092,111.3312936741986
676.2549691,16.421088484753454
680.8508407,-99.69400326524465
685.4397355,-91.26520547039581
690.0216654,55.05754866091684
694.5966419,289.97160360420094
699.1646767,591.9642437616258
703.7257814,948.9815409966668
708.2799676,1292.8913991619402
712.827247,1470.3195323809014
717.367631,1343.1682128348912
721.9011314,970.8721880409366
726.4277595,611.4376313405519
730.9475271,480.7748040359411
735.4604456,571.3634935422142
739.9665264,727.8279095058679
744.4657813,809.9973584070522
748.9582215,742.5659481711746
753.4438587,515.6098401085846
757.9227042,222.44952841033592
762.3947696,31.812969261359285
766.8600662,45.270923693244185
771.3186056,184.13344495799447
775.770399,257.6539935590963
780.215458,162.4981334264321
784.6537939,-5.152433785105131
789.0854181,-45.77138064535484
793.510342,137.4619587633215
797.9285769,451.98880161769694
802.3401342,748.3590730082551
806.7450253,960.6863239039303
811.1432614,1076.3813377062525
815.5348538,1085.508627393855
819.9198139,1010.623289671586
824.2981531,891.4564283730101
828.6698824,737.8191437688133
833.0350133,563.683497143023
837.393557,410.3308385889661
841.7455248,291.66083055620607
846.0909278,187.79157503661577
850.4297774,92.25539957781393
854.7620848,13.831360507727823
859.0878611,-22.23974524056962
863.4071176,41.576172320649334
867.7198655,216.98893927649033
872.026116,384.6318855722893
876.3258802,411.60191963684736
880.6191693,320.08101712252824
884.9059946,195.63235786545647
889.186367,30.47601508093777
893.4602979,-154.34156795364004
897.7277982,-207.8599435975406
901.9888793,-87.129134969679
906.2435521,18.591263237007695
910.4918277,-11.161329410282065
914.7337174,-52.96244776633512
918.9692321,2.563886142729416
923.1983831,76.05918299155007
927.4211813,73.34420380306312
931.6376378,31.00110257477138
935.8477637,31.797555030103695
940.0515701,76.71578229910529
944.249068,90.84148010880608
948.4402684,55.90245418497966
952.6251825,54.023858736212446
956.8038212,117.40882263968388
960.9761955,150.99726073203385
965.1423166,81.90771010312562
969.3021953,-31.93470299556907
973.4558427,-95.14931041623169
977.6032699,-76.8742171847955
981.7444877,-13.141498834836
985.8795072,20.087844044443898
990.0083394,4.640922755981762
994.1309953,138.8647442871454
998.2474857,737.0819723173979
1002.357822,1753.3501447225444
1006.462014,2550.536316520353
1010.560075,2476.506277367564
1014.652013,1606.9472751594158
1018.737841,616.0876804231575
1022.81757,27.63831596101774
1026.891209,-115.76529574758595
1030.958771,-2.853159177844205
1035.020266,210.9251760621156
1039.075705,461.56554774481776
1043.1251,753.4792874012028
1047.16846,1104.5392632348585
1051.205797,1541.3900522260442
1055.237121,2239.2497778607762
1059.262444,3676.9871768908597
1063.281777,6504.314714256034
1067.295131,10981.513130021827
1071.302515,16316.86532383141
1075.303942,20533.97594376283
1079.299422,21366.1791074765
1083.288966,17960.57470910788
1087.272585,11906.061931623708
1091.250289,6105.456157773952
1095.222091,2459.6556723886683
1099.187999,896.553255748493
1103.148026,353.807890227876
1107.102183,67.84308342860982
1111.050479,-81.04299077408382
1114.992927,34.31655213644831
1118.929536,421.203386365906
1122.860318,1129.3229092441052
1126.785283,2662.686769750778
1130.704443,5720.636122192702
1134.617808,10081.25174201695
1138.52539,13978.248331329864
1142.427198,15235.48199937915
1146.323244,13241.803476143039
1150.213538,9517.263880384835
1154.098093,6282.619756535365
1157.976917,4791.290665264172
1161.850023,4927.114216716313
1165.717421,5782.909829628576
1169.579121,6417.960428819371
1173.435135,6429.559611688952
1177.285474,6051.333142641971
1181.130148,5653.745711009484
1184.969169,5211.072347645076
1188.802547,4429.662455442685
1192.630292,3249.9401880214095
1196.452416,1956.6355795730333
1200.26893,895.9636625667877
1204.079844,261.7916958712776
1207.88517,68.2830812210018
1211.684917,185.99063650407925
1215.479098,378.0371923708899
1219.267722,405.86320056756676
1223.050801,231.36003462248027
1226.828346,45.57787728426956
1230.600366,-4.00784969511642
1234.366874,27.577610063207885
1238.12788,40.21720866209898
1241.883395,20.989793027762516
1245.633429,9.635907193172898
1249.377994,49.231832785592815
1253.1171,149.24363577117492
1256.850759,251.06700827279474
1260.578981,262.0208285724548
1264.301776,135.1968398745305
1268.019157,-69.20344432545721
1271.731133,-188.1310995677661
1275.437715,-108.52313355890556
1279.138915,49.72468666217583
1282.834743,51.133621384648904
1286.52521,-106.61511012667188
1290.210328,-152.86344153931077
1293.890106,71.6128020826718
1297.564555,404.3154617979235
1301.233688,622.1277249691639
1304.897514,673.0830850592642
1308.556044,566.0380047819476
1312.209289,314.0146730938086
1315.857261,70.63945287586284
1319.499969,50.829728668355074
1323.137425,243.59895011072194
1326.769641,410.9850701834962
1330.396626,385.6141960200557
1334.018391,223.75944725365434
1337.634948,82.84859203939413
1341.246307,35.449817173757765
1344.85248,21.399548600876187
1348.453477,-16.154809291228048
1352.049309,-23.218473378626186
1355.639987,56.06282914816711
1359.225522,181.80340951309154
1362.805925,329.103620940572
1366.381207,529.890030756811
1369.951379,753.1233368192816
1373.516452,971.124996707541
1377.076436,1388.2023474279413
1380.631343,2380.9626088700525
1384.181184,4038.6419095526317
1387.725969,5769.305540950672
1391.26571,6560.024737583935
1394.800417,5835.012870424871
1398.330102,4013.049477673494
1401.854776,2090.68110951181
1405.374448,759.5884760133986
1408.889132,67.32709107909523
1412.398837,-178.18509069367246
1415.903574,28.156101572782973
1419.403355,860.413951988965
1422.89819,2429.601852078473
1426.388091,4637.047175555333
1429.873069,7037.898965746123
1433.353134,8879.993650747669
1436.828298,9519.13625404666
1440.298571,8830.448055323302
1443.763965,7193.303481547579
1447.224491,5197.793835784047
1450.68016,3366.008358129773
1454.130983,1982.5490026872812
1457.576971,1092.9803040437982
1461.018135,635.7216846236497
1464.454486,530.7077056866328
1467.886036,661.1343382735795
1471.312794,855.0882655102687
1474.734774,939.0336959583728
1478.151985,817.3793849728272
1481.564439,523.3484381269436
1484.972146,213.7254731907069
1488.375119,50.07298849548715
1491.773368,33.769559778649636
1495.166904,28.66834822185956
1498.555739,-33.86033729141673
1501.939883,-73.61049151840689
1505.319349,9.00338837700292
1508.694146,204.92652218338753
1512.064286,420.5323694220797
1515.429781,594.3062070079868
1518.790642,718.9295516027323
1522.146879,789.6076369396233
1525.498505,880.878570061448
1528.845529,1176.4952032231995
1532.187965,1728.266639033077
1535.525822,2337.902779465724
1538.859112,2830.999682439842
1542.187846,3270.28505287832
1545.512036,3790.3200131317667
1548.831693,4369.352393161539
1552.146829,4885.290637939446
1555.457453,5329.467345084756
1558.763579,5833.769173779905
1562.065216,6491.533225619263
1565.362377,7248.306996397088
1568.655073,7963.972581677208
1571.943315,8511.855163620236
1575.227114,8823.75743741323
1578.506482,8893.025685175693
1581.781431,8767.206421603112
1585.051971,8513.481859625477
1588.318114,8099.193374470258
1591.579872,7324.74979493766
1594.837255,6050.4371347575525
1598.090275,4486.387086984292
1601.338945,3058.3408018038845
1604.583274,2006.1994025887852
1607.823275,1295.1743310312127
1611.058959,840.2214028029766
1614.290338,607.6202742134396
1617.517422,535.0623269487792
1620.740224,495.8374183206479
1623.958755,380.88464364493575
1627.173027,207.0485517785096
1630.38305,80.96667406465008
1633.588838,40.98431166268824
1636.7904,32.45704034186792
1639.987749,25.12634086551907
1643.180896,38.97522571725494
1646.369853,57.84281845845044
1649.554632,12.660902846538534
1652.735244,-93.84267073789874
1655.9117,-142.12821384385262
1659.084013,-83.16530491970525
1662.252193,-26.271855290267865
1665.416254,-30.566409434477407
1668.576205,-15.92521610604598
1671.732059,41.930485237430474
1674.883828,54.3063683751694
1678.031523,-3.848696077703792
1681.175157,-48.97251165367956
1684.314739,-32.22447728771908
1687.450284,2.22800384431463
1690.581801,7.739397289486484
1693.709304,-1.73472622247417
1696.832803,-1.123104393290367
1699.952311,-0.3762020091746199
1703.067839,-3.682734850482211
1706.179399,8.736015422888528
1709.287003,29.5459277644505
1712.390663,35.025323790633195
1715.49039,43.74688648733675
1718.586197,69.51434766715234
1721.678095,55.78956914135398
1724.766096,-29.92803895758292
1727.850213,-105.01549462151058
1730.930456,-93.91835645161152
1734.006838,-42.25279830487457
1737.079372,-3.386810880547518
1740.148067,44.4047476162024
1743.212938,88.0199212517758
1746.273996,65.53219677796932
1749.331252,1.3809517313450925
1752.384718,-10.749601368727193
1755.434408,39.89993861316228
1758.480332,60.74794623912056
1761.522503,-12.175897392753326
1764.560933,-112.38357956686093
1767.595634,-116.8260291917647
1770.626618,-26.998873715040254
1773.653896,23.842696798572632
1776.677482,-13.858029091512103
1779.697388,-27.786605958658363
1782.713625,54.27055793661478
1785.726205,136.73617913379798
1788.735141,112.9356242151198
1791.740445,33.800599525785245
1794.742129,22.727597657140578
1797.740206,91.33813680185784
1800.734687,145.26158588727188
1803.725585,132.56914767554156
1806.712912,79.90046986628907
1809.69668,12.19900552432685
1812.676902,-59.19772347775023
1815.65359,-97.85589118844203
1818.626756,-74.94331854332793
1821.596413,-13.370541836767753
1824.562573,40.40857703671803
1827.525247,51.669261356596685
1830.48445,8.980250798159469
1833.440192,-51.16927356289659
1836.392487,-68.75464613942766
1839.341347,-35.988898794886616
1842.286784,13.156046004159997
1845.22881,60.99561558703644
1848.167439,80.41897448139063
1851.102682,35.93807147178997
1854.034553,-26.412599517965134
1856.963063,-8.277951471323213
1859.888226,81.40017945589966
1862.810053,119.89992779596945
1865.728557,43.36698495873792
1868.643751,-77.311165260045
1871.555648,-134.43529560595056
1874.46426,-92.88079733812401
1877.369599,-14.000759738231366
1880.271679,31.721585038795695
1883.170512,54.92920159090009
1886.06611,84.9242346883004
1888.958487,91.65392054461225
1891.847655,52.162390168992516
1894.733626,-8.34720900926385
1897.616414,-67.68215178392371
1900.496032,-91.31210009673975
1903.372491,-21.968737734076775
1906.245805,110.71937522353771
1909.115987,176.39821521292455
1911.983049,126.23999821816636
1914.847004,57.302785372861365
1917.707866,38.806540425988516
1920.565646,23.188456137699077
1923.420359,-28.36133237636897
1926.272016,-72.10333873362976
1929.120631,-61.00403323236686
1931.966216,-6.821030765489525
1934.808786,38.68464602145094
1937.648351,32.55912847088349
1940.484927,6.630961186105473
1943.318525,67.82822124701778
1946.149158,244.92940479231916
1948.97684,384.6631307902103
1951.801584,334.4872769641622
1954.623403,147.75887636789952
1957.44231,-16.588368619928954
1960.258318,-77.2968176711898
1963.071439,-38.67982053895817
1965.881688,39.73520877911838
1968.689078,58.089544846062005
1971.493621,-18.08650926473171
