Raman shift cm-1,4ATP_10uM_rep2_acc1_processed_intensity
-93.47115107,536.4564000713632
-87.69374369,55.26159417082769
-81.9253076,-73.11688447645056
-76.16582701,35.41002271006462
-70.41528615,35.59501777183731
-64.67366933,-82.61947141387003
-58.94096086,-81.36694148609868
-53.21714512,19.91954857799883
-47.50220652,46.34586257958212
-41.79612954,44.70617583641071
-36.09889866,93.4629171498216
-30.41049843,94.0346854187114
-24.73091343,29.963027728158202
-19.0601283,-3.443921855503902
-13.39812769,-21.57898675131373
-7.744896327,-40.52346015881521
-2.100418946,-7.027826788236517
3.535319659,38.73156676176702
9.162334658,32.91360712376979
14.78064118,2.9107542368243458
20.39025432,7.326677612270849
25.99118913,94.55822110688192
31.58346061,196.38514419761322
37.16708375,165.82134724047265
42.74207347,60.609883484025005
48.30844468,26.43492331344311
53.86621222,-21.740635972502275
59.41539093,-122.96747744664553
64.95599558,-56.7852517613895
70.48804091,133.94461971044473
76.01154164,108.04642384938225
81.52651243,-29.76196726135015
87.03296792,55.89194869384707
92.5309227,188.58983493600522
98.02039134,126.06443826820072
103.5013884,34.86789568035382
108.9739282,23.563865223922548
114.4380255,66.29849983872386
119.8936944,231.51038324349403
125.3409495,373.07969470245143
130.779805,213.83426642930627
136.2102753,-72.47101391189366
141.6323747,-106.80850618515831
147.0461174,39.40823399529367
152.4515176,63.3407715280023
157.8485895,-32.5180487211489
163.2373472,-49.39022905306107
168.6178049,51.22381961124474
173.9899766,130.69814468085255
179.3538764,99.42867962502962
184.7095182,52.40811372206709
190.0569161,91.90574634251439
195.396084,127.6796523371186
200.7270358,61.32355623840475
206.0497854,-17.400685269311108
211.3643466,-19.013600561978883
216.6707333,2.4179491350078717
221.9689593,1.2777104839218367
227.2590382,-5.435082889072021
232.5409839,-17.623719579040753
237.8148101,-24.359426288534173
243.0805303,-14.853592782147302
248.3381582,-7.89015081754485
253.5877075,5.765505811757134
258.8291917,24.837106937876783
264.0626244,29.01058472012004
269.288019,39.19852725530421
274.5053891,36.555505018270736
279.7147481,-29.939654181352438
284.9161094,-111.30628771234498
290.1094865,8.276781523814648
295.2948927,718.1715157838668
300.4723414,2227.02725467064
305.6418459,4166.241257366094
310.8034194,5909.993296760628
315.9570752,7073.072943659643
321.1028267,7621.590966611959
326.2406869,7823.411521001548
331.370669,7932.925815622866
336.4927863,7986.121220782489
341.6070517,8080.354984978523
346.7134786,8305.315617070873
351.8120798,8417.05226429215
356.9028684,8236.56809200988
361.9858576,8000.66955501556
367.0610602,7897.1103227132235
372.1284892,7876.248858834668
377.1881577,8088.619184734975
382.2400784,8908.963621990542
387.2842644,10264.086603945161
392.3207284,11312.799314846863
397.3494833,11304.605601216575
402.370542,10415.871944969957
407.3839172,9291.68726366367
412.3896217,8290.520764453122
417.3876683,7414.056452398025
422.3780697,6608.959431590529
427.3608386,5998.895186132546
432.3359876,5731.576735670447
437.3035295,5630.155498065116
442.2634769,5314.670932333895
447.2158423,4777.489454383112
452.1606383,4402.908302914439
457.0978776,4318.38007829723
462.0275727,4300.753388257079
466.9497361,4205.477838762785
471.8643802,4085.6811930933104
476.7715176,4154.592109434007
481.6711608,4535.205585503501
486.5633221,4873.085800425171
491.448014,4671.075787738603
496.3252488,3996.3441405090744
501.195039,3326.373737217702
506.0573969,2854.8247015681004
510.9123349,2449.1026093387127
515.7598651,2114.8373746317106
520.6,1958.4708284369253
525.4327518,1805.407464903814
530.2581327,1508.2016632429495
535.076155,1371.3094250246504
539.8868309,1510.6660544019815
544.6901726,1503.2290930949366
549.4861922,1192.8855033417021
554.2749019,801.948039501327
559.0563139,463.85865958836257
563.8304402,360.43648795099944
568.597293,461.1637457754532
573.3568844,339.601448959982
578.1092263,28.259651410357037
582.8543308,-4.8637137470150265
587.5922101,141.7058351034293
592.322876,106.23225670820375
597.0463405,8.510402420554783
601.7626157,14.499178440119977
606.4717135,16.794467083136624
611.1736458,-9.263525641666092
615.8684246,13.986318936212228
620.5560617,82.99831025307321
625.2365691,160.75693884858447
629.9099585,269.84217149242204
634.5762419,468.18899156631323
639.2354312,678.0173534936162
643.887538,696.6592217132993
648.5325743,520.2527622201101
653.1705518,327.6999794382027
657.8014823,148.85019687480963
662.4253775,-25.732005947352263
667.0422493,-67.89982659849193
671.6521092,33.91845149838355
676.2549691,115.26589171269507
680.8508407,97.64228550955295
685.4397355,19.700257071445776
690.0216654,-45.493878317508006
694.5966419,32.13477659934779
699.1646767,311.1740047265148
703.7257814,697.1824751163072
708.2799676,1102.2839746412492
712.827247,1418.9822816393962
717.367631,1449.575252462138
721.9011314,1138.0219364406003
726.4277595,706.2412262095495
730.9475271,444.5523323529469
735.4604456,428.89772366565603
739.9665264,477.3933140295194
744.4657813,412.8005343378852
748.9582215,263.9245385316892
753.4438587,126.70287698709421
757.9227042,17.82948483240375
762.3947696,-6.140647746963168
766.8600662,144.08678989299733
771.3186056,325.03782311452255
775.770399,292.7735168337881
780.215458,112.82410506819315
784.6537939,2.9031830534556775
789.0854181,19.886478142059786
793.510342,181.11737574859558
797.9285769,462.8009452369148
802.3401342,675.6278739086982
806.7450253,706.8724884990878
811.1432614,650.1451411316473
815.5348538,578.9248304762409
819.9198139,509.8859874068712
824.2981531,474.221496014817
828.6698824,426.494117267062
833.0350133,312.9389830222323
837.393557,200.32492249891072
841.7455248,115.57933661909107
846.0909278,18.472242370619284
850.4297774,-21.88909155005696
854.7620848,13.318917000659788
859.0878611,2.918497591787067
863.4071176,-19.149083550253117
867.7198655,109.64229884477555
872.026116,317.35378724601946
876.3258802,361.83889662484194
880.6191693,274.72073732774004
884.9059946,269.238900026499
889.186367,223.5525297014975
893.4602979,-29.92425287862889
897.7277982,-170.07007829394365
901.9888793,31.00521196168867
906.2435521,215.91022494924695
910.4918277,167.41641203787037
914.7337174,172.75097823807513
918.9692321,331.6332791676458
923.1983831,381.659754745197
927.4211813,250.45400109878022
931.6376378,111.02970655680377
935.8477637,63.37000153066123
940.0515701,68.47767360234536
944.249068,38.13854411510545
948.4402684,-13.165891527047052
952.6251825,36.13945770233477
956.8038212,159.9801257392304
960.9761955,176.29733537531888
965.1423166,88.2314103703875
969.3021953,53.15486952197375
973.4558427,35.346159048704976
977.6032699,-45.33914829473622
981.7444877,-73.94902822790266
985.8795072,-9.65085778147801
990.0083394,26.01158524999505
994.1309953,32.995345356489906
998.2474857,227.11214213190254
1002.357822,787.0698039776764
1006.462014,1400.7440148275782
1010.560075,1454.530731802001
1014.652013,936.313685887488
1018.737841,382.9402747769683
1022.81757,39.54931783814337
1026.891209,-118.18332961275178
1030.958771,-77.34471463722463
1035.020266,54.28353828597213
1039.075705,159.37769319686322
1043.1251,326.99231689907174
1047.16846,640.9060022849336
1051.205797,1064.3533267245405
1055.237121,1676.5356728595636
1059.262444,2982.7695439130225
1063.281777,5801.280232189367
1067.295131,10075.700698579461
1071.302515,14072.864814466864
1075.303942,15793.228614563159
1079.299422,14507.333570557526
1083.288966,10782.36013960941
1087.272585,6311.75579243283
1091.250289,2984.539236558123
1095.222091,1278.8058219719699
1099.187999,509.40830130534795
1103.148026,156.120912083466
1107.102183,24.60226108043605
1111.050479,13.118646672264049
1114.992927,224.0959898490961
1118.929536,817.4521624245766
1122.860318,1890.0022310885302
1126.785283,3827.153012668546
1130.704443,7397.418251464823
1134.617808,12762.825026454393
1138.52539,18134.4309673049
1142.427198,20327.663043601708
1146.323244,17747.69261582884
1150.213538,12215.858650315571
1154.098093,6973.46153608943
1157.976917,3806.3651112672487
1161.850023,2596.704574107179
1165.717421,2449.7329509889114
1169.579121,2548.749272085318
1173.435135,2472.776688248489
1177.285474,2375.621423152517
1181.130148,2696.667911168597
1184.969169,3375.854655345688
1188.802547,3796.8528758599246
1192.630292,3511.4462555980026
1196.452416,2580.792803869349
1200.26893,1420.1351836542296
1204.079844,497.4707513122104
1207.88517,43.07069184397568
1211.684917,15.408467589074291
1215.479098,182.68640419011854
1219.267722,204.5499059117633
1223.050801,13.764664054541031
1226.828346,-48.839355641480275
1230.600366,134.51153112379154
1234.366874,256.5805159459287
1238.12788,212.85724313576037
1241.883395,228.52428065526658
1245.633429,356.07087426631574
1249.377994,410.04409700597245
1253.1171,333.06226169654997
1256.850759,254.70248789820954
1260.578981,282.05218965191966
1264.301776,335.1034768479481
1268.019157,202.9852555387743
1271.731133,-40.11449062009382
1275.437715,-21.069555602587172
1279.138915,275.7195412819303
1282.834743,429.5341070060043
1286.52521,273.92456721719986
1290.210328,163.79763012283357
1293.890106,416.3402312284461
1297.564555,824.1471471569777
1301.233688,1087.3717987800928
1304.897514,1241.7613575816165
1308.556044,1218.4903961562745
1312.209289,825.8921663735609
1315.857261,353.35862221404136
1319.499969,227.4031271219074
1323.137425,339.2129132153289
1326.769641,392.724264618347
1330.396626,305.22420941477606
1334.018391,109.10610620294409
1337.634948,-24.085053890592633
1341.246307,50.328770899417975
1344.85248,179.015466745538
1348.453477,192.41086383558434
1352.049309,239.0324078952534
1355.639987,484.34991912114447
1359.225522,731.0896577061148
1362.805925,793.5719619308016
1366.381207,876.1222292853244
1369.951379,1115.9306508069494
1373.516452,1404.762451140192
1377.076436,1883.11430548823
1380.631343,2959.307212271991
1384.181184,4833.280028723644
1387.725969,7061.415867213646
1391.26571,8384.382200482652
1394.800417,7618.213605702243
1398.330102,5154.551023647673
1401.854776,2663.8983627577977
1405.374448,1122.0496108557948
1408.889132,309.9657111532755
1412.398837,46.47507200387872
1415.903574,515.1013196241922
1419.403355,1708.3849158333119
1422.89819,3626.1099685771396
1426.388091,6383.633290600444
1429.873069,9477.57834112635
1433.353134,11778.692889841672
1436.828298,12487.615028482654
1440.298571,11544.36998519546
1443.763965,9434.267241994015
1447.224491,6946.416945093649
1450.68016,4699.14000923641
1454.130983,2900.3130050445957
1457.576971,1688.0632878675724
1461.018135,1136.410028367296
1464.454486,999.2306888066109
1467.886036,1045.561291673851
1471.312794,1304.9125559927559
1474.734774,1647.3404169072176
1478.151985,1615.9101392096222
1481.564439,1002.9879850754339
1484.972146,267.79843186575243
1488.375119,-26.153369912261326
1491.773368,36.785204487314985
1495.166904,31.122401195672126
1498.555739,-85.0920626020798
1501.939883,-119.80325435280582
1505.319349,-63.60328887386541
1508.694146,9.268198829950052
1512.064286,45.0442159955349
1515.429781,66.21522331411586
1518.790642,162.26321886117245
1522.146879,200.82159983172312
1525.498505,53.7527209947026
1528.845529,13.892347445717064
1532.187965,279.35429650125343
1535.525822,603.1235495010202
1538.859112,776.9341066401087
1542.187846,855.5389733907605
1545.512036,1050.1521229824748
1548.831693,1429.889920363974
1552.146829,1673.6976843052382
1555.457453,1695.7810580102441
1558.763579,2002.4237410708201
1562.065216,2786.3651770627757
1565.362377,3638.66363944072
1568.655073,4360.648994515457
1571.943315,5061.599758144431
1575.227114,5688.380161526093
1578.506482,6007.707115418977
1581.781431,5795.51903855994
1585.051971,5127.568517827067
1588.318114,4354.6075230815495
1591.579872,3546.2112063144873
1594.837255,2582.231185467983
1598.090275,1697.4366462458158
1601.338945,1146.0805188154327
1604.583274,754.2182969550032
1607.823275,370.3840691260094
1611.058959,140.49962310936615
1614.290338,69.19090994886182
1617.517422,15.242172285154084
1620.740224,23.53969919263585
1623.958755,88.76144655701648
1627.173027,42.53825018476982
1630.38305,-90.74199911314517
1633.588838,-85.17592362799157
1636.7904,113.71891148274713
1639.987749,229.41625324821004
1643.180896,112.32003541749089
1646.369853,51.97086073432071
1649.554632,110.9848275301965
1652.735244,-2.612289930851368
1655.9117,-120.41296065751831
1659.084013,29.296839026693604
1662.252193,126.35017218413992
1665.416254,15.796178867351326
1668.576205,30.08239540001622
1671.732059,163.36109448808367
1674.883828,141.40761224059185
1678.031523,40.69161047074168
1681.175157,25.67410070944094
1684.314739,24.652089365034733
1687.450284,-19.60453172496139
1690.581801,-48.84418937963514
1693.709304,-29.945079543725782
1696.832803,0.18215346016380352
1699.952311,-2.7823835456422756
1703.067839,24.543541722440686
1706.179399,133.22905931824857
1709.287003,188.42873380222994
1712.390663,126.91071735435845
1715.49039,102.41531512017181
1718.586197,164.1238344796313
1721.678095,162.8066531424363
1724.766096,45.15767406626141
1727.850213,-41.00123052853302
1730.930456,-15.378867515079556
1734.006838,-1.2958821347831773
1737.079372,-19.546811174600364
1740.148067,86.63315239881038
1743.212938,241.54809682343625
1746.273996,207.58771305639036
1749.331252,65.44240521614661
1752.384718,39.095688371487896
1755.434408,98.76221651719726
1758.480332,112.59199304128094
1761.522503,31.101994093464278
1764.560933,-84.45540000541023
1767.595634,-37.71335793793977
1770.626618,160.08042959610833
1773.653896,174.49420936678658
1776.677482,-5.517129726166253
1779.697388,-14.151945868915956
1782.713625,156.15223821090513
1785.726205,209.00001186448588
1788.735141,102.84653153539233
1791.740445,8.554631192285779
1794.742129,59.15337828665283
1797.740206,216.9090495746312
1800.734687,277.68646363313695
1803.725585,193.21675684216046
1806.712912,114.15841238044213
1809.69668,61.06070286138242
1812.676902,-12.936336757833777
1815.65359,-56.76391829537059
1818.626756,-56.69854029650745
1821.596413,-40.44799519592324
1824.562573,5.8425930663476695
1827.525247,62.09248700703826
1830.48445,63.84645146324786
1833.440192,10.940045917716237
1836.392487,-20.743903953000302
1839.341347,-21.785498574424963
1842.286784,-51.49826838542464
1845.22881,-49.56648421308213
1848.167439,37.946303643310515
1851.102682,61.03100977106166
1854.034553,-7.931311268365656
1856.963063,40.768688451644095
1859.888226,187.02194972969085
1862.810053,206.18839522915968
1865.728557,105.3246381902241
1868.643751,-2.940074880010581
1871.555648,-82.51341294028023
1874.46426,-56.82027098922951
1877.369599,33.25125618799811
1880.271679,41.84818637640065
1883.170512,45.55682721327272
1886.06611,133.3020459959812
1888.958487,148.79592564328408
1891.847655,33.116564387486974
1894.733626,-56.82805755777578
1897.616414,-51.885003067932374
1900.496032,-6.764762740629411
1903.372491,49.571394565936565
1906.245805,97.02122743949367
1909.115987,82.6282892131609
1911.983049,15.498329000570653
1914.847004,1.0002135832848733
1917.707866,48.50362822990529
1920.565646,35.040925757032724
1923.420359,-49.16402564354452
1926.272016,-94.87230261846243
1929.120631,-62.89087968474206
1931.966216,6.079867914521892
1934.808786,52.35553682589693
1937.648351,35.298903613470415
1940.484927,-7.813464383372743
1943.318525,54.27734096782812
1946.149158,251.2969765182249
1948.97684,360.5927096817951
1951.801584,264.57401806639405
1954.623403,143.898110444614
1957.44231,62.92496775809812
1960.258318,-47.5376592736761
1963.071439,-57.69128719880795
1965.881688,102.93502753825916
1968.689078,180.7750595202453
1971.493621,16.02903795419948
