Raman shift cm-1,4ATP_1mM_rep2_acc1_processed_intensity
-93.47115107,553.0073246419189
-87.69374369,37.39678298510447
-81.9253076,-63.22591164642921
-76.16582701,70.09232032961931
-70.41528615,32.082846276144565
-64.67366933,-101.16269606142725
-58.94096086,-76.64906673040934
-53.21714512,11.165068471733434
-47.50220652,-84.91704600606695
-41.79612954,79.57377019198272
-36.09889866,180.84354761783368
-30.41049843,75.054086212217
-24.73091343,105.73579890432106
-19.0601283,60.32153776710342
-13.39812769,24.364655023870895
-7.744896327,-95.85007568946169
-2.100418946,-112.19556742046267
3.535319659,112.90086327277743
9.162334658,-93.13465413465644
14.78064118,21.7972626281842
20.39025432,-62.745979787474376
25.99118913,43.784086291281376
31.58346061,212.81709639134849
37.16708375,94.16747225397188
42.74207347,61.692145252896296
48.30844468,-3.810361283129886
53.86621222,-53.27792059340908
59.41539093,-181.07641336712177
64.95599558,-93.46489314054406
70.48804091,124.20267333421098
76.01154164,133.59878108417732
81.52651243,-183.8042724458818
87.03296792,92.66424629554452
92.5309227,265.5556056190265
98.02039134,-10.050744657034244
103.5013884,31.99520143866587
108.9739282,9.246746389368667
114.4380255,44.19809759590544
119.8936944,56.79341268723046
125.3409495,490.1899048997366
130.779805,33.27137492639952
136.2102753,-81.45527110148439
141.6323747,-143.65773226736835
147.0461174,205.24449446987757
152.4515176,-51.94710684925764
157.8485895,20.194271860851195
163.2373472,-31.596342164624758
168.6178049,-9.932272995992406
173.9899766,102.85908967539804
179.3538764,55.90426954644363
184.7095182,34.68995384557883
190.0569161,50.93516459725103
195.396084,58.811119134086525
200.7270358,-26.939992230208304
206.0497854,-49.77990749717894
211.3643466,-21.907348472021077
216.6707333,41.70641246127451
221.9689593,-34.145644146516965
227.2590382,-56.47503270781969
232.5409839,3.5650735834608724
237.8148101,4.7791397726295095
243.0805303,48.975103111627725
248.3381582,-38.392042481674224
253.5877075,17.98219630109394
258.8291917,51.91283876676208
264.0626244,-60.29983296587979
269.288019,80.72483343209173
274.5053891,123.10153056586654
279.7147481,-60.34001751268585
284.9161094,-206.98306674017985
290.1094865,263.10555066967055
295.2948927,1154.9245222729191
300.4723414,3596.963791245444
305.6418459,6710.402486364402
310.8034194,9587.433992290522
315.9570752,11152.866975336863
321.1028267,11625.989515306646
326.2406869,11939.379496708505
331.370669,12287.045176353637
336.4927863,12780.642219536747
341.6070517,12829.791808743996
346.7134786,12794.87452578093
351.8120798,12780.291289847562
356.9028684,12648.652030679117
361.9858576,12821.21323639057
367.0610602,12918.426635430491
372.1284892,13406.077991190508
377.1881577,15306.015458664282
382.2400784,19348.99112691031
387.2842644,23977.540913904537
392.3207284,25215.700288748063
397.3494833,22655.755622695397
402.370542,19247.770112356993
407.3839172,16337.242487260524
412.3896217,13792.869722152755
417.3876683,11874.485351734618
422.3780697,10452.299454598859
427.3608386,9310.24590954871
432.3359876,8892.194697851257
437.3035295,8213.35982442884
442.2634769,8020.889052883435
447.2158423,7126.129249617618
452.1606383,6344.352882510927
457.0978776,5912.289040199305
462.0275727,5383.880688256277
466.9497361,5297.399739503352
471.8643802,4892.31927193615
476.7715176,5246.105364395719
481.6711608,5720.92477752063
486.5633221,6080.085384193979
491.448014,5730.541624573884
496.3252488,4738.746875429349
501.195039,4299.732638267735
506.0573969,3783.144076504018
510.9123349,3209.6763304256046
515.7598651,2602.5336371366448
520.6,2310.134696431983
525.4327518,1885.7061729415836
530.2581327,1646.4680271701445
535.076155,1475.860452881273
539.8868309,1846.3089979894603
544.6901726,1675.5843656819397
549.4861922,1065.988044529914
554.2749019,862.8989477258701
559.0563139,123.57987143252922
563.8304402,-30.089944023528005
568.597293,378.8102477896218
573.3568844,212.55843187989194
578.1092263,63.414990382972064
582.8543308,195.8428920410297
587.5922101,77.53451300779761
592.322876,-164.66548766711094
597.0463405,61.890359993795755
601.7626157,82.0278871524697
606.4717135,-14.28113407057208
611.1736458,-82.33099621789461
615.8684246,-96.73969885897623
620.5560617,-37.488724248903054
625.2365691,347.92634355721566
629.9099585,900.4321270197961
634.5762419,1604.3714375019927
639.2354312,1390.1618753253506
643.887538,1195.582422614204
648.5325743,586.0562793151294
653.1705518,283.45638399058316
657.8014823,119.63104605113858
662.4253775,-31.24124659346853
667.0422493,17.87316288596685
671.6521092,72.37532255608221
676.2549691,-64.94857616657009
680.8508407,-104.13355911964572
685.4397355,-9.318926708327126
690.0216654,-133.47007029281394
694.5966419,110.80550684093123
699.1646767,975.7685791321173
703.7257814,1121.1925871508975
708.2799676,1244.4112651551477
712.827247,1675.1601301570809
717.367631,1804.862234120451
721.9011314,1307.89137593517
726.4277595,115.27280095113838
730.9475271,105.71002967094591
735.4604456,13.976333988643546
739.9665264,165.21750890458088
744.4657813,103.39456903468044
748.9582215,59.01735606580951
753.4438587,-94.78656120619416
757.9227042,-151.92138929415387
762.3947696,-55.461927415857645
766.8600662,-206.26727356497167
771.3186056,500.8342697705184
775.770399,133.67198163866942
780.215458,243.0835267772054
784.6537939,82.59284556011517
789.0854181,364.95490545643315
793.510342,707.4977485055624
797.9285769,1422.4192221909393
802.3401342,1779.3209180267002
806.7450253,2121.9718565459248
811.1432614,1987.5581951229606
815.5348538,2052.4560224751895
819.9198139,1718.1202892777155
824.2981531,1359.6515315110532
828.6698824,1267.1906171970732
833.0350133,746.3493975320999
837.393557,426.52868706520746
841.7455248,484.6773129259212
846.0909278,269.8567410383928
850.4297774,276.9831521903218
854.7620848,5.035477071123694
859.0878611,100.03411751475323
863.4071176,-29.804597872731904
867.7198655,243.61244246056765
872.026116,341.3481711089144
876.3258802,172.02680033386656
880.6191693,-21.016431641694282
884.9059946,77.56057909166242
889.186367,85.82030682533315
893.4602979,-361.06679418239753
897.7277982,-333.3240390852462
901.9888793,114.66664160405242
906.2435521,195.8335974539508
910.4918277,33.5109982934614
914.7337174,127.14249291137423
918.9692321,431.2804272344936
923.1983831,474.65816774094446
927.4211813,21.941403138966734
931.6376378,275.01994280601434
935.8477637,122.3192097087292
940.0515701,185.06622668582622
944.249068,314.0077019551152
948.4402684,-127.97544908051623
952.6251825,199.16188207607274
956.8038212,24.651686391109024
960.9761955,230.8417943210677
965.1423166,93.39071175993058
969.3021953,11.06772766491531
973.4558427,76.94418649633735
977.6032699,100.50324006883966
981.7444877,-118.36190468918949
985.8795072,83.15508179237008
990.0083394,132.10545049774964
994.1309953,283.59965453306677
998.2474857,1361.4191447565554
1002.357822,2463.6607871059687
1006.462014,4333.894549965795
1010.560075,3533.733967764421
1014.652013,1889.1361474541304
1018.737841,677.1528877497389
1022.81757,49.03316571747462
1026.891209,-53.46485648957889
1030.958771,-188.8105633063048
1035.020266,-67.44165916849136
1039.075705,-132.8503397826435
1043.1251,19.885640885951375
1047.16846,514.9596582775237
1051.205797,1058.8931341921593
1055.237121,2393.7692181499583
1059.262444,5052.403334910888
1063.281777,10426.93795602401
1067.295131,18499.99013584113
1071.302515,28372.12005276056
1075.303942,33974.85707518614
1079.299422,33464.86042602439
1083.288966,24740.475569617847
1087.272585,13961.139693081232
1091.250289,6201.983253434324
1095.222091,2546.4163346589285
1099.187999,715.7422164581803
1103.148026,130.87657321588586
1107.102183,-30.258630784468096
1111.050479,46.59672412169266
1114.992927,457.3982955946217
1118.929536,1381.9738835251298
1122.860318,3408.5612701093614
1126.785283,6465.648498344932
1130.704443,12374.836654023095
1134.617808,21350.276525129113
1138.52539,30220.847805272773
1142.427198,34905.57841236756
1146.323244,30935.42400874828
1150.213538,20889.850101711567
1154.098093,12964.758964576173
1157.976917,8613.537235744167
1161.850023,7791.697778338608
1165.717421,8422.034882215772
1169.579121,9114.270844043558
1173.435135,9341.689123708224
1177.285474,8280.48788480305
1181.130148,7769.829686968677
1184.969169,7728.329133040867
1188.802547,7192.196924724487
1192.630292,6258.7503867042
1196.452416,3786.932969954025
1200.26893,1708.9243019752168
1204.079844,539.4423673812532
1207.88517,-28.994738606707642
1211.684917,260.99467753138697
1215.479098,-48.90493498971091
1219.267722,817.8539266277566
1223.050801,54.58560830000681
1226.828346,233.57191935465937
1230.600366,222.83600705174445
1234.366874,82.25460509829657
1238.12788,134.32392792470046
1241.883395,-121.7649794739163
1245.633429,75.73740107007308
1249.377994,167.876825417852
1253.1171,-15.799628561509905
1256.850759,-3.395522433869928
1260.578981,37.306777779891604
1264.301776,72.7335866438878
1268.019157,-34.73250887351591
1271.731133,-235.00357238252087
1275.437715,-172.15867268146104
1279.138915,54.39544404426738
1282.834743,61.87801481881593
1286.52521,-173.64206627157768
1290.210328,98.79578083525064
1293.890106,590.0549230318619
1297.564555,1626.973027258942
1301.233688,1741.4990470345683
1304.897514,1969.1788300314897
1308.556044,1291.6649997381337
1312.209289,759.1263720368158
1315.857261,265.2815251848356
1319.499969,124.59826031578905
1323.137425,475.44090470350966
1326.769641,-86.47365495908298
1330.396626,324.8038611860511
1334.018391,9.137850182246893
1337.634948,96.35207999853424
1341.246307,32.94827800755411
1344.85248,245.76777403496158
1348.453477,591.80512436344
1352.049309,494.5016603377794
1355.639987,654.8744068790079
1359.225522,994.2979586439674
1362.805925,932.6325207010773
1366.381207,1122.6531358316324
1369.951379,1405.0725284716914
1373.516452,1654.6607678907435
1377.076436,2432.386096764625
1380.631343,4125.795691611242
1384.181184,6612.369477264142
1387.725969,10156.514232080906
1391.26571,12468.394218763147
1394.800417,11045.93661334223
1398.330102,6754.791399918666
1401.854776,3294.2210942300308
1405.374448,866.8870990811201
1408.889132,73.82693808079785
1412.398837,-114.26622078779474
1415.903574,419.3786765169107
1419.403355,2347.372047375331
1422.89819,4783.707262764265
1426.388091,8940.07180393696
1429.873069,14222.793513995806
1433.353134,18839.509691689607
1436.828298,21333.409688431533
1440.298571,21156.731126709823
1443.763965,17913.63263439379
1447.224491,13445.051696729712
1450.68016,8692.89454337896
1454.130983,5384.164873403961
1457.576971,2880.940977169386
1461.018135,2086.5365349597887
1464.454486,1598.0492850327428
1467.886036,1868.309609193711
1471.312794,2834.0849431568577
1474.734774,3300.120307384359
1478.151985,3301.524030162615
1481.564439,1826.2286703485597
1484.972146,1008.6655443223917
1488.375119,687.4448050580268
1491.773368,882.5382572203016
1495.166904,706.2232418388062
1498.555739,65.28549336856304
1501.939883,-51.92928636196348
1505.319349,-148.40774312967187
1508.694146,-61.01934338495721
1512.064286,-9.149771839338882
1515.429781,112.79693323233005
1518.790642,111.55751638054335
1522.146879,578.3583655875059
1525.498505,323.6547433599976
1528.845529,483.5983782609783
1532.187965,1213.7857516533895
1535.525822,2111.7589839732073
1538.859112,2847.3251986279506
1542.187846,3926.913142510787
1545.512036,4691.1244267174625
1548.831693,6092.744785699858
1552.146829,7181.718861002555
1555.457453,7881.3853798026685
1558.763579,8126.188582129825
1562.065216,9006.10928950067
1565.362377,9660.827326808987
1568.655073,10473.209995549905
1571.943315,11318.18194304754
1575.227114,12124.564238143146
1578.506482,12476.815977427286
1581.781431,12523.041050422828
1585.051971,11533.725178865188
1588.318114,10876.013232033147
1591.579872,9931.417250274126
1594.837255,7998.184984390267
1598.090275,6138.386273096272
1601.338945,4264.7879173064175
1604.583274,3039.9788865978694
1607.823275,2124.262014011547
1611.058959,1578.2590338082207
1614.290338,1440.5536312973725
1617.517422,799.7182013060485
1620.740224,903.2503034290899
1623.958755,625.7741985078133
1627.173027,408.4678941333814
1630.38305,110.9280249853798
1633.588838,219.08260755599372
1636.7904,73.30872532873536
1639.987749,421.6329983222928
1643.180896,201.89918994738753
1646.369853,-117.75924851743082
1649.554632,350.1476182646397
1652.735244,-4.32171911490957
1655.9117,-110.02013819198211
1659.084013,9.337232861568083
1662.252193,358.52413186864237
1665.416254,-198.04264592978518
1668.576205,135.70538728809524
1671.732059,172.3322057550606
1674.883828,182.4470918865092
1678.031523,-23.644790844196812
1681.175157,29.191917544447776
1684.314739,55.21464579375785
1687.450284,59.15402537438014
1690.581801,-1.9317296451779207
1693.709304,-91.94622375158862
1696.832803,-56.08190508951134
1699.952311,26.153293014688472
1703.067839,-47.932721911949024
1706.179399,127.87480203016031
1709.287003,212.23191984575683
1712.390663,28.588027836484354
1715.49039,23.187714886579638
1718.586197,185.6305992705096
1721.678095,86.7136479398194
1724.766096,76.07300637941451
1727.850213,-206.03828413995055
1730.930456,-52.3696717845682
1734.006838,-21.46605815334594
1737.079372,130.33709900139604
1740.148067,-141.06364080795512
1743.212938,304.0483076669808
1746.273996,15.701052631540055
1749.331252,83.6303133534835
1752.384718,-43.1977754112539
1755.434408,42.42356262749939
1758.480332,63.46346558741716
1761.522503,9.861672855806484
1764.560933,54.9919161287893
1767.595634,-201.7298711137715
1770.626618,83.54761073177248
1773.653896,187.2761080938862
1776.677482,-23.251952223967983
1779.697388,-38.319077123032145
1782.713625,268.3962965811284
1785.726205,168.13544929734283
1788.735141,201.1668447993159
1791.740445,-56.2322203355549
1794.742129,-13.771416388136604
1797.740206,36.96135144979221
1800.734687,234.17428961690612
1803.725585,117.40995147019972
1806.712912,91.01741356637848
1809.69668,57.75510555725904
1812.676902,-14.64474426171413
1815.65359,-195.50725842145184
1818.626756,-14.017642490847361
1821.596413,-26.127332865146577
1824.562573,34.69824405217187
1827.525247,-2.4685246568479435
1830.48445,1.4248191365652048
1833.440192,35.44387251262121
1836.392487,-38.01490276077053
1839.341347,-30.16587074634727
1842.286784,66.61335295603037
1845.22881,-37.63646983392381
1848.167439,190.89263477711302
1851.102682,92.16410365001981
1854.034553,-61.13884569179512
1856.963063,-39.29336505185481
1859.888226,180.56995475331422
1862.810053,48.77494668359526
1865.728557,121.57586486682183
1868.643751,-49.323476915574744
1871.555648,-2.312504404571655
1874.46426,-184.52396205063962
1877.369599,117.12196687694905
1880.271679,2.3446829668679037
1883.170512,-86.1164863251152
1886.06611,59.49597816236945
1888.958487,77.11187423956063
1891.847655,-31.064213409866323
1894.733626,-88.56192958617416
1897.616414,-23.399525974375614
1900.496032,-174.9724310831321
1903.372491,94.71012447568626
1906.245805,69.28691899717353
1909.115987,111.55790129424922
1911.983049,49.16811102265683
1914.847004,53.08684646965585
1917.707866,31.704621882782646
1920.565646,71.071599076833
1923.420359,-156.4621491907347
1926.272016,25.72725627780278
1929.120631,-104.07143311074836
1931.966216,-70.78511187136837
1934.808786,-66.59297672971289
1937.648351,-35.950461673128025
1940.484927,20.38415728804783
1943.318525,65.12255909657685
1946.149158,94.42604078273186
1948.97684,504.2785220730378
1951.801584,94.83047421496454
1954.623403,-2.5027206990297515
1957.44231,53.73400618835866
1960.258318,-105.57083834836342
1963.071439,-104.09156169135608
1965.881688,20.709303803815565
1968.689078,45.56281028250992
1971.493621,-5.329648128388422
