Raman shift cm-1,4ATP_1nM_rep3_acc5_processed_intensity
-93.47115107,500.2953787578482
-87.69374369,188.6047905382698
-81.9253076,20.942917504178848
-76.16582701,3.015241526897128
-70.41528615,27.411114760865566
-64.67366933,17.133410584314774
-58.94096086,-4.0996145133589295
-53.21714512,20.230404706547745
-47.50220652,98.76400443609097
-41.79612954,192.71047855313037
-36.09889866,260.1834824025611
-30.41049843,285.02384814898767
-24.73091343,273.5478257667791
-19.0601283,236.63038432820454
-13.39812769,191.13153796876918
-7.744896327,169.1481643844271
-2.100418946,184.7165019948377
3.535319659,197.18663762220388
9.162334658,160.85381101905193
14.78064118,102.62081917070199
20.39025432,93.98904301348578
25.99118913,150.25110682444856
31.58346061,206.6130701262559
37.16708375,200.11345669267698
42.74207347,135.66846297878232
48.30844468,59.271943231170525
53.86621222,5.611236914732565
59.41539093,-10.781261759171556
64.95599558,7.110637980281922
70.48804091,35.5161567900752
76.01154164,60.5803335832762
81.52651243,104.86328673441469
87.03296792,175.939834797491
92.5309227,220.8292274895506
98.02039134,192.0270132752099
103.5013884,126.75562584559819
108.9739282,113.73253842351235
114.4380255,194.52983552975002
119.8936944,306.30431593074013
125.3409495,333.35523484487135
130.779805,243.53455650215489
136.2102753,137.87829806163583
141.6323747,117.46620309542224
147.0461174,158.69519822707258
152.4515176,179.6937981551352
157.8485895,169.2265582264218
163.2373472,181.24989996276966
168.6178049,236.3090339734442
173.9899766,292.19886477065046
179.3538764,312.5325477250513
184.7095182,315.2229400583275
190.0569161,332.9043593147992
195.396084,361.31841432252804
200.7270358,371.12773338693626
206.0497854,351.7624347078921
211.3643466,327.26849198871423
216.6707333,326.8630693068059
221.9689593,346.7334431994757
227.2590382,358.6015308027941
232.5409839,353.1680939029087
237.8148101,351.2432200464276
243.0805303,371.2668823319651
248.3381582,412.1018990173437
253.5877075,472.6885315238899
258.8291917,555.0505509421844
264.0626244,636.5487725358516
269.288019,674.6951402239006
274.5053891,656.5324979373565
279.7147481,618.1576737831131
284.9161094,596.077095901636
290.1094865,570.460152161812
295.2948927,479.1315390256891
300.4723414,298.0713268875338
305.6418459,98.41619544955718
310.8034194,-2.3184694118702964
315.9570752,38.18263184742881
321.1028267,138.22329190400984
326.2406869,188.94069797000526
331.370669,170.7716662602772
336.4927863,143.45966483887898
341.6070517,150.01740092831258
346.7134786,171.68903802293897
351.8120798,172.27469820924466
356.9028684,151.8243497892188
361.9858576,139.4415582024091
367.0610602,158.89575602875485
372.1284892,234.32872747055256
377.1881577,407.94512971205904
382.2400784,697.2557853350529
387.2842644,1024.996591001008
392.3207284,1234.7165370736227
397.3494833,1210.9355196382458
402.370542,977.2178290296083
407.3839172,666.2019862000644
412.3896217,407.60493005753943
417.3876683,253.04171728170166
422.3780697,190.30995691025046
427.3608386,191.09896568099614
432.3359876,221.5358301480769
437.3035295,236.59548533962456
442.2634769,207.4728202098583
447.2158423,148.97505492376803
452.1606383,94.01279488666978
457.0978776,52.747550368021365
462.0275727,18.65523765802257
466.9497361,-2.5642573637324517
471.8643802,5.550458977044798
476.7715176,45.55151142334555
481.6711608,95.1326523992411
486.5633221,122.6007612791051
491.448014,113.34655132320543
496.3252488,82.46112249335637
501.195039,57.16476861431671
506.0573969,48.8314876530039
510.9123349,56.2804939875896
515.7598651,84.8185463021306
520.6,129.47022852398615
525.4327518,155.54652759342088
530.2581327,137.34261904933254
535.076155,100.97411479530834
539.8868309,93.45566822094813
544.6901726,119.95570667145057
549.4861922,136.31912337638343
554.2749019,108.92302600891091
559.0563139,69.95599060520672
563.8304402,79.16986563947053
568.597293,130.6375688242148
573.3568844,160.26445721551
578.1092263,145.57266372592335
582.8543308,120.96244798345262
587.5922101,104.68170743859673
592.322876,81.22026079477315
597.0463405,42.76068359866054
601.7626157,4.525656718392042
606.4717135,-11.76315373655791
611.1736458,3.2255054107330565
615.8684246,35.7827973558811
620.5560617,62.670972889641085
625.2365691,84.08884953249908
629.9099585,123.13235827326979
634.5762419,182.06993356249896
639.2354312,227.17637825970527
643.887538,229.26163634755926
648.5325743,193.87169170025342
653.1705518,142.32350189484083
657.8014823,89.76942370380745
662.4253775,54.64067613204763
667.0422493,57.40949537820846
671.6521092,89.3807600620975
676.2549691,110.63927723336289
680.8508407,93.31658157224891
685.4397355,47.45078253677271
690.0216654,5.406972362056919
694.5966419,-3.9519345453752663
699.1646767,25.411654413852425
703.7257814,72.39478553329579
708.2799676,105.93310320610362
712.827247,104.47667524858167
717.367631,64.71103321116021
721.9011314,13.294775863806933
726.4277595,5.482947253068197
730.9475271,75.12605900613711
735.4604456,179.86910598048354
739.9665264,229.9282261982998
744.4657813,181.42607428471248
748.9582215,78.91758281406261
753.4438587,1.6640243547152238
757.9227042,-6.296702222207102
762.3947696,53.869408578439646
766.8600662,156.42559368197874
771.3186056,251.79098328147455
775.770399,276.5853382286072
780.215458,205.96936945930264
784.6537939,96.9103139023428
789.0854181,48.991219652199916
793.510342,100.39628177137712
797.9285769,183.7764792311649
802.3401342,212.2331921924188
806.7450253,177.460501614821
811.1432614,132.3214953948792
815.5348538,117.76219509949382
819.9198139,138.20175992692418
824.2981531,172.2746898966813
828.6698824,186.90194100246535
833.0350133,168.221292104408
837.393557,141.7980314059886
841.7455248,137.57552743085813
846.0909278,143.55731627587673
850.4297774,120.17936437435353
854.7620848,56.90654327901575
859.0878611,0.722447560700175
863.4071176,21.928223868932292
867.7198655,139.94092670334322
872.026116,288.51002249820596
876.3258802,378.9468875832439
880.6191693,385.5467778762221
884.9059946,338.4349327089419
889.186367,266.5806147089452
893.4602979,197.55880458702586
897.7277982,173.17038259244708
901.9888793,203.48055292651222
906.2435521,233.25551127811343
910.4918277,207.11457263918433
914.7337174,146.41455830584525
918.9692321,117.68219221631668
923.1983831,148.21027013516556
927.4211813,211.21744570250632
931.6376378,268.1661287942227
935.8477637,292.18077939667614
940.0515701,271.35566387305704
944.249068,221.07106351460556
948.4402684,187.9295467228443
952.6251825,212.94032059866396
956.8038212,281.91650301993104
960.9761955,334.381637047542
965.1423166,330.4740707401844
969.3021953,286.36443048591053
973.4558427,241.81117384570678
977.6032699,223.5667817087583
981.7444877,238.31263925627212
985.8795072,269.6317578646325
990.0083394,282.9099104281605
994.1309953,252.99810863759117
998.2474857,191.1509364493585
1002.357822,142.66264976234396
1006.462014,151.64296145940344
1010.560075,216.7044941013028
1014.652013,282.76169678263005
1018.737841,292.6384926486836
1022.81757,248.033075404339
1026.891209,200.0835509689752
1030.958771,185.90711555270715
1035.020266,206.954520301269
1039.075705,257.6448367321345
1043.1251,322.01732647238225
1047.16846,343.6458097128316
1051.205797,262.69852425270074
1055.237121,104.83869475414107
1059.262444,-4.558126258807732
1063.281777,67.1818183595789
1067.295131,354.06703564375425
1071.302515,757.3341978481817
1075.303942,1100.668347514149
1079.299422,1228.4809140224793
1083.288966,1087.4828118991074
1087.272585,758.7601306219352
1091.250289,413.08790693347976
1095.222091,197.78012844638195
1099.187999,142.22068246445951
1103.148026,167.77171851107744
1107.102183,179.25626684864977
1111.050479,137.76773678708167
1114.992927,64.02830773394942
1118.929536,4.582473638591821
1122.860318,2.5253249111532625
1126.785283,80.37611129105929
1130.704443,220.54804146759983
1134.617808,354.7015656552529
1138.52539,405.5281742994415
1142.427198,358.3060344968434
1146.323244,270.2372567630597
1150.213538,204.43031445981484
1154.098093,180.08352741652203
1157.976917,192.1580364947304
1161.850023,240.78096337576466
1165.717421,310.6230518783604
1169.579121,354.1666177004606
1173.435135,341.01600197235155
1177.285474,306.5573109346376
1181.130148,306.1946700005402
1184.969169,330.6905577740785
1188.802547,316.9715632483378
1192.630292,238.76081072093592
1196.452416,133.5891720795987
1200.26893,44.785434297441206
1204.079844,-7.040049006564715
1207.88517,0.029020122636850942
1211.684917,78.34520394306875
1215.479098,183.5502682960793
1219.267722,231.79068245789676
1223.050801,190.5068221295037
1226.828346,113.16491650492952
1230.600366,64.99249351433814
1234.366874,63.445541003859404
1238.12788,101.08111560440395
1241.883395,160.77837555386918
1245.633429,197.2458556783604
1249.377994,169.57110873088487
1253.1171,104.9638058235081
1256.850759,72.71902170497994
1260.578981,86.94578511044861
1264.301776,89.90468572515013
1268.019157,45.81468359482379
1271.731133,4.647914063217865
1275.437715,33.12438815718171
1279.138915,103.63299737586613
1282.834743,119.03130717666899
1286.52521,54.629314824225816
1290.210328,-5.112704108362646
1293.890106,7.2244822514844635
1297.564555,62.66880334863353
1301.233688,107.0596545632605
1304.897514,129.09747789433368
1308.556044,130.09876942167085
1312.209289,103.96351542278697
1315.857261,77.68265232099064
1319.499969,105.35353143794266
1323.137425,192.63458850285267
1326.769641,274.8795685849082
1330.396626,287.56162101838373
1334.018391,229.8518569228828
1337.634948,153.10577872926996
1341.246307,102.44976291862545
1344.85248,81.90224276246272
1348.453477,77.61426919748833
1352.049309,92.51286743509786
1355.639987,133.67605673774398
1359.225522,180.05893216760322
1362.805925,196.79756968557643
1366.381207,179.5478533279462
1369.951379,160.96941421788887
1373.516452,174.72659978292018
1377.076436,223.32951757543898
1380.631343,276.8068867204521
1384.181184,297.6091041381882
1387.725969,274.24320201100363
1391.26571,239.261368714683
1394.800417,239.46910560136882
1398.330102,271.40457719584447
1401.854776,268.46038335751507
1405.374448,181.37150117218454
1408.889132,56.12366999293147
1412.398837,-4.850671773651868
1415.903574,42.38946653531045
1419.403355,144.28774089684597
1422.89819,227.23260834043697
1426.388091,265.80179372390603
1429.873069,264.08505372932854
1433.353134,223.4076945634077
1436.828298,150.8872728388989
1440.298571,68.66853846851762
1443.763965,6.234016746173509
1447.224491,-8.78352199412788
1450.68016,30.509969465787833
1454.130983,96.76724225304729
1457.576971,148.9972423354079
1461.018135,162.07599127999484
1464.454486,135.1870431512508
1467.886036,93.50704731435312
1471.312794,79.18329219065994
1474.734774,109.91030992483022
1478.151985,146.61655458528267
1481.564439,137.35958939497334
1484.972146,92.42496445357638
1488.375119,70.07375918850762
1491.773368,86.64667880636574
1495.166904,97.35548531957667
1498.555739,73.32284163862506
1501.939883,40.06947576584838
1505.319349,30.24573448020235
1508.694146,44.43165486318066
1512.064286,65.18695559135458
1515.429781,79.1720872181032
1518.790642,75.7621486088271
1522.146879,46.53771482937392
1525.498505,8.065636445874336
1528.845529,0.21996890368075483
1532.187965,35.058972702915
1535.525822,83.03253187443661
1538.859112,128.90613417924794
1542.187846,193.08496840311162
1545.512036,272.2261447959419
1548.831693,299.9353541283276
1552.146829,218.76087011323568
1555.457453,86.99795719024158
1558.763579,47.991023806628135
1562.065216,165.73613586194045
1565.362377,346.63212882226134
1568.655073,456.023498420355
1571.943315,468.0095514566693
1575.227114,464.49013124053755
1578.506482,513.2966257755842
1581.781431,596.404867333541
1585.051971,659.7525957794959
1588.318114,677.3560715805266
1591.579872,644.5653942858521
1594.837255,561.9666864683775
1598.090275,450.80713010277475
1601.338945,341.70566949245153
1604.583274,238.84940202011006
1607.823275,132.8256806694858
1611.058959,40.465003126122625
1614.290338,-6.05797219896246
1617.517422,0.6350426301694228
1620.740224,36.22832681569684
1623.958755,68.74391784421738
1627.173027,85.0276201443445
1630.38305,98.22700243882119
1633.588838,128.73079774384698
1636.7904,180.29313563407524
1639.987749,235.0885483730167
1643.180896,267.476206733499
1646.369853,260.54877330983226
1649.554632,215.61967120107602
1652.735244,160.6021728037976
1655.9117,139.9771073591944
1659.084013,167.1697462209209
1662.252193,202.683877400116
1665.416254,207.69552117586133
1668.576205,187.13305458369223
1671.732059,160.6842851194153
1674.883828,135.36609248626758
1678.031523,116.26939494517508
1681.175157,106.40939375821642
1684.314739,97.34066116416842
1687.450284,79.54630512704404
1690.581801,52.27158028871043
1693.709304,22.077745697967174
1696.832803,5.4537970080195635
1699.952311,25.584786152573855
1703.067839,89.39110838861592
1706.179399,167.37200165128277
1709.287003,212.74807694083444
1712.390663,209.33761960440245
1715.49039,182.27111253682898
1718.586197,153.58642233465292
1721.678095,115.5616359061786
1724.766096,60.51411683465972
1727.850213,7.501099900299849
1730.930456,-16.338045732045146
1734.006838,1.9570660574599827
1737.079372,62.44346365893189
1740.148067,145.0269858483421
1743.212938,205.0981300214036
1746.273996,212.77099796698656
1749.331252,189.9235686348717
1752.384718,177.33127412726566
1755.434408,176.34333631447083
1758.480332,151.22042523884096
1761.522503,90.8270329293816
1764.560933,45.86420908393272
1767.595634,72.4145438445726
1770.626618,145.05959393687817
1773.653896,184.5576127605834
1776.677482,174.11490717155266
1779.697388,174.148154659865
1782.713625,215.1034549966154
1785.726205,248.48511030400238
1788.735141,223.09874111615815
1791.740445,163.93772895090737
1794.742129,143.2765398019687
1797.740206,182.53209353198264
1800.734687,220.09485325131305
1803.725585,192.11380566427763
1806.712912,110.00170610460968
1809.69668,34.15047054190511
1812.676902,0.5757073752369912
1815.65359,-1.070683158605089
1818.626756,4.416069757084655
1821.596413,7.2003857471796255
1824.562573,9.567218003439937
1827.525247,8.103782530311936
1830.48445,-3.350310357635564
1833.440192,-13.028355666283254
1836.392487,2.832469694759361
1839.341347,47.52969884961808
1842.286784,98.19676460566797
1845.22881,130.4157633953326
1848.167439,132.58939708869664
1851.102682,114.9462428561629
1854.034553,114.50486132126159
1856.963063,156.65687539887415
1859.888226,207.66324115385606
1862.810053,204.77938632170466
1865.728557,132.47416779238947
1868.643751,39.921143200490384
1871.555648,-9.338988057165722
1874.46426,6.9587157864054205
1877.369599,55.951369570116206
1880.271679,93.43846446621905
1883.170512,113.163504295488
1886.06611,130.48229728511114
1888.958487,141.13043768699376
1891.847655,129.63362806970798
1894.733626,100.1135489523952
1897.616414,78.67209688778513
1900.496032,91.80197673484668
1903.372491,140.46701928183847
1906.245805,193.46750368058002
1909.115987,216.20206724510746
1911.983049,205.83387157831578
1914.847004,187.33619788361548
1917.707866,174.17519616562848
1920.565646,149.2308754617873
1923.420359,95.46660567878224
1926.272016,31.37044274709052
1929.120631,-1.1804885852458256
1931.966216,18.825868738030707
1934.808786,71.59506876985023
1937.648351,124.42695210678436
1940.484927,174.70671221006043
1943.318525,252.20171827197822
1946.149158,361.1086310131643
1948.97684,435.862417271136
1951.801584,398.31664943448726
1954.623403,252.32602152551152
1957.44231,86.15211502345247
1960.258318,-5.882616867232599
1963.071439,6.889824688635784
1965.881688,71.66620894043875
1968.689078,102.40206384456451
1971.493621,72.90435246068887
