Raman shift cm-1,4ATP_100pM_rep1_acc1_processed_intensity
-93.47115107,501.89950073479184
-87.69374369,45.8652545522084
-81.9253076,-83.63322405492681
-76.16582701,51.32835051484569
-70.41528615,136.44818639699182
-64.67366933,68.1394508899179
-58.94096086,-14.223674591619337
-53.21714512,-34.036662475243176
-47.50220652,20.33955711139328
-41.79612954,149.2600147851945
-36.09889866,237.3757184095992
-30.41049843,197.96041418703223
-24.73091343,147.35354438058712
-19.0601283,169.9963993004741
-13.39812769,142.0465712034566
-7.744896327,20.59093946587538
-2.100418946,-16.958502848463134
3.535319659,78.35932662446618
9.162334658,118.46677995150307
14.78064118,36.61944992773627
20.39025432,-4.920038930897952
25.99118913,86.70567285019192
31.58346061,184.9851887704822
37.16708375,155.76704719555448
42.74207347,69.23719703905344
48.30844468,41.671106531234756
53.86621222,4.943040171078257
59.41539093,-75.45342077109767
64.95599558,-15.54322977354375
70.48804091,146.28557623153898
76.01154164,103.76759824104329
81.52651243,-11.976361002800527
87.03296792,119.29163995879792
92.5309227,248.0481574546351
98.02039134,133.5296075327069
103.5013884,29.62402223129164
108.9739282,47.75394470333552
114.4380255,126.50327227626218
119.8936944,318.4448574339473
125.3409495,409.18306981087665
130.779805,156.5568135417745
136.2102753,-87.86469762017288
141.6323747,29.28243040074934
147.0461174,205.32674718740287
152.4515176,120.19299789950232
157.8485895,-26.81642821082726
163.2373472,0.17780664900018728
168.6178049,102.70431790093033
173.9899766,104.88345056388432
179.3538764,47.03190242596575
184.7095182,90.16170089139555
190.0569161,171.42711633346943
195.396084,102.1435268179587
200.7270358,-5.165956090531989
206.0497854,42.62740946297706
211.3643466,99.47120061991868
216.6707333,14.460908703263335
221.9689593,-51.36939056911669
227.2590382,0.07774768207648997
232.5409839,29.230289007907437
237.8148101,-2.52010106901049
243.0805303,-7.55388538150693
248.3381582,5.594603199972468
253.5877075,23.020861135254933
258.8291917,89.29859220661542
264.0626244,176.24882822159765
269.288019,199.43922820591365
274.5053891,129.64212204596976
279.7147481,10.747027407800465
284.9161094,-85.0149233568001
290.1094865,-87.30700774672415
295.2948927,-0.6802597971288975
300.4723414,42.570299182472155
305.6418459,15.848941367755657
310.8034194,110.74920889730649
315.9570752,336.61721398855394
321.1028267,446.96719315190893
326.2406869,388.55972293418495
331.370669,288.17839164300756
336.4927863,176.19234531886752
341.6070517,109.74734639655293
346.7134786,160.6081737795073
351.8120798,191.5653495218994
356.9028684,99.12666266984547
361.9858576,27.066369867933474
367.0610602,47.72519810730853
372.1284892,92.70846075555801
377.1881577,186.7706497273856
382.2400784,382.48822866538944
387.2842644,615.3518868062292
392.3207284,746.8703990033047
397.3494833,730.8325202375241
402.370542,639.2767901154459
407.3839172,478.7977192870549
412.3896217,253.60421178828904
417.3876683,81.34653747812428
422.3780697,13.058464516984031
427.3608386,35.866567310448374
432.3359876,167.2016013151138
437.3035295,278.1974700079166
442.2634769,183.6256777526209
447.2158423,-6.469687877204706
452.1606383,-67.9643382206045
457.0978776,-28.175347889769398
462.0275727,19.315561922303317
466.9497361,87.43550654481882
471.8643802,148.22672854714756
476.7715176,188.58718224073863
481.6711608,289.9647900270714
486.5633221,429.3992673745697
491.448014,457.72431922212184
496.3252488,413.25211274596666
501.195039,478.2966791497696
506.0573969,521.9063154424866
510.9123349,310.28848425929846
515.7598651,101.69824148400691
520.6,193.02502084190212
525.4327518,294.3745276210279
530.2581327,146.76480632641383
535.076155,4.058536789197174
539.8868309,39.12211968230561
544.6901726,142.7334689723018
549.4861922,245.44840862176397
554.2749019,200.08271490864647
559.0563139,-24.160844981603447
563.8304402,-42.867312668731856
568.597293,196.33513688971885
573.3568844,217.53694952096563
578.1092263,28.78787141566767
582.8543308,24.58603883163118
587.5922101,117.44987021203434
592.322876,84.47803070157113
597.0463405,29.019275024029383
601.7626157,-10.343467291193289
606.4717135,-72.91611092700654
611.1736458,-49.319504886438665
615.8684246,30.40192165543683
620.5560617,21.76233535534437
625.2365691,10.641451477912888
629.9099585,92.94910958961165
634.5762419,156.710976802028
639.2354312,150.6350788200392
643.887538,118.3324003536487
648.5325743,52.2906779777346
653.1705518,-9.830504534699642
657.8014823,-22.728775438193026
662.4253775,-14.255349677051314
667.0422493,21.973166366700298
671.6521092,71.34581555543798
676.2549691,65.74252461691887
680.8508407,30.748730013102133
685.4397355,5.680979799830325
690.0216654,-30.94509466696819
694.5966419,-30.031441852297956
699.1646767,34.79479682268723
703.7257814,78.72312887737452
708.2799676,97.2755606996092
712.827247,141.78309314845393
717.367631,139.90085591085963
721.9011314,35.17418159220585
726.4277595,-53.650918539089645
730.9475271,0.9916646202816608
735.4604456,171.4451225572078
739.9665264,334.27272368358524
744.4657813,363.9567169609452
748.9582215,221.19945857172485
753.4438587,29.937922591813447
757.9227042,-50.492411388640214
762.3947696,17.04859902890084
766.8600662,176.53410895002267
771.3186056,292.34861001351794
775.770399,255.23781960092091
780.215458,128.48968438641182
784.6537939,10.228661891762393
789.0854181,-37.89096837371327
793.510342,24.767230526281573
797.9285769,91.44357366246635
802.3401342,85.10231953209987
806.7450253,113.36170012635947
811.1432614,137.72344480919418
815.5348538,26.84662340817983
819.9198139,-58.01364095132169
824.2981531,25.09444905804615
828.6698824,79.74719212632132
833.0350133,7.850095387577099
837.393557,-25.104586610587802
841.7455248,15.679484526204543
846.0909278,26.95200171511932
850.4297774,12.318582009508336
854.7620848,9.176632043848686
859.0878611,-8.040996273798365
863.4071176,-30.91671627683005
867.7198655,35.36979244371881
872.026116,207.68237967662685
876.3258802,323.02810547180064
880.6191693,330.24576088208545
884.9059946,358.24545180070794
889.186367,325.10683742734597
893.4602979,103.67113844867626
897.7277982,-23.524224516475257
901.9888793,166.76283136624787
906.2435521,315.8450821460158
910.4918277,135.36037767505962
914.7337174,-57.54302999770995
918.9692321,16.84476097788
923.1983831,185.7995124694301
927.4211813,258.1175557741028
931.6376378,255.7584272274339
935.8477637,246.50563286353653
940.0515701,202.52115878746247
944.249068,90.96564900004768
948.4402684,43.85343857805353
952.6251825,142.90447974933724
956.8038212,240.41206978439544
960.9761955,221.10497075950025
965.1423166,135.18637845141046
969.3021953,74.78073276703938
973.4558427,42.07703831184082
977.6032699,-17.134655815052206
981.7444877,-40.730818310504276
985.8795072,37.02432376180204
990.0083394,101.62317324115674
994.1309953,39.766483462965404
998.2474857,-67.76983521984349
1002.357822,-73.33377905267038
1006.462014,-4.9272840977162335
1010.560075,18.215559068779065
1014.652013,42.804635473356
1018.737841,105.82932547051945
1022.81757,89.04426407610723
1026.891209,37.877200619629406
1030.958771,111.65957687776115
1035.020266,188.8527317683717
1039.075705,102.33779250814574
1043.1251,19.181834315742442
1047.16846,87.27206402299912
1051.205797,132.290756650582
1055.237121,16.244628379109795
1059.262444,-97.43272025217823
1063.281777,32.440653918574135
1067.295131,390.1808466734285
1071.302515,776.63842394419
1075.303942,1132.1604557027456
1079.299422,1314.5862055021528
1083.288966,1039.1523648099874
1087.272585,526.5550788157746
1091.250289,263.32061821718077
1095.222091,193.9610825778504
1099.187999,74.96672709527574
1103.148026,-18.316059735815266
1107.102183,-4.701220247448205
1111.050479,18.559000757892846
1114.992927,-3.6915886884843907
1118.929536,-7.6546981155458464
1122.860318,29.909979912779956
1126.785283,96.93477759618104
1130.704443,277.2051267367897
1134.617808,571.872700925704
1138.52539,787.4692318465329
1142.427198,798.6434710144536
1146.323244,672.4316455954489
1150.213538,537.9842278975475
1154.098093,429.36415778285055
1157.976917,303.10646170599586
1161.850023,231.24563426286946
1165.717421,313.030305966921
1169.579121,428.4283131040575
1173.435135,388.4622839647047
1177.285474,266.06012858094
1181.130148,302.95739407921764
1184.969169,480.4089147491852
1188.802547,533.7670275082914
1192.630292,394.9569619340107
1196.452416,220.1033712051815
1200.26893,91.03486598120097
1204.079844,-2.5360819339242937
1207.88517,-40.28099453458843
1211.684917,35.99943496360475
1215.479098,201.59218019492556
1219.267722,242.61526219567065
1223.050801,78.62585645477006
1226.828346,-7.146211545158806
1230.600366,112.3336681834214
1234.366874,192.55183480194904
1238.12788,139.14491313695726
1241.883395,135.70183464489122
1245.633429,231.4286669106281
1249.377994,241.96078001418954
1253.1171,113.21023245468814
1256.850759,16.318641307659306
1260.578981,34.258734992577416
1264.301776,89.16617156463445
1268.019157,81.9226525612312
1271.731133,-4.200555348200766
1275.437715,-6.0000522000116945
1279.138915,168.45136547829088
1282.834743,240.5739416104631
1286.52521,32.569002417886
1290.210328,-121.82041826246174
1293.890106,-16.346598383154767
1297.564555,65.07130502947925
1301.233688,11.003646776924242
1304.897514,51.557701608451936
1308.556044,160.08921634399283
1312.209289,97.70235582492796
1315.857261,-37.765171078877444
1319.499969,17.4657843488815
1323.137425,206.81813160861324
1326.769641,318.4143675694572
1330.396626,293.8711849182006
1334.018391,194.2484285969059
1337.634948,108.2198927542081
1341.246307,51.76951500961144
1344.85248,-12.508331851914534
1348.453477,-49.15777487232015
1352.049309,-11.800133957716866
1355.639987,40.761041718076115
1359.225522,37.67810201971821
1362.805925,17.399651720491647
1366.381207,2.099020376555586
1369.951379,-32.955970969719374
1373.516452,5.640523018339934
1377.076436,139.34080662749216
1380.631343,203.03391030862156
1384.181184,202.06301337076144
1387.725969,259.2592884004085
1391.26571,295.0973458856273
1394.800417,256.0216038865932
1398.330102,262.08186860817017
1401.854776,302.51233348255096
1405.374448,225.0515607900531
1408.889132,34.01651841365836
1412.398837,-70.65233137734663
1415.903574,23.183485572309195
1419.403355,168.2702650460901
1422.89819,238.94002001287714
1426.388091,309.88599693956826
1429.873069,368.6382177863513
1433.353134,321.43105778702284
1436.828298,236.32075395232584
1440.298571,156.49525075576543
1443.763965,22.31690592551754
1447.224491,-61.287283171299165
1450.68016,26.17633371250594
1454.130983,124.7484634567336
1457.576971,103.53047846116719
1461.018135,102.27705311087286
1464.454486,155.26475787761302
1467.886036,100.40378395099437
1471.312794,-21.969204663442962
1474.734774,21.698451220847133
1478.151985,214.34551892246432
1481.564439,249.07412655463347
1484.972146,42.119356883850486
1488.375119,-84.38119522079471
1491.773368,52.901920602268255
1495.166904,190.0915638076158
1498.555739,114.17096315896686
1501.939883,-15.56902730760909
1505.319349,-29.04958276411716
1508.694146,22.76864585000599
1512.064286,41.25422871728351
1515.429781,66.15417193819795
1518.790642,182.6775312399808
1522.146879,252.56067845979672
1525.498505,118.83040101162301
1528.845529,-30.944564277372578
1532.187965,5.433817956895691
1535.525822,139.09444493958156
1538.859112,202.78099350887612
1542.187846,159.49543434280744
1545.512036,196.39701989206867
1548.831693,380.73475128443783
1552.146829,384.42543211642504
1555.457453,124.85236664802963
1558.763579,9.039158022467781
1562.065216,230.12676685720024
1565.362377,537.985215311328
1568.655073,634.3875096000038
1571.943315,520.0669491680436
1575.227114,513.729631457032
1578.506482,732.8052202800719
1581.781431,825.7547339111908
1585.051971,656.0910572965466
1588.318114,589.7917921195008
1591.579872,698.9564973800328
1594.837255,610.5330206607575
1598.090275,341.9909543561757
1601.338945,280.1907817357828
1604.583274,357.03149509651763
1607.823275,226.9218139578778
1611.058959,3.3131880961937483
1614.290338,-28.075723319159742
1617.517422,69.82751268417269
1620.740224,130.23918774660396
1623.958755,108.2228247788519
1627.173027,23.22668203686635
1630.38305,-36.208122161824676
1633.588838,8.5187466070056
1636.7904,122.12919008042354
1639.987749,181.53379801697832
1643.180896,135.65849693199044
1646.369853,106.03328220244089
1649.554632,118.41310369173888
1652.735244,40.68147506055856
1655.9117,-28.03322776197712
1659.084013,52.120424065293946
1662.252193,78.95831385377737
1665.416254,-34.17825286339249
1668.576205,-50.5441718990478
1671.732059,45.974460986084
1674.883828,72.06985985565126
1678.031523,36.26367596889484
1681.175157,1.66355698698613
1684.314739,-27.38961657458592
1687.450284,-17.24798929854444
1690.581801,9.814293739058522
1693.709304,3.1250542740816236
1696.832803,-15.426559622436383
1699.952311,-9.5863690525997
1703.067839,48.70626600906897
1706.179399,144.383700161077
1709.287003,180.60425077146755
1712.390663,147.09229331327228
1715.49039,165.83245362257338
1718.586197,216.87433066945636
1721.678095,135.15740592609717
1724.766096,-26.138509484416787
1727.850213,-47.642138041669426
1730.930456,28.039374829767752
1734.006838,1.0309628270472047
1737.079372,-27.6965074481881
1740.148067,133.31427299821678
1743.212938,275.488458030028
1746.273996,159.63274441528088
1749.331252,5.4502575278510506
1752.384718,36.100576603263434
1755.434408,117.6035121772537
1758.480332,123.09749353447853
1761.522503,65.5704339251007
1764.560933,-18.563295342636817
1767.595634,2.4567071492935035
1770.626618,145.1027806926345
1773.653896,149.54552402383925
1776.677482,-1.3077883740274672
1779.697388,16.24184687107598
1782.713625,191.71003742285697
1785.726205,215.63736319158016
1788.735141,72.41437419681694
1791.740445,-19.966442550523666
1794.742129,44.965698989862524
1797.740206,187.37722835444498
1800.734687,236.9610785157582
1803.725585,146.93790740375607
1806.712912,49.121485572255736
1809.69668,14.022645942155144
1812.676902,-32.18853911550002
1815.65359,-76.51469051615298
1818.626756,-34.64877423315283
1821.596413,24.653089548961788
1824.562573,42.43498159432468
1827.525247,62.815197522661414
1830.48445,16.683984159870054
1833.440192,-86.84514909408604
1836.392487,-59.73200076206031
1839.341347,44.60046497952969
1842.286784,45.66675588098793
1845.22881,39.15146073015461
1848.167439,89.96026956994085
1851.102682,47.182433027315604
1854.034553,-48.34697892039998
1856.963063,0.6779602892517005
1859.888226,126.42144881787922
1862.810053,132.5981348161333
1865.728557,51.75390863193602
1868.643751,-19.89425426543303
1871.555648,-81.96539832764003
1874.46426,-66.29125774469973
1877.369599,24.212500156632473
1880.271679,40.801967425152384
1883.170512,14.538154598376359
1886.06611,45.31169992218089
1888.958487,50.09316536578292
1891.847655,9.563269268961575
1894.733626,-2.6060696298275303
1897.616414,-25.73360893986807
1900.496032,-54.62872545747372
1903.372491,12.451971469460887
1906.245805,124.65545631440816
1909.115987,141.19703638632407
1911.983049,88.25666666131036
1914.847004,83.55590618798487
1917.707866,119.62732547602471
1920.565646,97.86762320030346
1923.420359,5.466512379131203
1926.272016,-66.24521061349716
1929.120631,-52.11905618149094
1931.966216,9.608349546731382
1934.808786,47.64638266651113
1937.648351,39.351775666378515
1940.484927,-1.31261201214096
1943.318525,38.234923068940894
1946.149158,254.49903827611936
1948.97684,417.24504448117386
1951.801584,298.316560853585
1954.623403,101.7647788566082
1957.44231,18.811082272075936
1960.258318,-31.777238356179836
1963.071439,-53.215610986764084
1965.881688,0.39340395194719946
1968.689078,38.1846994514225
1971.493621,-1.9262413826468396
