Raman shift cm-1,4ATP_1mM_rep2_acc3_processed_intensity
-93.47115107,595.4522509428366
-87.69374369,21.177238380236012
-81.9253076,-28.622250939788735
-76.16582701,103.64761723138412
-70.41528615,119.05999813717331
-64.67366933,1.4722668825512955
-58.94096086,-41.9068864377973
-53.21714512,20.671847825359066
-47.50220652,39.35945812878272
-41.79612954,176.94221046944526
-36.09889866,322.8959323659872
-30.41049843,230.0751841775642
-24.73091343,130.122151597442
-19.0601283,156.21633246350922
-13.39812769,125.54485362648526
-7.744896327,-35.069028875886985
-2.100418946,-31.11052855005211
3.535319659,102.14818889990457
9.162334658,36.375374006512324
14.78064118,15.014284679495304
20.39025432,3.016248689099804
25.99118913,23.817702830492372
31.58346061,214.31644107186085
37.16708375,159.63043048821012
42.74207347,28.842699557480895
48.30844468,24.57362556563437
53.86621222,-1.7179486103684045
59.41539093,-41.39129751620104
64.95599558,-57.21283859887849
70.48804091,138.02077930929644
76.01154164,184.8568812466581
81.52651243,-2.8309416784283936
87.03296792,165.16118527250748
92.5309227,241.4663629689933
98.02039134,37.27224207427102
103.5013884,150.2007178345584
108.9739282,211.08089832689308
114.4380255,106.60919114219851
119.8936944,300.50975723681125
125.3409495,439.2237469074009
130.779805,171.33446842810272
136.2102753,-80.55337104332227
141.6323747,33.7589138201254
147.0461174,183.06838041055732
152.4515176,111.08240369392612
157.8485895,13.917614896253923
163.2373472,0.5435146323351034
168.6178049,129.42540698175137
173.9899766,242.20715096935453
179.3538764,106.59707267065443
184.7095182,64.68707109318503
190.0569161,225.91610320437218
195.396084,187.6281212391938
200.7270358,48.23922749857043
206.0497854,11.257991795850856
211.3643466,18.228239781396894
216.6707333,22.169136677450773
221.9689593,-5.5339117707678405
227.2590382,24.823910154942315
232.5409839,3.3215309625049336
237.8148101,-60.44058714958437
243.0805303,7.844655959855835
248.3381582,18.2813622832239
253.5877075,-54.08930395624019
258.8291917,22.678110949375686
264.0626244,101.68358987868643
269.288019,64.91035661612943
274.5053891,96.38463652828206
279.7147481,23.3782809302012
284.9161094,-80.68069166090496
290.1094865,190.1747984233768
295.2948927,1252.6368754994005
300.4723414,3671.557043936421
305.6418459,6854.7221790570975
310.8034194,9661.95030173235
315.9570752,11453.826220698716
321.1028267,11987.121374814154
326.2406869,12208.509490058424
331.370669,12798.496493913462
336.4927863,13249.051773321245
341.6070517,13355.649359721316
346.7134786,13364.907400916272
351.8120798,13475.1816632215
356.9028684,13477.698723701727
361.9858576,13401.775447123062
367.0610602,13612.457242164677
372.1284892,14233.685137369128
377.1881577,16346.564484877039
382.2400784,20844.381782584896
387.2842644,25932.952797246922
392.3207284,27747.54782592333
397.3494833,24946.86611819612
402.370542,21024.335716295474
407.3839172,18001.625971968617
412.3896217,15322.692820295615
417.3876683,13406.0509264156
422.3780697,11819.32498782509
427.3608386,10551.293460501232
432.3359876,10035.557011670388
437.3035295,9708.99304862577
442.2634769,9248.508815910849
447.2158423,8478.47974045777
452.1606383,7900.722984580532
457.0978776,7488.456088364212
462.0275727,7049.543208908657
466.9497361,6917.049932931808
471.8643802,6599.1007307696045
476.7715176,6570.606576050303
481.6711608,7331.597737611392
486.5633221,7705.121461417658
491.448014,7235.382701897673
496.3252488,6465.494599192425
501.195039,5786.697730506209
506.0573969,5358.863107836679
510.9123349,4764.315536797427
515.7598651,4090.1779204783625
520.6,3751.544068262482
525.4327518,3422.6651394080927
530.2581327,2989.2104084734465
535.076155,2842.5248665404115
539.8868309,3098.9116799850162
544.6901726,2894.573155222505
549.4861922,2242.2733181221784
554.2749019,1796.9462164923589
559.0563139,1215.5339992864465
563.8304402,996.9397020226706
568.597293,1227.8554301330414
573.3568844,1036.2191028977268
578.1092263,744.6396677527628
582.8543308,770.8538237722996
587.5922101,625.6699372750418
592.322876,314.3441711409969
597.0463405,362.8003508023976
601.7626157,424.46942065873736
606.4717135,219.7021864512153
611.1736458,34.70181304928974
615.8684246,29.110901993373773
620.5560617,207.3632078997207
625.2365691,499.87626326411555
629.9099585,1029.8266644355817
634.5762419,1490.1343771349812
639.2354312,1633.186218297179
643.887538,1385.867940249077
648.5325743,706.0427058370669
653.1705518,384.68869695517697
657.8014823,264.134150012429
662.4253775,-51.31413451377739
667.0422493,40.69584268813014
671.6521092,221.02083704487268
676.2549691,76.60793999989801
680.8508407,-10.05878075243345
685.4397355,132.96795332153488
690.0216654,239.92051982910198
694.5966419,578.9481259335134
699.1646767,1255.1871283677265
703.7257814,1500.865870386825
708.2799676,1619.3498616066618
712.827247,2082.3981364829306
717.367631,2176.4104558028203
721.9011314,1485.8276030190818
726.4277595,677.8273323333906
730.9475271,319.85036231548884
735.4604456,234.00113814446786
739.9665264,288.618310754729
744.4657813,352.14088074464416
748.9582215,194.51405399590794
753.4438587,-42.0701358679853
757.9227042,4.84852623655388
762.3947696,32.64946003833302
766.8600662,70.58479972404848
771.3186056,377.27294572427945
775.770399,378.35078408372374
780.215458,255.4970284370961
784.6537939,237.46485610086074
789.0854181,311.47976852577835
793.510342,816.0236440532171
797.9285769,1380.004642140524
802.3401342,1824.1343016095334
806.7450253,2168.099471091741
811.1432614,2246.594622980462
815.5348538,2175.364107025829
819.9198139,1824.3401857474353
824.2981531,1476.327317750792
828.6698824,1211.8603239556805
833.0350133,648.5738030576548
837.393557,440.50204538729247
841.7455248,462.02990352976167
846.0909278,171.29438811674174
850.4297774,147.995819501675
854.7620848,187.14520422503278
859.0878611,-14.103523799642915
863.4071176,-78.858534323671
867.7198655,43.14397797124673
872.026116,260.5007123225615
876.3258802,260.37462621377915
880.6191693,63.901981596423724
884.9059946,193.3556524504981
889.186367,311.02517977254826
893.4602979,42.53643969822872
897.7277982,-9.758966129881973
901.9888793,333.6049294967613
906.2435521,790.9911708884315
910.4918277,946.7164016430072
914.7337174,898.4980462659366
918.9692321,1406.226334383949
923.1983831,1727.9710542432026
927.4211813,1638.490260659547
931.6376378,1762.8488977199354
935.8477637,1698.1568953259468
940.0515701,1912.376732009547
944.249068,2133.6087896525796
948.4402684,1992.2155829014685
952.6251825,2136.216297334639
956.8038212,2191.926464185395
960.9761955,2322.882531799852
965.1423166,2408.469704012459
969.3021953,2111.6930954385634
973.4558427,2159.0664506063213
977.6032699,2125.223588531572
981.7444877,1870.1570206520178
985.8795072,1849.658727170782
990.0083394,1681.541466530531
994.1309953,1988.3943636291774
998.2474857,2809.0812760939616
1002.357822,4126.462379651801
1006.462014,5852.849545409459
1010.560075,5227.988327189576
1014.652013,2758.603460884604
1018.737841,1309.0125752189228
1022.81757,486.347292743971
1026.891209,95.70095764081009
1030.958771,163.45353636046576
1035.020266,9.807404045232431
1039.075705,-73.08500623439119
1043.1251,27.633366356429235
1047.16846,354.7324190536591
1051.205797,1011.6641467073575
1055.237121,2279.090711199311
1059.262444,5224.323478260442
1063.281777,10609.23497862491
1067.295131,19467.317765314157
1071.302515,29969.89383333532
1075.303942,36559.365143189985
1079.299422,35851.048895206375
1083.288966,27320.01921975258
1087.272585,15520.241145357313
1091.250289,7232.854980157157
1095.222091,2874.3721305623276
1099.187999,745.3124371329675
1103.148026,218.84956818301316
1107.102183,18.130081915790015
1111.050479,31.928618750755277
1114.992927,461.69124056239934
1118.929536,1529.2130250079088
1122.860318,3628.0030138292213
1126.785283,7083.324756551101
1130.704443,13466.825793213911
1134.617808,23009.15397460305
1138.52539,32733.797656771134
1142.427198,37866.39927446208
1146.323244,33990.38311579486
1150.213538,23648.88468607219
1154.098093,14468.260070083983
1157.976917,9660.007775151533
1161.850023,8438.690627935743
1165.717421,8955.084085586339
1169.579121,9654.449613594807
1173.435135,9605.141454829722
1177.285474,8800.08635091626
1181.130148,8605.002928766631
1184.969169,8583.587288498788
1188.802547,8155.914871935706
1192.630292,7058.877384467161
1196.452416,4632.39785416189
1200.26893,2226.3788646803396
1204.079844,882.4829713775205
1207.88517,480.68463594063576
1211.684917,407.38419266137555
1215.479098,668.2927287877541
1219.267722,941.8747835732992
1223.050801,450.3863487907006
1226.828346,500.28718817147524
1230.600366,655.3466912245924
1234.366874,293.1937648616936
1238.12788,294.8226097185239
1241.883395,219.78887099478857
1245.633429,289.6222592773254
1249.377994,321.3323820504937
1253.1171,39.37446674826356
1256.850759,-4.6325526063282325
1260.578981,27.60313410686254
1264.301776,51.5601958612157
1268.019157,10.943766693442868
1271.731133,-78.84510372784983
1275.437715,-83.38318163855652
1279.138915,87.07457658547644
1282.834743,378.687977767641
1286.52521,335.18577784907154
1290.210328,380.697630865497
1293.890106,1249.3502874904773
1297.564555,2276.6810634139038
1301.233688,2795.671169969873
1304.897514,2831.743916100943
1308.556044,2603.100453548598
1312.209289,2114.097456993232
1315.857261,1414.1845842633402
1319.499969,1406.753625286924
1323.137425,1484.934456757523
1326.769641,1284.5916388081657
1330.396626,1574.4278548919474
1334.018391,1414.9165201421324
1337.634948,1247.551347149854
1341.246307,1534.6685046932048
1344.85248,1565.1454582961367
1348.453477,1775.4863833431068
1352.049309,1882.315299294477
1355.639987,1993.2400224918474
1359.225522,2241.569117990489
1362.805925,2106.757840020714
1366.381207,2218.3004611049882
1369.951379,2506.8651760579687
1373.516452,2834.1768620078774
1377.076436,3763.9828205007075
1380.631343,5214.230370699564
1384.181184,7801.62551776894
1387.725969,11690.041156419515
1391.26571,14339.579992446636
1394.800417,12933.437349162745
1398.330102,8373.983960727373
1401.854776,4005.947398688891
1405.374448,1427.800227695494
1408.889132,319.3642979302581
1412.398837,15.59526431857239
1415.903574,649.1076151754246
1419.403355,2451.384732195582
1422.89819,5177.500504440204
1426.388091,9474.532163919284
1429.873069,15022.027664959576
1433.353134,20043.249855823677
1436.828298,23316.96066214241
1440.298571,23404.538497763035
1443.763965,20116.233421423985
1447.224491,15120.501736378137
1450.68016,9964.729982345536
1454.130983,5937.7414918470095
1457.576971,3367.3617500320424
1461.018135,2086.90198947925
1464.454486,1717.6188164394307
1467.886036,1852.1058385477395
1471.312794,2821.6591871607816
1474.734774,3714.90706950494
1478.151985,3104.7156446761637
1481.564439,1746.0743012260996
1484.972146,867.8717687689682
1488.375119,622.050372968205
1491.773368,747.958049310947
1495.166904,507.84015538592257
1498.555739,30.536491635431503
1501.939883,2.5348252115604737
1505.319349,-11.465610989672314
1508.694146,-1.0473283030901257
1512.064286,297.68765861480006
1515.429781,358.95419675316
1518.790642,490.2748601539188
1522.146879,921.480190235608
1525.498505,897.9653515970881
1528.845529,1147.7733465323781
1532.187965,1971.4840401651531
1535.525822,2588.102899028292
1538.859112,3632.7820042465364
1542.187846,4740.0807276210235
1545.512036,5635.484621342315
1548.831693,7057.265395124704
1552.146829,8219.277307837388
1555.457453,8777.384300186557
1558.763579,9506.50144061021
1562.065216,10545.432381020464
1565.362377,11452.77838066392
1568.655073,12236.13610064185
1571.943315,13092.302424155798
1575.227114,13954.339672236414
1578.506482,14765.02497706903
1581.781431,14763.92183571657
1585.051971,13889.742247569164
1588.318114,13141.907024009688
1591.579872,12006.200502372983
1594.837255,10016.046881369213
1598.090275,7791.386590150164
1601.338945,5779.042668250453
1604.583274,4391.31260262216
1607.823275,3228.455263882031
1611.058959,2463.787168671636
1614.290338,2304.932816749351
1617.517422,1876.1418291300465
1620.740224,1639.092081820796
1623.958755,1524.3321232434314
1627.173027,942.945308721068
1630.38305,779.5141530577523
1633.588838,828.8494247116594
1636.7904,581.3729291754076
1639.987749,595.5960996751508
1643.180896,493.7955374988147
1646.369853,236.75907765627602
1649.554632,367.5645220213014
1652.735244,249.3577876088936
1655.9117,-24.67588784427062
1659.084013,148.95352838767235
1662.252193,206.97902147793752
1665.416254,-14.99446541546638
1668.576205,36.88971864510131
1671.732059,274.69204163872246
1674.883828,177.1481060229037
1678.031523,-26.331991313182634
1681.175157,86.76018785733078
1684.314739,109.02139922848514
1687.450284,-5.281683069174527
1690.581801,78.27115323038089
1693.709304,40.36061642285465
1696.832803,-34.302773841330264
1699.952311,116.94693999184443
1703.067839,178.19986613553345
1706.179399,204.73663212542567
1709.287003,235.7194815289192
1712.390663,181.83592561723407
1715.49039,244.72765329832242
1718.586197,292.7848812699725
1721.678095,227.52195837131018
1724.766096,117.70357137808239
1727.850213,-12.862885472944
1730.930456,5.059970471806153
1734.006838,75.39128201949397
1737.079372,26.660126780705028
1740.148067,134.5429096259084
1743.212938,317.25457799488277
1746.273996,181.41549049209777
1749.331252,75.35646163615058
1752.384718,138.1691228068751
1755.434408,100.62112378597458
1758.480332,153.56790341445372
1761.522503,227.80794613660936
1764.560933,37.120707502128866
1767.595634,-50.52014329796164
1770.626618,206.74990637139402
1773.653896,232.02664591581012
1776.677482,14.744904385866903
1779.697388,128.59116094094634
1782.713625,324.0614345399849
1785.726205,341.31363731334056
1788.735141,341.5491905999469
1791.740445,162.668374151982
1794.742129,119.40809998996596
1797.740206,396.416832612686
1800.734687,390.86182724131896
1803.725585,294.1089039681924
1806.712912,301.93864890125406
1809.69668,189.86649165214664
1812.676902,88.32361689005984
1815.65359,-30.54170419060255
1818.626756,-45.322769370261405
1821.596413,17.015501995614926
1824.562573,35.13912231818031
1827.525247,86.8292437413256
1830.48445,58.647951677718495
1833.440192,0.543319289638724
1836.392487,-2.628620034678331
1839.341347,30.51316573144404
1842.286784,8.219890218839346
1845.22881,-7.282949161597646
1848.167439,136.81724241453975
1851.102682,161.72721055711696
1854.034553,13.614149325483591
1856.963063,32.76255116166647
1859.888226,214.2636682570964
1862.810053,237.5426907360954
1865.728557,129.02484957260702
1868.643751,97.06206637565795
1871.555648,-61.28814466359247
1874.46426,-62.225258860480054
1877.369599,186.1527624176465
1880.271679,89.56433526508846
1883.170512,35.489870985575976
1886.06611,171.67933397040358
1888.958487,89.3852012445921
1891.847655,3.6182780349141606
1894.733626,34.345825189234304
1897.616414,34.633723158133904
1900.496032,-16.776182141220527
1903.372491,94.80894665887918
1906.245805,193.37029237182347
1909.115987,145.14598114157985
1911.983049,130.53143157356868
1914.847004,139.09197211333597
1917.707866,269.01704111164645
1920.565646,190.78289244675872
1923.420359,-57.435736500736006
1926.272016,-30.473815711401464
1929.120631,-12.317254290602051
1931.966216,29.311946288773363
1934.808786,76.49855618141274
1937.648351,12.01720450418069
1940.484927,30.21641022759622
1943.318525,7.108664685838654
1946.149158,283.8457597047397
1948.97684,525.2501368426324
1951.801584,210.18826809618184
1954.623403,100.41263912679612
1957.44231,103.38443909301871
1960.258318,10.98756419493284
1963.071439,7.211147464184304
1965.881688,24.764064487044863
1968.689078,144.59894684304987
1971.493621,-46.673788896439476
