Raman shift cm-1,4ATP_10uM_rep2_acc2_processed_intensity
-93.47115107,546.01084224945
-87.69374369,69.63239504912083
-81.9253076,-75.73752876875893
-76.16582701,38.795561108851224
-70.41528615,123.31342315227657
-64.67366933,-21.135704151667206
-58.94096086,-95.2614365787794
-53.21714512,14.660522101648244
-47.50220652,14.041908885495939
-41.79612954,48.860847512386286
-36.09889866,208.9570631277233
-30.41049843,226.61609328971326
-24.73091343,153.52988714719743
-19.0601283,124.94449304733806
-13.39812769,21.625994312723442
-7.744896327,-71.07413772011883
-2.100418946,23.252262990687967
3.535319659,93.5652990301991
9.162334658,60.244704863365214
14.78064118,37.40067977284431
20.39025432,-43.82413860740215
25.99118913,3.346740890641243
31.58346061,225.95532291346854
37.16708375,237.34512281842578
42.74207347,52.197358741478574
48.30844468,-20.760050572880267
53.86621222,9.531593470907358
59.41539093,-46.08908706991707
64.95599558,-40.369967924876704
70.48804091,164.8131799178873
76.01154164,142.45625947771464
81.52651243,-22.64429461494879
87.03296792,147.9768541028747
92.5309227,213.631001434858
98.02039134,5.678670498360567
103.5013884,46.87130433985065
108.9739282,112.26320080830952
114.4380255,20.75857710782493
119.8936944,230.22481860080106
125.3409495,413.52087806113326
130.779805,115.35070603760352
136.2102753,-53.60074093587764
141.6323747,132.15254359487733
147.0461174,169.85347382250293
152.4515176,25.387447247818674
157.8485895,-80.42670553002617
163.2373472,-54.426116937379845
168.6178049,56.10708127553283
173.9899766,72.86966317162106
179.3538764,-4.330414365234937
184.7095182,-21.740685231996068
190.0569161,67.6776660404003
195.396084,120.97679273788802
200.7270358,59.65890820700714
206.0497854,-10.009352300552642
211.3643466,1.314484623690987
216.6707333,32.15512345446555
221.9689593,-51.387470668779194
227.2590382,-88.8688737655986
232.5409839,12.01633305652457
237.8148101,17.022778011046135
243.0805303,-24.799057274658544
248.3381582,-6.183206535357776
253.5877075,15.122864231975417
258.8291917,30.441268603635585
264.0626244,39.522785366533384
269.288019,175.56620755546228
274.5053891,250.0884191833388
279.7147481,-0.7306564607970643
284.9161094,-131.74265544962878
290.1094865,53.38331199348731
295.2948927,573.25676425427
300.4723414,1860.6994879892582
305.6418459,3572.9521263261563
310.8034194,5007.176901685874
315.9570752,6018.197154806043
321.1028267,6497.672589958181
326.2406869,6632.27146130429
331.370669,6828.414716677435
336.4927863,6958.855002671732
341.6070517,6933.015042093066
346.7134786,7113.602159282025
351.8120798,7286.683804935082
356.9028684,7091.845273152099
361.9858576,6940.239133478315
367.0610602,6884.271266709591
372.1284892,6847.276925578439
377.1881577,7126.4741996034945
382.2400784,7835.926847661936
387.2842644,9214.779032729732
392.3207284,10475.0008672957
397.3494833,10445.707239774114
402.370542,9679.075222957103
407.3839172,8714.624736248761
412.3896217,7567.715582875616
417.3876683,6623.156140978508
422.3780697,5898.510962939037
427.3608386,5367.391020670466
432.3359876,5088.565198579508
437.3035295,4924.879892558194
442.2634769,4611.1880851125325
447.2158423,4052.232088691804
452.1606383,3712.0104321890844
457.0978776,3667.5739818977445
462.0275727,3670.643055157542
466.9497361,3635.7912409984347
471.8643802,3346.4036626430134
476.7715176,3289.246665229273
481.6711608,3828.8023208906293
486.5633221,4189.235162427736
491.448014,3979.2704483571197
496.3252488,3482.9025495874635
501.195039,2953.5875613334015
506.0573969,2504.864727864033
510.9123349,1994.79536133156
515.7598651,1572.52233475217
520.6,1532.850023012335
525.4327518,1540.6441122126303
530.2581327,1273.8434679889947
535.076155,1139.5830081600202
539.8868309,1333.0970551906935
544.6901726,1277.2751250697752
549.4861922,972.1895161685666
554.2749019,698.6659209742757
559.0563139,192.03525744763874
563.8304402,29.07843866218127
568.597293,433.18707285778964
573.3568844,332.928557878035
578.1092263,-20.19673371534509
582.8543308,97.86481912768068
587.5922101,111.89759158773222
592.322876,-14.221496382423538
597.0463405,58.67127508531257
601.7626157,2.408697074796237
606.4717135,-79.39396576706213
611.1736458,29.960139341243575
615.8684246,64.28696505061953
620.5560617,-1.8988729718093964
625.2365691,95.44779237332477
629.9099585,334.3883693291277
634.5762419,425.9032174130484
639.2354312,555.3471245207934
643.887538,772.8034171309346
648.5325743,594.2821783372965
653.1705518,193.11831535289093
657.8014823,-29.314540028517968
662.4253775,-67.42727154902013
667.0422493,-16.525208328720964
671.6521092,2.428444255246177
676.2549691,52.527076364478944
680.8508407,97.28992676044118
685.4397355,54.11379987458167
690.0216654,-22.41110713478838
694.5966419,-28.86738461786399
699.1646767,232.38435977145036
703.7257814,592.1561854377296
708.2799676,917.2137020784876
712.827247,1399.3462030680985
717.367631,1554.941326963622
721.9011314,1037.0530337015366
726.4277595,550.4730089360482
730.9475271,390.6402380462846
735.4604456,341.4379531630093
739.9665264,429.70252017022676
744.4657813,462.5733312195191
748.9582215,296.7889126801315
753.4438587,136.55354491609728
757.9227042,40.24323139641069
762.3947696,-72.20484621040987
766.8600662,36.06683263482046
771.3186056,325.2570828594394
775.770399,298.6509815183624
780.215458,137.60948744144957
784.6537939,55.11142327715288
789.0854181,-35.15186575533244
793.510342,204.6959195661516
797.9285769,578.7331078431496
802.3401342,632.5482665410791
806.7450253,629.2388017007112
811.1432614,700.9815315955416
815.5348538,656.6753870081977
819.9198139,592.4155625427642
824.2981531,583.8726602236947
828.6698824,466.5826800623561
833.0350133,286.67550571210074
837.393557,208.46773969124132
841.7455248,167.66187530947997
846.0909278,50.50123988384274
850.4297774,-64.74956666523488
854.7620848,-10.556579653536772
859.0878611,49.577296577810614
863.4071176,-43.27854278875016
867.7198655,66.3489943254774
872.026116,356.25684999017227
876.3258802,315.8833659000528
880.6191693,193.5295814676375
884.9059946,376.07145002848114
889.186367,335.67931144453485
893.4602979,-68.17945960287825
897.7277982,-212.3795339473425
901.9888793,-14.426596777988422
906.2435521,150.6359412443311
910.4918277,72.25220398939172
914.7337174,52.134032577975745
918.9692321,331.7567422404412
923.1983831,383.436895871115
927.4211813,194.06676041606937
931.6376378,133.34698414117122
935.8477637,39.09649719433986
940.0515701,60.86013422025201
944.249068,211.55134489937723
948.4402684,135.8451136331446
952.6251825,12.214495675718354
956.8038212,155.0710944641794
960.9761955,282.94507973451834
965.1423166,112.52712830443261
969.3021953,50.975566626181035
973.4558427,132.4810071814361
977.6032699,9.226059320700813
981.7444877,-44.096735577892844
985.8795072,24.14085686893344
990.0083394,38.31314065225189
994.1309953,122.53497794679157
998.2474857,258.26189957258504
1002.357822,706.3855734884971
1006.462014,1430.0800936977307
1010.560075,1524.7540320028081
1014.652013,937.552031292327
1018.737841,431.67663007144455
1022.81757,131.7221614717725
1026.891209,-82.95799334412433
1030.958771,-52.11742999373283
1035.020266,178.77783281569444
1039.075705,310.90212710325136
1043.1251,488.97670320602185
1047.16846,849.5205768437858
1051.205797,1103.88527075435
1055.237121,1579.6224700182756
1059.262444,2845.339621824776
1063.281777,5329.869317534902
1067.295131,9354.878441693258
1071.302515,13437.38718864412
1075.303942,15417.426438364497
1079.299422,14609.156916534283
1083.288966,11163.338239454612
1087.272585,6642.798442132131
1091.250289,3298.8266787201746
1095.222091,1501.8941635261058
1099.187999,570.1189124313155
1103.148026,192.79686138451592
1107.102183,60.817140127745574
1111.050479,-7.093466004889706
1114.992927,119.6581373578046
1118.929536,579.5711931845632
1122.860318,1492.5485757007136
1126.785283,3207.1187558648085
1130.704443,6402.694252142532
1134.617808,11332.210277630931
1138.52539,16599.22788510029
1142.427198,19084.672417865164
1146.323244,16736.50745426073
1150.213538,11540.700901802
1154.098093,6806.372435471207
1157.976917,3724.360566404328
1161.850023,2471.540302402481
1165.717421,2394.6636606571938
1169.579121,2403.1005500874253
1173.435135,2439.31683274024
1177.285474,2544.260873023043
1181.130148,2708.677791378781
1184.969169,3192.0325917323116
1188.802547,3641.403805411172
1192.630292,3410.538569671138
1196.452416,2504.6289874782783
1200.26893,1401.1525644695657
1204.079844,527.1463021878144
1207.88517,58.55551601099012
1211.684917,-125.36031295418262
1215.479098,67.5982655695505
1219.267722,314.01466974096274
1223.050801,39.564807009599235
1226.828346,-109.49933719020852
1230.600366,72.2174598327704
1234.366874,47.862469923110964
1238.12788,28.659898085766997
1241.883395,137.94494348968615
1245.633429,295.63586780153935
1249.377994,341.4925556615793
1253.1171,223.18814324930747
1256.850759,241.26456692916082
1260.578981,246.7115216156278
1264.301776,106.27152968510383
1268.019157,-14.846791107991976
1271.731133,-120.09478186424641
1275.437715,-28.62976660223446
1279.138915,282.70336398450763
1282.834743,383.314917764717
1286.52521,205.02053579037107
1290.210328,147.98122422041197
1293.890106,355.90194003863974
1297.564555,602.6317647363901
1301.233688,821.6293213264778
1304.897514,1105.5141337591017
1308.556044,1151.597229968647
1312.209289,713.1836458400288
1315.857261,277.95877650923273
1319.499969,207.11612788964442
1323.137425,232.7483625773309
1326.769641,177.45747474370285
1330.396626,72.13727348665384
1334.018391,47.74504560560047
1337.634948,70.5270722861494
1341.246307,-67.7914620454394
1344.85248,-54.26053598347198
1348.453477,136.46889688153738
1352.049309,112.99765412256511
1355.639987,263.1484090658603
1359.225522,636.0374841477687
1362.805925,752.1514052973262
1366.381207,847.8360427699085
1369.951379,1041.3752389804147
1373.516452,1280.7718212433883
1377.076436,1808.1354894582485
1380.631343,2645.9355940783344
1384.181184,4195.867490090928
1387.725969,6489.335452162147
1391.26571,7882.547104113317
1394.800417,7182.0674007365615
1398.330102,5123.588840605874
1401.854776,2873.2650792447657
1405.374448,1175.0396038360477
1408.889132,256.3984183239327
1412.398837,34.98793755104839
1415.903574,593.5641945676302
1419.403355,1657.2440233956852
1422.89819,3175.2446499023126
1426.388091,5791.368795308989
1429.873069,8899.717430489727
1433.353134,11008.188461170383
1436.828298,11700.565517632462
1440.298571,10973.312652843075
1443.763965,8921.561177234666
1447.224491,6479.290648247623
1450.68016,4402.172488140539
1454.130983,2685.1130774963103
1457.576971,1598.3498576746738
1461.018135,1171.1174866762176
1464.454486,890.5716081280734
1467.886036,899.211137365598
1471.312794,1293.3374754245554
1474.734774,1531.8182255957965
1478.151985,1369.9976450188612
1481.564439,865.2551419951922
1484.972146,258.3931833576514
1488.375119,16.94283155494486
1491.773368,148.16315788466477
1495.166904,132.84556651588082
1498.555739,-52.39510415858808
1501.939883,-75.53773691286142
1505.319349,-44.362591470888674
1508.694146,53.41877297198107
1512.064286,260.4214840122695
1515.429781,267.05426347002367
1518.790642,274.77584373242985
1522.146879,315.73333935271376
1525.498505,12.7740646189593
1528.845529,55.713637149352735
1532.187965,538.082454787572
1535.525822,606.9490679365617
1538.859112,713.712295927865
1542.187846,961.7670946227681
1545.512036,1027.8716796684027
1548.831693,1462.390034487633
1552.146829,1807.961847600386
1555.457453,1699.4869233060851
1558.763579,2010.2525908076914
1562.065216,2722.7707566752224
1565.362377,3405.085402360978
1568.655073,4255.028440984533
1571.943315,4999.474517791543
1575.227114,5401.287739214483
1578.506482,5819.842464403125
1581.781431,5795.287665646975
1585.051971,5031.065707708046
1588.318114,4334.080593859924
1591.579872,3684.639280552202
1594.837255,2707.339371801285
1598.090275,1767.0282734327575
1601.338945,1117.2971407705838
1604.583274,689.2315928625974
1607.823275,299.4966117566453
1611.058959,71.42455284597418
1614.290338,41.45980061020123
1617.517422,-38.14112245765227
1620.740224,74.77010533851478
1623.958755,184.4846763367675
1627.173027,-56.139485409483655
1630.38305,-99.18939147988465
1633.588838,15.978606508500775
1636.7904,13.503167539985384
1639.987749,135.81129455599591
1643.180896,107.6034962756724
1646.369853,31.89266531033246
1649.554632,209.3504146750475
1652.735244,107.32452500370044
1655.9117,-125.20327066640014
1659.084013,40.44383286214966
1662.252193,125.86080739946752
1665.416254,-49.16019895801301
1668.576205,68.5275348479734
1671.732059,287.47992494978587
1674.883828,131.4104947235753
1678.031523,-8.057633204016327
1681.175157,44.985270344470585
1684.314739,-22.635813575418773
1687.450284,-18.128231104038306
1690.581801,43.731257050997456
1693.709304,-70.91750370624386
1696.832803,-58.205451904115826
1699.952311,38.224167430121554
1703.067839,26.869247848152884
1706.179399,128.31867118261474
1709.287003,131.84606061487077
1712.390663,-9.392312707507497
1715.49039,64.18201115621238
1718.586197,129.47144830448613
1721.678095,60.33930732988473
1724.766096,25.543095436213427
1727.850213,-23.86065743557652
1730.930456,-22.406959002846072
1734.006838,-26.38086238389908
1737.079372,-28.833308061939427
1740.148067,200.00358551183632
1743.212938,388.0919993466611
1746.273996,303.16084425133806
1749.331252,239.09522007150997
1752.384718,268.6645583109478
1755.434408,256.4680890952495
1758.480332,228.2861909698943
1761.522503,168.40720409262568
1764.560933,9.571700498922453
1767.595634,-33.55306199832353
1770.626618,174.61102707202772
1773.653896,202.0321113055269
1776.677482,-30.89949790253938
1779.697388,-21.43083266405696
1782.713625,169.6419436470444
1785.726205,193.07946044403445
1788.735141,120.17102731833991
1791.740445,55.381154322848715
1794.742129,52.446641064371974
1797.740206,193.27614972245803
1800.734687,283.35598137397545
1803.725585,143.93661736213414
1806.712912,48.786472330449485
1809.69668,101.34134513126361
1812.676902,0.933808190269346
1815.65359,-114.31935970576208
1818.626756,4.4448750771422
1821.596413,52.815683948616694
1824.562573,-44.652214205106446
1827.525247,-15.838513160321021
1830.48445,52.8585777934908
1833.440192,-27.839673383242776
1836.392487,-74.50898949898334
1839.341347,53.431997181107604
1842.286784,69.05550201624047
1845.22881,21.26124402957407
1848.167439,195.69091112361585
1851.102682,201.44136604136327
1854.034553,-61.53737398219777
1856.963063,8.708451663885855
1859.888226,284.0031594533866
1862.810053,199.62660081038965
1865.728557,50.431271027285234
1868.643751,113.53633332423442
1871.555648,-11.546001140249665
1874.46426,-109.57814376670161
1877.369599,96.57476682555536
1880.271679,66.38939973343548
1883.170512,-40.089356933715436
1886.06611,140.46581323734628
1888.958487,136.4919407717063
1891.847655,16.252246925262526
1894.733626,49.96127973010634
1897.616414,-28.737500189727083
1900.496032,-71.6026817489251
1903.372491,30.17280719543694
1906.245805,52.81493044620222
1909.115987,110.71759138097084
1911.983049,112.41336484001906
1914.847004,-4.706863477388964
1917.707866,19.978997505859304
1920.565646,30.597681952890085
1923.420359,-32.756175877236686
1926.272016,-17.575973141278926
1929.120631,-4.282754998737396
1931.966216,13.397479354879145
1934.808786,-6.143444421622959
1937.648351,-49.38798453177779
1940.484927,-4.8196108909649915
1943.318525,56.48802819622835
1946.149158,239.6219831915623
1948.97684,425.74476997260336
1951.801584,278.56800713145765
1954.623403,139.8716174747809
1957.44231,175.0203084493082
1960.258318,44.820602692712995
1963.071439,-86.72514423973284
1965.881688,22.399991271774333
1968.689078,124.65850305905026
1971.493621,9.639936237318796
