Raman shift cm-1,4ATP_1uM_rep3_acc3_processed_intensity
-93.47115107,513.6275040460458
-87.69374369,88.4399640867645
-81.9253076,-115.20551353980503
-76.16582701,48.65816360573481
-70.41528615,97.328162326267
-64.67366933,-171.4310851061636
-58.94096086,2.058092567606872
-53.21714512,14.16878703485006
-47.50220652,-39.9385383378961
-41.79612954,130.28413365939358
-36.09889866,181.48158254439795
-30.41049843,186.30085115240857
-24.73091343,37.71176289238841
-19.0601283,-1.6217921131141964
-13.39812769,79.65752550344942
-7.744896327,24.66823310856057
-2.100418946,-13.875988124901752
3.535319659,33.643343269818274
9.162334658,-1.4793000305008945
14.78064118,-38.52502264067398
20.39025432,-73.64612152003286
25.99118913,-9.878672998432261
31.58346061,178.51324419800048
37.16708375,100.3388144970101
42.74207347,-25.32147837614965
48.30844468,72.75308688487196
53.86621222,-17.624833702955517
59.41539093,-71.60361348217073
64.95599558,-75.76128493060168
70.48804091,46.71873574930224
76.01154164,199.92571138005965
81.52651243,-76.35772333615482
87.03296792,141.92969078902928
92.5309227,291.23784538268706
98.02039134,-5.6539278338240075
103.5013884,23.646861096696295
108.9739282,71.80098973389754
114.4380255,90.35571969850449
119.8936944,243.43997471029417
125.3409495,388.3469738842422
130.779805,171.8048709948459
136.2102753,-92.52031944903717
141.6323747,9.271518204973328
147.0461174,182.22017486513016
152.4515176,20.197114975480837
157.8485895,-94.50733276389336
163.2373472,-34.48010071696308
168.6178049,1.2076774006040445
173.9899766,142.4084698221719
179.3538764,20.166266779008687
184.7095182,21.904877681078943
190.0569161,219.74397612415618
195.396084,84.2297583849123
200.7270358,79.41869849855385
206.0497854,36.68597120335833
211.3643466,-86.69633435339207
216.6707333,26.119343723926264
221.9689593,-0.798982473007614
227.2590382,5.995994771742172
232.5409839,-61.54050662209424
237.8148101,-74.69826818295837
243.0805303,36.865886254031864
248.3381582,-5.652962251897485
253.5877075,47.50312188877244
258.8291917,37.07597650546802
264.0626244,44.77229028659484
269.288019,74.82018847898188
274.5053891,36.115274997171234
279.7147481,-141.94278399253244
284.9161094,-188.0135981964824
290.1094865,70.81175882324042
295.2948927,809.4384986277062
300.4723414,2794.2675265281364
305.6418459,5329.556281100157
310.8034194,7667.316490288001
315.9570752,9192.168521472422
321.1028267,9423.273124174231
326.2406869,9423.238558330286
331.370669,9582.71256322649
336.4927863,9805.903885976659
341.6070517,9958.920998501158
346.7134786,9971.817656343002
351.8120798,10043.571515359392
356.9028684,9776.08248900526
361.9858576,9798.555916566378
367.0610602,9841.644845365503
372.1284892,9288.11852941113
377.1881577,9190.232162502023
382.2400784,9573.682366608593
387.2842644,10403.69346765304
392.3207284,10966.626259005345
397.3494833,10491.392591795002
402.370542,9770.525352889854
407.3839172,8886.01120404126
412.3896217,7885.728179596265
417.3876683,7332.587515585296
422.3780697,6856.57101281567
427.3608386,6453.470468459372
432.3359876,6142.069843930526
437.3035295,5771.437132102987
442.2634769,5502.497120328413
447.2158423,4884.272216510046
452.1606383,4706.175046014093
457.0978776,4407.506676949859
462.0275727,3893.473946225762
466.9497361,3974.9196877787335
471.8643802,3672.857951218585
476.7715176,3635.463791176144
481.6711608,3788.5235956023407
486.5633221,3677.7416339763367
491.448014,3409.5957693501623
496.3252488,2976.020670734498
501.195039,2794.5209022589943
506.0573969,2603.920810977982
510.9123349,2083.13259293373
515.7598651,1766.021081324806
520.6,1726.8730864673853
525.4327518,1439.7429065295464
530.2581327,1274.389963211911
535.076155,1130.0306983602777
539.8868309,1158.9360103072122
544.6901726,960.9134362064615
549.4861922,665.3035213063567
554.2749019,700.6602860129678
559.0563139,97.7812319609302
563.8304402,38.311420319996614
568.597293,449.48109544622366
573.3568844,216.3290429634044
578.1092263,-53.750710492724465
582.8543308,0.0018944567254948197
587.5922101,212.78026967618007
592.322876,47.20025233174783
597.0463405,158.7021368224241
601.7626157,208.47255054006928
606.4717135,-139.39200994292332
611.1736458,-43.519410727140894
615.8684246,54.15710199514706
620.5560617,156.46346936496593
625.2365691,41.09530736810029
629.9099585,55.93753828832632
634.5762419,166.18305109744233
639.2354312,14.131148740010758
643.887538,182.5622072098722
648.5325743,73.39002924931356
653.1705518,23.869687607143533
657.8014823,-66.99126954127132
662.4253775,-157.85302325587418
667.0422493,48.407849046016054
671.6521092,29.866738638927927
676.2549691,119.78586624312447
680.8508407,-8.676900973609008
685.4397355,-58.35360506215693
690.0216654,-78.3590645295144
694.5966419,-0.7354643516055148
699.1646767,259.8008878088249
703.7257814,210.88271243560575
708.2799676,423.97834313879866
712.827247,490.05950805022894
717.367631,446.80442153704007
721.9011314,189.64094278580524
726.4277595,-14.162347833284912
730.9475271,59.4117121806421
735.4604456,88.41474677918177
739.9665264,247.17986872294068
744.4657813,89.94397401050992
748.9582215,99.39349975325467
753.4438587,-97.85763610585218
757.9227042,-15.288003567203305
762.3947696,92.73838376728418
766.8600662,-64.74082154468306
771.3186056,387.00462153127546
775.770399,222.39138509797795
780.215458,6.694467324578454
784.6537939,-43.86181436750849
789.0854181,-143.8573237710375
793.510342,146.5146665548059
797.9285769,281.5671524125937
802.3401342,236.58085084815093
806.7450253,233.5042875579511
811.1432614,132.2094744487647
815.5348538,31.302403630788604
819.9198139,50.56950925805859
824.2981531,63.57436391703891
828.6698824,81.06554387431129
833.0350133,-88.93630935681949
837.393557,-109.96114356635724
841.7455248,-7.237154638843435
846.0909278,34.9388283809692
850.4297774,19.466098290202808
854.7620848,40.85689846881587
859.0878611,25.460506185658346
863.4071176,-67.7064380586234
867.7198655,176.2487931984346
872.026116,405.1555149456531
876.3258802,514.1818364378697
880.6191693,376.88365518116746
884.9059946,328.18522286102655
889.186367,444.70040605976976
893.4602979,28.869254111153737
897.7277982,-121.6304618226475
901.9888793,211.4528166119798
906.2435521,305.2189112825058
910.4918277,236.1981792458594
914.7337174,-100.78024098078401
918.9692321,59.31978689670598
923.1983831,285.6751386609807
927.4211813,67.58098628914041
931.6376378,216.50545767044144
935.8477637,79.12546237802161
940.0515701,284.4309986902778
944.249068,156.1641011725747
948.4402684,-205.76542945423662
952.6251825,66.48304609203404
956.8038212,92.94895658938594
960.9761955,237.54518835423693
965.1423166,152.3648237436347
969.3021953,97.68955674576068
973.4558427,43.50105717463657
977.6032699,-103.21156246938986
981.7444877,43.20233679991986
985.8795072,215.72388406965865
990.0083394,-6.4633226081989505
994.1309953,11.936229119037392
998.2474857,185.04480089097606
1002.357822,-46.12799790648427
1006.462014,329.7568035891344
1010.560075,266.09859007466724
1014.652013,141.05802554010876
1018.737841,269.3553651640963
1022.81757,25.609648319977286
1026.891209,16.942577653382347
1030.958771,-18.01116075830982
1035.020266,44.58640276967541
1039.075705,-85.24161270363258
1043.1251,-67.98729962274037
1047.16846,231.32980440290106
1051.205797,142.96091477116732
1055.237121,39.53150675932688
1059.262444,505.11673024703975
1063.281777,1214.6846800450994
1067.295131,2436.585895992784
1071.302515,3708.881042790448
1075.303942,4073.5631669748386
1079.299422,4179.744232779786
1083.288966,3219.171547596751
1087.272585,1573.468088505661
1091.250289,683.9031387931003
1095.222091,254.44554163032404
1099.187999,-6.092306350159404
1103.148026,-36.63947881551049
1107.102183,39.04254575561201
1111.050479,15.239708069264069
1114.992927,20.02620220522192
1118.929536,7.23812263417301
1122.860318,351.1230276646566
1126.785283,841.5250060142798
1130.704443,1607.0156490642898
1134.617808,2892.205386953692
1138.52539,3503.164222430344
1142.427198,3425.9963828843106
1146.323244,2549.029064004892
1150.213538,1624.7625488380088
1154.098093,1296.2843038230485
1157.976917,580.6474227007234
1161.850023,572.7557094242825
1165.717421,756.2673141572069
1169.579121,651.4110201582545
1173.435135,787.3097247490504
1177.285474,555.1013870894552
1181.130148,853.179417385157
1184.969169,1025.6450363032868
1188.802547,1024.9426993703207
1192.630292,917.961953725972
1196.452416,427.17737454628303
1200.26893,439.63228944114377
1204.079844,-22.14613281150391
1207.88517,-5.107918413541327
1211.684917,23.989953040585675
1215.479098,17.546569344648105
1219.267722,691.4688450414588
1223.050801,-50.67693925896266
1226.828346,-31.190570485258917
1230.600366,372.5749358574103
1234.366874,70.37500250364107
1238.12788,300.67078670865857
1241.883395,172.52113802515706
1245.633429,406.1605812043858
1249.377994,305.87450897822146
1253.1171,6.841408309941844
1256.850759,1.5714706372260103
1260.578981,-115.53388288922858
1264.301776,86.30723603228796
1268.019157,42.79897668959647
1271.731133,-61.975346300789255
1275.437715,-65.31812707199332
1279.138915,33.7991549756389
1282.834743,100.54154766436167
1286.52521,29.53357256258677
1290.210328,-94.94419910052844
1293.890106,142.88876496855968
1297.564555,381.33280637858485
1301.233688,266.02589373885115
1304.897514,484.78481031879426
1308.556044,529.9789599963283
1312.209289,386.06243034015347
1315.857261,-42.80582529284669
1319.499969,32.52008641897069
1323.137425,356.2484341725848
1326.769641,161.71012926049923
1330.396626,353.3761564228415
1334.018391,207.08779145200555
1337.634948,60.05646090829572
1341.246307,15.86600730635871
1344.85248,-89.77340686299962
1348.453477,68.19482756497547
1352.049309,7.873772040879658
1355.639987,205.80691706237923
1359.225522,515.6159072025879
1362.805925,320.5864206168031
1366.381207,320.0696709664283
1369.951379,433.56177694579696
1373.516452,432.49424685316336
1377.076436,809.4550274308333
1380.631343,1033.6347929024432
1384.181184,1468.7143291122757
1387.725969,1966.7653655592942
1391.26571,1848.7877933917446
1394.800417,1344.7960472113348
1398.330102,868.5128393961019
1401.854776,476.5459269174749
1405.374448,-18.457301828999523
1408.889132,-47.64828582121965
1412.398837,-0.12490925031783107
1415.903574,211.29393337345633
1419.403355,823.8920865763548
1422.89819,1268.0267284282954
1426.388091,1727.8555468238112
1429.873069,2204.4223786766333
1433.353134,2134.5921630340963
1436.828298,1702.109771748903
1440.298571,1269.0475931107637
1443.763965,701.0019649719147
1447.224491,255.79106576906221
1450.68016,60.712436323034204
1454.130983,15.011248732590836
1457.576971,-110.60110290153695
1461.018135,-16.17047553078009
1464.454486,81.48628438210127
1467.886036,12.740394171169676
1471.312794,65.36623755328561
1474.734774,62.4035989034764
1478.151985,138.29187552280953
1481.564439,91.77318643528064
1484.972146,-15.555727084425929
1488.375119,-210.60067807437827
1491.773368,-93.60919186385827
1495.166904,237.2940879624379
1498.555739,87.84573490271887
1501.939883,-29.95422176711622
1505.319349,-70.84656748713626
1508.694146,-59.360373131556635
1512.064286,95.81793996633594
1515.429781,33.42937739784256
1518.790642,12.586480722858852
1522.146879,337.2646614108114
1525.498505,100.99488785997482
1528.845529,-203.265813334762
1532.187965,130.64147529553532
1535.525822,78.76816094322504
1538.859112,7.88058118187206
1542.187846,28.900260447317805
1545.512036,23.402888172670202
1548.831693,395.60078249811585
1552.146829,566.0417726708406
1555.457453,329.1073890212173
1558.763579,348.93936802593987
1562.065216,700.4928405670373
1565.362377,975.5197833352141
1568.655073,1213.1274768293506
1571.943315,1324.142515074159
1575.227114,1446.0497045200207
1578.506482,1637.4066946692087
1581.781431,1727.2873689655698
1585.051971,1651.2032406011654
1588.318114,1701.1414064243595
1591.579872,1540.5626710543484
1594.837255,1059.9746142709741
1598.090275,745.9132461318111
1601.338945,506.88896038611904
1604.583274,517.185595528171
1607.823275,203.14967342213725
1611.058959,8.238517497995474
1614.290338,71.9401011957338
1617.517422,-112.41196822814473
1620.740224,-11.060184632702573
1623.958755,137.3116259722039
1627.173027,7.313857083273263
1630.38305,-66.74769603466
1633.588838,87.15848571703606
1636.7904,11.216931126854163
1639.987749,136.31009373444567
1643.180896,199.5197009461792
1646.369853,63.2484947079691
1649.554632,254.0232928648634
1652.735244,73.15101678028361
1655.9117,-164.3845074519369
1659.084013,127.86254379423514
1662.252193,207.8871911158951
1665.416254,-9.323344037795195
1668.576205,54.83303883285866
1671.732059,282.6748491941413
1674.883828,284.5119263570462
1678.031523,-25.309495820471447
1681.175157,-75.17130243840323
1684.314739,-29.533901740420397
1687.450284,28.3077015008219
1690.581801,53.37259111861296
1693.709304,-87.37469752271281
1696.832803,-5.570074089980006
1699.952311,84.16566466716259
1703.067839,25.81844681954523
1706.179399,42.97924599546627
1709.287003,154.38869632352947
1712.390663,-35.34501392020336
1715.49039,-28.487098542450752
1718.586197,76.03162871883158
1721.678095,39.868663034805
1724.766096,10.06700013963927
1727.850213,-87.98454032704106
1730.930456,5.279302205962441
1734.006838,30.734948580786792
1737.079372,-49.826892248460126
1740.148067,-18.47210805610571
1743.212938,302.843349735005
1746.273996,223.84607707644426
1749.331252,-1.47965073490235
1752.384718,169.19416647440508
1755.434408,197.1933365749937
1758.480332,149.04093568007934
1761.522503,83.86636632688945
1764.560933,18.57894191186105
1767.595634,-157.7346911434907
1770.626618,35.63473984074491
1773.653896,290.1476468177474
1776.677482,-8.31905998199153
1779.697388,42.82649884777513
1782.713625,274.07869137298457
1785.726205,222.38288308950217
1788.735141,212.83281958142928
1791.740445,23.74842144670552
1794.742129,-41.041974686366736
1797.740206,238.91098847870788
1800.734687,210.84073810213084
1803.725585,149.69408389073317
1806.712912,74.57489586802863
1809.69668,-9.81997016568171
1812.676902,40.55930572442877
1815.65359,-103.65055895566648
1818.626756,41.84429758722304
1821.596413,26.252693079696414
1824.562573,-107.9179204493951
1827.525247,57.859254717680024
1830.48445,-2.1440211251311503
1833.440192,-4.868015728852553
1836.392487,-18.398534288211522
1839.341347,-57.002192945508895
1842.286784,37.6849056401383
1845.22881,13.975869877039912
1848.167439,52.30230609427379
1851.102682,77.46636495824187
1854.034553,-77.10777720372444
1856.963063,0.6150405329295514
1859.888226,263.3615583220973
1862.810053,243.28387250131087
1865.728557,25.097172483991343
1868.643751,78.00645530202837
1871.555648,-17.937478215594492
1874.46426,-144.93132306025723
1877.369599,172.6615366441858
1880.271679,60.178652964924424
1883.170512,-80.19172558298271
1886.06611,195.95661451185265
1888.958487,177.009648726688
1891.847655,-58.90279092952555
1894.733626,74.67657173130797
1897.616414,55.31904721163021
1900.496032,-182.7062021258309
1903.372491,39.9550782944808
1906.245805,83.54213439949363
1909.115987,77.56223775777801
1911.983049,59.851232420341944
1914.847004,-42.55131218496913
1917.707866,98.51470713881949
1920.565646,56.219154816559346
1923.420359,-46.79532091884289
1926.272016,-53.68296345275926
1929.120631,-123.73276832480036
1931.966216,-80.054179247905
1934.808786,26.379764584504137
1937.648351,-45.20352704728349
1940.484927,50.112757762027684
1943.318525,67.34691529653018
1946.149158,232.52017265216307
1948.97684,617.9713599293448
1951.801584,226.51560936258252
1954.623403,53.996268021555565
1957.44231,182.83331869706058
1960.258318,-63.195121503374324
1963.071439,-53.94450048955132
1965.881688,42.56287573840352
1968.689078,98.09610323353655
1971.493621,-73.882082127646
