Raman shift cm-1,4ATP_100uM_rep3_acc4_processed_intensity
-93.47115107,523.0613715106216
-87.69374369,66.48895286474232
-81.9253076,-81.8722041161812
-76.16582701,18.005154554416663
-70.41528615,81.74538555590792
-64.67366933,-106.48751595981254
-58.94096086,-102.58406144410466
-53.21714512,49.47830237174236
-47.50220652,13.717847894083974
-41.79612954,127.15900195579393
-36.09889866,200.14592307792927
-30.41049843,142.70696173220358
-24.73091343,97.25035484822634
-19.0601283,17.0136245232636
-13.39812769,74.9984664789136
-7.744896327,-60.13600534814531
-2.100418946,-125.9357697372224
3.535319659,80.885564455465
9.162334658,3.5777701683211234
14.78064118,7.515641033939573
20.39025432,4.753188149828361
25.99118913,-16.64983074588075
31.58346061,262.0134138862957
37.16708375,210.38465330257952
42.74207347,34.059504752866005
48.30844468,26.387611203876627
53.86621222,-11.411315884314956
59.41539093,-50.26836510946511
64.95599558,-67.3169648443293
70.48804091,228.64070028255912
76.01154164,239.35253302395435
81.52651243,-119.56931814102336
87.03296792,78.54739238638825
92.5309227,260.8301948470721
98.02039134,84.13272061366597
103.5013884,35.48750704883879
108.9739282,-5.667439990245114
114.4380255,15.365193155365816
119.8936944,198.0173136315483
125.3409495,325.50230545130603
130.779805,149.06645322094965
136.2102753,-116.82004555466227
141.6323747,-12.400071625889339
147.0461174,92.87562276523701
152.4515176,21.594730151006914
157.8485895,33.27023376540522
163.2373472,-77.505556235645
168.6178049,-57.10304906829229
173.9899766,149.12190250273568
179.3538764,61.455777182814714
184.7095182,28.06055391142938
190.0569161,207.27745248120226
195.396084,134.82622560893952
200.7270358,5.37337112835354
206.0497854,1.6315230674625383
211.3643466,3.6100525891573696
216.6707333,39.88630497795296
221.9689593,-15.615452527780125
227.2590382,-12.888416434445212
232.5409839,52.196648257112784
237.8148101,31.722085502562287
243.0805303,50.578038429576885
248.3381582,-32.08469136303455
253.5877075,-35.83832637314508
258.8291917,121.43478183502157
264.0626244,37.85708901955233
269.288019,-33.93439924886156
274.5053891,14.883485674631768
279.7147481,-101.09810938391689
284.9161094,-54.87661189742322
290.1094865,577.8773947202096
295.2948927,2633.3586461587065
300.4723414,7513.079899412666
305.6418459,14879.104964740245
310.8034194,21697.034839708223
315.9570752,25524.92398340547
321.1028267,26877.89420470879
326.2406869,27350.014066819782
331.370669,27820.02668563679
336.4927863,28220.432369185164
341.6070517,28637.434168227643
346.7134786,29372.793376046266
351.8120798,29824.191584615433
356.9028684,29663.850947009945
361.9858576,29364.537901275333
367.0610602,29027.496040065
372.1284892,28598.64346136663
377.1881577,28591.88454764784
382.2400784,29070.059702589257
387.2842644,29828.28895362241
392.3207284,30615.34417310561
397.3494833,30758.069294322602
402.370542,30729.13551821642
407.3839172,30028.407455225082
412.3896217,28299.14205546143
417.3876683,26996.316977876064
422.3780697,25793.06472948953
427.3608386,24698.56940327097
432.3359876,23899.383985178636
437.3035295,23112.85409157437
442.2634769,22424.80999662544
447.2158423,21275.19590629425
452.1606383,20390.166105493794
457.0978776,20170.193217354165
462.0275727,20247.680311993205
466.9497361,19767.352988762425
471.8643802,18673.09363195866
476.7715176,18847.786185321274
481.6711608,19878.70558591019
486.5633221,20221.86992591456
491.448014,19385.21416855293
496.3252488,17784.574742514982
501.195039,16345.432076822066
506.0573969,15071.545626614716
510.9123349,13892.408109371274
515.7598651,12940.639637395861
520.6,12314.182811837929
525.4327518,11799.695601110128
530.2581327,10958.944852156625
535.076155,10464.172705800638
539.8868309,10707.048574549171
544.6901726,10268.417354008088
549.4861922,9065.69692631987
554.2749019,8340.611663887972
559.0563139,7686.754996744143
563.8304402,7026.833674325091
568.597293,6874.293447563105
573.3568844,6471.64454161717
578.1092263,5890.128391781858
582.8543308,5916.524793277589
587.5922101,5649.95075799432
592.322876,4952.76613254089
597.0463405,4797.922878153635
601.7626157,4566.882498374671
606.4717135,4140.287786855915
611.1736458,3952.6219043744823
615.8684246,3582.8591226586504
620.5560617,3381.5645364433694
625.2365691,3377.1905469135527
629.9099585,3142.8608531345453
634.5762419,3016.930661793929
639.2354312,3016.712341263308
643.887538,2810.83252011683
648.5325743,2172.7920796764847
653.1705518,1434.236404199608
657.8014823,897.7743112649805
662.4253775,553.900406130746
667.0422493,479.6200245854707
671.6521092,340.7580685412431
676.2549691,175.91226736042154
680.8508407,46.116927168521215
685.4397355,-16.96145723335212
690.0216654,35.423323671795515
694.5966419,83.5039091305116
699.1646767,357.9708492146747
703.7257814,693.7183728190594
708.2799676,1617.7807781738866
712.827247,2783.760270049783
717.367631,2585.311973119946
721.9011314,1721.869125284782
726.4277595,937.328722965276
730.9475271,353.6373376986321
735.4604456,607.4964715159986
739.9665264,984.3713700353856
744.4657813,1014.766560356331
748.9582215,718.6320878751303
753.4438587,225.89454966685844
757.9227042,166.35429550725166
762.3947696,-33.50740904380291
766.8600662,-60.06164913273642
771.3186056,425.32036227745266
775.770399,276.2822118312488
780.215458,28.772089894682722
784.6537939,78.66744114102403
789.0854181,-95.08356795909822
793.510342,-104.07192010301515
797.9285769,230.42274144331532
802.3401342,488.6625575606995
806.7450253,609.1711339789235
811.1432614,804.1174461712235
815.5348538,796.5330036405194
819.9198139,685.1885884558669
824.2981531,704.5261197316049
828.6698824,428.60862688346606
833.0350133,69.70140403488676
837.393557,86.174770649317
841.7455248,48.03216429942131
846.0909278,-131.0108824002482
850.4297774,12.782780075362098
854.7620848,167.83295244627425
859.0878611,0.6093900494870468
863.4071176,70.96439318969624
867.7198655,381.17724947608895
872.026116,526.9056769458075
876.3258802,516.6758773099937
880.6191693,247.14414344364013
884.9059946,342.8060021431111
889.186367,496.1364671027977
893.4602979,-58.450040122615974
897.7277982,-47.923935468368654
901.9888793,491.5311584155261
906.2435521,829.4446410739374
910.4918277,1179.606393581862
914.7337174,1409.5104771034903
918.9692321,1833.5439653580725
923.1983831,1869.6564450992455
927.4211813,1586.5432809121276
931.6376378,1677.7132799433011
935.8477637,1596.2355058253738
940.0515701,1876.3483734865044
944.249068,2089.385437303257
948.4402684,1520.2036673244147
952.6251825,1379.5154340317267
956.8038212,1618.120454206476
960.9761955,1522.5887053086371
965.1423166,1384.1162570161828
969.3021953,1236.2723051584444
973.4558427,1072.2177509642383
977.6032699,926.727963069708
981.7444877,753.0248962137166
985.8795072,831.6009148290213
990.0083394,745.0141568104827
994.1309953,760.5268583032362
998.2474857,1305.8119540191487
1002.357822,2377.011635402056
1006.462014,3903.3070725567245
1010.560075,3741.689139189901
1014.652013,2081.878216324648
1018.737841,954.310012085718
1022.81757,372.43031181602873
1026.891209,55.70187153439019
1030.958771,-77.6485657728922
1035.020266,337.12555848424154
1039.075705,763.3978487663599
1043.1251,1401.3798072435388
1047.16846,2144.0480635319022
1051.205797,2811.587527013144
1055.237121,4944.727039714866
1059.262444,8613.787940775645
1063.281777,15896.842851427444
1067.295131,23320.772298254633
1071.302515,25023.098560208127
1075.303942,25016.955890744244
1079.299422,22646.444407333976
1083.288966,15818.810883397791
1087.272585,9195.865697602367
1091.250289,4699.292272739562
1095.222091,2040.0815536703708
1099.187999,597.5020444891397
1103.148026,21.569698176970633
1107.102183,33.70820218351946
1111.050479,256.2629120846159
1114.992927,956.6326678267069
1118.929536,2615.631514433349
1122.860318,5113.714738391061
1126.785283,9829.324472290826
1130.704443,17678.88130788216
1134.617808,23377.981271912893
1138.52539,24079.2372837359
1142.427198,23344.535136909686
1146.323244,24400.119642942154
1150.213538,22896.92828731489
1154.098093,14657.750860452239
1157.976917,7996.891777819472
1161.850023,6205.344222035527
1165.717421,5267.871302455735
1169.579121,5331.47673273049
1173.435135,5067.709637640581
1177.285474,4515.856685438994
1181.130148,4866.507584461107
1184.969169,5489.887830208607
1188.802547,6351.544703326681
1192.630292,6063.761917767211
1196.452416,4366.494092023662
1200.26893,2564.419973142271
1204.079844,832.5308706185101
1207.88517,89.42018972762435
1211.684917,-60.67512569395376
1215.479098,30.35011233653404
1219.267722,539.8385455906291
1223.050801,85.90526428766066
1226.828346,-19.289428580312915
1230.600366,324.97316100875605
1234.366874,-93.02862352714715
1238.12788,-0.54109614119659
1241.883395,21.220687626866493
1245.633429,-189.5211050640341
1249.377994,59.23380475245517
1253.1171,80.52860823905348
1256.850759,45.012803106002536
1260.578981,157.0673479131296
1264.301776,161.78296471616704
1268.019157,30.337028701570773
1271.731133,-121.10884629634776
1275.437715,-116.65342059201342
1279.138915,41.96541084069088
1282.834743,305.2410771638348
1286.52521,242.71473158990153
1290.210328,93.10043725490081
1293.890106,829.6222424497294
1297.564555,1785.645771085903
1301.233688,2319.769355862177
1304.897514,2682.7418011079017
1308.556044,2565.164063495301
1312.209289,2021.3176948551306
1315.857261,1325.2614568933814
1319.499969,1293.9131394858023
1323.137425,1622.7877323407174
1326.769641,1469.841542476056
1330.396626,1725.265810517056
1334.018391,1804.8500537034947
1337.634948,1546.9697149111182
1341.246307,1776.2820185064315
1344.85248,1948.487461801572
1348.453477,2181.514457127319
1352.049309,2426.914354643629
1355.639987,2944.3723274517947
1359.225522,3646.304414534661
1362.805925,3529.0375843761994
1366.381207,3596.9709584036545
1369.951379,4153.923714138497
1373.516452,4612.913293804738
1377.076436,5849.45777239639
1380.631343,8162.8889561389715
1384.181184,11655.669559097783
1387.725969,16201.071499289645
1391.26571,18936.024558538043
1394.800417,16863.73412960623
1398.330102,11669.424723731594
1401.854776,6938.7703912303605
1405.374448,3996.404243889695
1408.889132,2695.903676871564
1412.398837,2470.663603297923
1415.903574,3431.067211131931
1419.403355,5767.264429573943
1422.89819,9461.26322504697
1426.388091,14843.469396623559
1429.873069,20838.500683061844
1433.353134,25498.624669162957
1436.828298,27321.900556161167
1440.298571,26002.766403478432
1443.763965,22397.33047754648
1447.224491,17244.743885921212
1450.68016,12088.413306480084
1454.130983,8074.252552278624
1457.576971,5272.357606890577
1461.018135,3870.743465148143
1464.454486,3259.1112671380215
1467.886036,3433.3775144076944
1471.312794,4322.698318416851
1474.734774,4429.702937935057
1478.151985,3480.8045834458185
1481.564439,2061.6396577899222
1484.972146,658.9953903147916
1488.375119,27.487534081620197
1491.773368,31.265377793384687
1495.166904,21.946776292141294
1498.555739,-67.4017272407059
1501.939883,-10.130140917035078
1505.319349,258.37506090832085
1508.694146,629.0201564470794
1512.064286,896.7342246820062
1515.429781,920.4222848267482
1518.790642,1108.3687888827426
1522.146879,1457.260654706683
1525.498505,1387.6183935327776
1528.845529,1542.0758220543812
1532.187965,2294.034365339791
1535.525822,2882.532383259685
1538.859112,3366.3740840759992
1542.187846,3779.684928089732
1545.512036,4108.747673845028
1548.831693,4949.3467765081605
1552.146829,5801.529260065696
1555.457453,6423.646618026633
1558.763579,7627.203975344153
1562.065216,9096.57702049046
1565.362377,10518.806357854366
1568.655073,12025.506926708927
1571.943315,13174.212513435483
1575.227114,13724.913695709594
1578.506482,13401.494836767564
1581.781431,11931.933881156017
1585.051971,9870.85213115071
1588.318114,8014.939679427032
1591.579872,6360.340607882252
1594.837255,4706.465841762258
1598.090275,3273.0512992389927
1601.338945,2439.6192561334115
1604.583274,2067.936230565874
1607.823275,1431.312272475056
1611.058959,1019.7115028664823
1614.290338,1025.682320874287
1617.517422,727.2183753465822
1620.740224,573.5000575174076
1623.958755,506.30381614229964
1627.173027,208.66418120360322
1630.38305,79.87171485019712
1633.588838,33.74772976859913
1636.7904,95.23948189130783
1639.987749,312.578165254327
1643.180896,192.56250803262446
1646.369853,48.46311574708852
1649.554632,308.5180231609062
1652.735244,159.89237207264011
1655.9117,-258.8842841015331
1659.084013,-41.11571510770207
1662.252193,187.9358958218881
1665.416254,-81.26552848160789
1668.576205,1.245094558232502
1671.732059,324.9998289186809
1674.883828,150.84540886700125
1678.031523,49.12578629331981
1681.175157,132.67114997332436
1684.314739,43.74766380278169
1687.450284,-5.749936542647518
1690.581801,-45.986212988777936
1693.709304,-21.54595569487134
1696.832803,-5.1466723005743615
1699.952311,-6.930748833200509
1703.067839,35.939135830325824
1706.179399,78.50520564242959
1709.287003,172.50548957870282
1712.390663,46.33069833226442
1715.49039,42.73289121823068
1718.586197,200.270106200336
1721.678095,61.13666326048859
1724.766096,-8.05121044264519
1727.850213,-97.19060646647456
1730.930456,-117.68587781914147
1734.006838,53.23474771625018
1737.079372,-80.52094162623395
1740.148067,19.937658153504206
1743.212938,281.1036994774173
1746.273996,133.5072318213389
1749.331252,89.38136301144593
1752.384718,69.7565643322184
1755.434408,-21.11066545904406
1758.480332,61.375788582681054
1761.522503,78.17251612142711
1764.560933,-88.79918537012485
1767.595634,-155.7537812257957
1770.626618,63.21118071408645
1773.653896,138.9929958788835
1776.677482,-48.78139347344986
1779.697388,-27.338435068093027
1782.713625,183.53368004738587
1785.726205,234.6008645961037
1788.735141,139.29019309783874
1791.740445,14.731452331616907
1794.742129,47.18416403843234
1797.740206,307.293797723853
1800.734687,358.883446357814
1803.725585,158.12098598807432
1806.712912,70.50302354289266
1809.69668,86.03105160519658
1812.676902,25.58833036284501
1815.65359,-88.71832491019694
1818.626756,-109.88358579242866
1821.596413,-86.59412169332637
1824.562573,-59.603928706934
1827.525247,9.575805667838708
1830.48445,96.57999722850914
1833.440192,74.44721744874214
1836.392487,-23.755832148163684
1839.341347,6.090370880251655
1842.286784,-16.406651375381777
1845.22881,-40.49284753676088
1848.167439,87.58941928045176
1851.102682,76.92245211021152
1854.034553,-43.667941518038816
1856.963063,3.83930160321502
1859.888226,217.95532557279364
1862.810053,221.7480436286835
1865.728557,-8.776707877227356
1868.643751,0.9597449107311196
1871.555648,-10.245973032573028
1874.46426,-103.49944861994067
1877.369599,78.02500548451724
1880.271679,2.1826577310662927
1883.170512,-88.91575631792452
1886.06611,203.5739813080365
1888.958487,194.5765912972495
1891.847655,34.63749690012133
1894.733626,50.737861873811156
1897.616414,-19.973671173966828
1900.496032,-82.57924739490736
1903.372491,-5.1946255286156955
1906.245805,84.87019971997071
1909.115987,152.98075548735713
1911.983049,95.6747294998366
1914.847004,-57.50084153092821
1917.707866,-2.1663185643585976
1920.565646,74.50812528060627
1923.420359,10.226042343759502
1926.272016,-73.09196756229889
1929.120631,-148.81671868838242
1931.966216,-5.144272806976879
1934.808786,82.20601443229566
1937.648351,-52.08332797625937
1940.484927,27.156394551340853
1943.318525,81.93042576401484
1946.149158,222.30759982164784
1948.97684,446.1010728262645
1951.801584,154.75231396541992
1954.623403,27.845501687258057
1957.44231,60.64895693526366
1960.258318,-155.6370996518119
1963.071439,-79.87650704425502
1965.881688,94.49203754971128
1968.689078,94.53926062733572
1971.493621,-69.17080916430885
