Raman shift cm-1,4ATP_100nM_rep1_acc4_processed_intensity
-93.47115107,463.8875156968889
-87.69374369,100.7872655740558
-81.9253076,2.8710957676568114
-76.16582701,94.0908659491046
-70.41528615,124.08321632419882
-64.67366933,34.53974862394051
-58.94096086,-40.73987445004265
-53.21714512,-20.278416543230946
-47.50220652,71.79010563833816
-41.79612954,183.3846178233752
-36.09889866,249.5944601673438
-30.41049843,232.15428301324678
-24.73091343,166.27580312026998
-19.0601283,99.02142965818655
-13.39812769,40.796861289192854
-7.744896327,17.130753067838246
-2.100418946,57.30743394210946
3.535319659,107.1421105212685
9.162334658,78.72718881159142
14.78064118,2.6466091991584184
20.39025432,13.501208689217382
25.99118913,143.08506731018068
31.58346061,237.28099556021914
37.16708375,190.6646096150431
42.74207347,110.91154079841846
48.30844468,79.4918115298531
53.86621222,4.26364859586775
59.41539093,-100.42451222880214
64.95599558,-58.82489574381647
70.48804091,74.85905740543109
76.01154164,66.83518783100251
81.52651243,-11.094689779743362
87.03296792,41.58912895925778
92.5309227,115.49179000040675
98.02039134,83.83575354560821
103.5013884,39.48633643684906
108.9739282,18.0385219306022
114.4380255,42.7729877601671
119.8936944,200.25929484757592
125.3409495,320.3027762224726
130.779805,169.42139548114807
136.2102753,-36.542644479983664
141.6323747,20.051773829980732
147.0461174,199.80891052905315
152.4515176,226.46576584263244
157.8485895,153.87227106259445
163.2373472,185.95773438665356
168.6178049,337.9555381011754
173.9899766,463.50826398274
179.3538764,510.348629411573
184.7095182,565.6687065990648
190.0569161,637.6674997253281
195.396084,639.4032023194309
200.7270358,594.5708819861893
206.0497854,616.289097102039
211.3643466,719.3459132809076
216.6707333,809.3606025993804
221.9689593,832.5652216837461
227.2590382,848.3026155747082
232.5409839,920.392324199876
237.8148101,1021.9107546800218
243.0805303,1101.846871378396
248.3381582,1158.6348241589612
253.5877075,1220.463651698647
258.8291917,1311.054695510271
264.0626244,1433.747981862016
269.288019,1546.6836640474976
274.5053891,1582.3278787048935
279.7147481,1547.220362246605
284.9161094,1529.1482351838174
290.1094865,1532.39821515892
295.2948927,1401.2849557453246
300.4723414,1000.819212774469
305.6418459,441.608976731921
310.8034194,34.81613022334341
315.9570752,-33.616845084114054
321.1028267,95.05899191446176
326.2406869,162.2820524055134
331.370669,94.15481759974261
336.4927863,-1.200508415024359
341.6070517,-28.5164568757191
346.7134786,-4.87886877509807
351.8120798,0.9357689967425671
356.9028684,-11.185548679788894
361.9858576,26.693015943871302
367.0610602,118.8928221688814
372.1284892,203.37379899386207
377.1881577,329.06593268772326
382.2400784,669.2912969921952
387.2842644,1212.458084852534
392.3207284,1619.138537946104
397.3494833,1601.4305319408088
402.370542,1231.839410260465
407.3839172,760.2441188524734
412.3896217,381.7237002832687
417.3876683,182.41457423744174
422.3780697,132.5910776577919
427.3608386,149.79435218700598
432.3359876,186.80051448904607
437.3035295,218.7090030749144
442.2634769,198.6354748366551
447.2158423,114.88665822747122
452.1606383,28.142199024464773
457.0978776,-15.109998536640429
462.0275727,-19.780621994418148
466.9497361,-6.7553383228973125
471.8643802,-1.9456996393525277
476.7715176,2.7215973915576193
481.6711608,42.748631582093594
486.5633221,75.5735842057441
491.448014,26.673216443383147
496.3252488,-27.385469374046203
501.195039,23.24414767310759
506.0573969,66.30723490398316
510.9123349,-19.222911835314296
515.7598651,-66.89078045690809
520.6,62.826150904040475
525.4327518,181.324543274024
530.2581327,122.89233108712213
535.076155,18.374844215418857
539.8868309,23.977320978075387
544.6901726,128.80288319715302
549.4861922,224.99817274787958
554.2749019,168.99557513557886
559.0563139,-0.7760512231868759
563.8304402,-11.572096043031738
568.597293,153.10150738236692
573.3568844,183.400047677369
578.1092263,42.92300017581702
582.8543308,-29.170614087870113
587.5922101,-5.716802453356335
592.322876,9.487880139894774
597.0463405,24.06856259191057
601.7626157,26.42505505432304
606.4717135,-25.318483877307305
611.1736458,-59.928377320232784
615.8684246,-21.75919822377726
620.5560617,13.639820729295401
625.2365691,25.85907103715948
629.9099585,93.40472364746117
634.5762419,199.99226146906818
639.2354312,256.4884908239426
643.887538,244.2573543163096
648.5325743,193.83211209680758
653.1705518,125.17119142754026
657.8014823,44.58254920765712
662.4253775,-15.529312774796615
667.0422493,-3.476057847080039
671.6521092,68.74126981820368
676.2549691,138.01187010877658
680.8508407,153.05987343720113
685.4397355,87.74085109280753
690.0216654,-3.0093827282464716
694.5966419,-7.547155192302547
699.1646767,86.280550697938
703.7257814,184.7933905548387
708.2799676,224.18843963902077
712.827247,195.42519324659992
717.367631,106.55516612028796
721.9011314,3.94237986622592
726.4277595,-17.45221501729607
730.9475271,97.87802095617513
735.4604456,255.91795446554403
739.9665264,298.3562406367479
744.4657813,214.3843568881146
748.9582215,119.93793001023793
753.4438587,61.354479728121774
757.9227042,8.859778409052623
762.3947696,-2.869705913098791
766.8600662,104.29433629459045
771.3186056,287.03269619097085
775.770399,375.75418647477994
780.215458,261.1754788043177
784.6537939,35.86257810862567
789.0854181,-60.97574727082609
793.510342,64.89241572653172
797.9285769,220.71436448927992
802.3401342,256.8437496738118
806.7450253,245.68715731225151
811.1432614,206.6801092255493
815.5348538,98.01518160663369
819.9198139,41.08424533485999
824.2981531,131.84743756679012
828.6698824,223.29351676442866
833.0350133,184.68235777511535
837.393557,107.44794681559058
841.7455248,89.0933155477061
846.0909278,83.33510801613981
850.4297774,41.721351754425314
854.7620848,-9.275161424101743
859.0878611,-34.171861462707554
863.4071176,-6.202570409001694
867.7198655,91.81261404689327
872.026116,211.67668294065322
876.3258802,269.05205591307345
880.6191693,279.3518970733387
884.9059946,294.3101569706967
889.186367,236.6169265886204
893.4602979,80.65388629148532
897.7277982,13.992638522607557
901.9888793,123.51435394586301
906.2435521,209.0368348454556
910.4918277,114.7367405929349
914.7337174,-34.32213734904826
918.9692321,-57.281823036805896
923.1983831,39.214287295809484
927.4211813,135.80245549640944
931.6376378,157.8783085880108
935.8477637,118.80470687295893
940.0515701,70.6616108677801
944.249068,25.139932270873764
948.4402684,-21.672476151766084
952.6251825,-29.388060868791868
956.8038212,21.003810573257724
960.9761955,73.82572795148072
965.1423166,76.24007959939527
969.3021953,41.1542305880975
973.4558427,6.710109133656346
977.6032699,-3.9424156549261227
981.7444877,12.101263912490182
985.8795072,32.33978413665886
990.0083394,38.64396674722371
994.1309953,25.18994296609016
998.2474857,-19.187953609724715
1002.357822,-62.61174201625798
1006.462014,-31.239310033593497
1010.560075,100.082991641185
1014.652013,255.24225348049725
1018.737841,299.2631052856995
1022.81757,219.3084754490211
1026.891209,179.59783837808158
1030.958771,243.35586961702717
1035.020266,272.7909902442051
1039.075705,221.40642536451094
1043.1251,218.56968391181834
1047.16846,300.4446185367619
1051.205797,326.6700684191935
1055.237121,194.6423050706795
1059.262444,-0.8820789131003437
1063.281777,-18.771088140547278
1067.295131,283.9320856240049
1071.302515,782.4995610112278
1075.303942,1242.9264134292025
1079.299422,1468.0014120636288
1083.288966,1317.9982508047551
1087.272585,876.0266484452674
1091.250289,435.6789182868008
1095.222091,189.01360110267598
1099.187999,117.58599631068768
1103.148026,127.44135030029999
1107.102183,142.69442725257176
1111.050479,122.03271036191967
1114.992927,67.31045293256865
1118.929536,20.017730329554055
1122.860318,1.5156082407924032
1126.785283,9.007904414301088
1130.704443,87.70294674517628
1134.617808,259.4683813877576
1138.52539,398.69164168285664
1142.427198,365.7295269396002
1146.323244,238.85341049669944
1150.213538,201.92410084834398
1154.098093,237.10254311542266
1157.976917,208.1678535688896
1161.850023,154.595493066662
1165.717421,191.1049532507256
1169.579121,273.45369810645263
1173.435135,301.20409996554184
1177.285474,305.5644074979311
1181.130148,364.11128642161316
1184.969169,415.6759613067707
1188.802547,361.0323665040239
1192.630292,258.0300763978199
1196.452416,187.60250240950387
1200.26893,99.87700879520116
1204.079844,-24.36271023320637
1207.88517,-72.45256040045359
1211.684917,44.81615751211584
1215.479098,228.88308331041586
1219.267722,250.70081691205593
1223.050801,89.63582660913411
1226.828346,-5.848652265508475
1230.600366,30.466196617518307
1234.366874,31.353585489791058
1238.12788,18.60081940278738
1241.883395,139.80376631507747
1245.633429,299.33185421067935
1249.377994,274.4741243836499
1253.1171,86.89177140861038
1256.850759,-29.93885324638142
1260.578981,26.925655476078767
1264.301776,111.09949014453545
1268.019157,58.796603609759394
1271.731133,-45.41163011766223
1275.437715,19.755454276004915
1279.138915,210.68914764166513
1282.834743,223.57739699940393
1286.52521,14.814693222317711
1290.210328,-95.9293914438031
1293.890106,11.14801209355205
1297.564555,89.8803149926716
1301.233688,40.797724473703475
1304.897514,36.461414962561896
1308.556044,86.224741547223
1312.209289,36.465405272790136
1315.857261,-50.96141228795592
1319.499969,-4.104387476075697
1323.137425,141.4087355897947
1326.769641,243.1329497810494
1330.396626,242.43692652719992
1334.018391,147.5358730702874
1337.634948,31.09281126375498
1341.246307,-8.517942525230445
1344.85248,6.958644361741497
1348.453477,-21.560970304223872
1352.049309,-55.0602883303852
1355.639987,17.286654669350717
1359.225522,123.66921362196135
1362.805925,118.29127105019442
1366.381207,34.39223439764373
1369.951379,-5.239985284706613
1373.516452,37.61727196057964
1377.076436,124.16548514597571
1380.631343,200.33646103766233
1384.181184,228.01778151218713
1387.725969,192.25260960454105
1391.26571,135.47009583242146
1394.800417,142.54409081136168
1398.330102,213.0970215084791
1401.854776,236.90163527888106
1405.374448,140.0756701843058
1408.889132,-5.006087671528007
1412.398837,-39.1179376435864
1415.903574,79.41451635802093
1419.403355,210.4287367734926
1422.89819,252.34874633687951
1426.388091,245.3195141281655
1429.873069,229.69046235667082
1433.353134,217.3142584119475
1436.828298,215.39256250502768
1440.298571,164.42518409788067
1443.763965,36.053654916541404
1447.224491,-55.769445120275705
1450.68016,-30.6028768267698
1454.130983,40.73611508312656
1457.576971,90.3367508718178
1461.018135,122.09013136475818
1464.454486,122.59313622343439
1467.886036,70.41729240477457
1471.312794,26.531505907929592
1474.734774,87.73506155568391
1478.151985,201.97550833849243
1481.564439,181.95054686764036
1484.972146,19.430811676350512
1488.375119,-40.11351165884638
1491.773368,93.324768405704
1495.166904,186.9333064777789
1498.555739,104.03354193654069
1501.939883,-0.34728849111862914
1505.319349,-7.201222955330529
1508.694146,20.38935127353562
1512.064286,20.186303802026615
1515.429781,30.527781735437564
1518.790642,89.53316152791766
1522.146879,108.96890007918722
1525.498505,13.989218764671442
1528.845529,-65.67153958094588
1532.187965,0.5594430846533953
1535.525822,126.81280192284655
1538.859112,173.9724847537632
1542.187846,162.49955471131324
1545.512036,230.97635400143486
1548.831693,366.6903283688217
1552.146829,346.8715186079206
1555.457453,133.50896827949873
1558.763579,10.116098947539157
1562.065216,158.95341632368107
1565.362377,423.4443214469053
1568.655073,548.118191296335
1571.943315,497.5998034253773
1575.227114,483.0715215929712
1578.506482,625.6469062574987
1581.781431,776.0115767245275
1585.051971,819.3521139308662
1588.318114,832.0613219361371
1591.579872,814.1445612487897
1594.837255,664.0355901366731
1598.090275,458.2057390855485
1601.338945,363.35570492629097
1604.583274,316.2352439722839
1607.823275,172.0506900372466
1611.058959,7.923092323445573
1614.290338,-52.15505576245812
1617.517422,-27.134697584003654
1620.740224,38.13452507057981
1623.958755,89.69127707767426
1627.173027,66.75866911678325
1630.38305,8.854430305020353
1633.588838,2.7227375715734308
1636.7904,63.89743118583546
1639.987749,131.00279858135164
1643.180896,152.57647220739898
1646.369853,152.83372216840473
1649.554632,125.660577125531
1652.735244,28.51588875769962
1655.9117,-40.49935407368994
1659.084013,7.364817860678606
1662.252193,41.650325323719535
1665.416254,-9.301064557243024
1668.576205,-15.422226347770547
1671.732059,39.80161264634706
1674.883828,35.600522503219686
1678.031523,-15.971472052047549
1681.175157,-26.539643439456956
1684.314739,-6.443242742097543
1687.450284,-1.905242501947363
1690.581801,-15.443910884000996
1693.709304,-19.533438493627827
1696.832803,16.399770477759596
1699.952311,86.61996724133371
1703.067839,163.7577733353444
1706.179399,218.53884938467098
1709.287003,208.44530201742134
1712.390663,162.71679586924927
1715.49039,171.11264064642637
1718.586197,195.27515352739613
1721.678095,120.10707078702852
1724.766096,-8.401944014326787
1727.850213,-47.85524335948128
1730.930456,-1.0539727108380532
1734.006838,26.679948220220666
1737.079372,43.55335857421436
1740.148067,125.00914419166108
1743.212938,211.85937181790388
1746.273996,191.31128615479219
1749.331252,103.42855025773616
1752.384718,73.62800832138466
1755.434408,135.0330913462558
1758.480332,196.8335868094867
1761.522503,136.2108561242628
1764.560933,-15.962740921313646
1767.595634,-46.46780679191315
1770.626618,103.20151054286626
1773.653896,185.58339445552076
1776.677482,80.21263936681443
1779.697388,22.65897790951015
1782.713625,153.0626154312929
1785.726205,262.96167184200925
1788.735141,177.9180745248704
1791.740445,29.349478064868304
1794.742129,27.98360700550493
1797.740206,163.1786762270133
1800.734687,239.54395073605033
1803.725585,172.86455568656535
1806.712912,83.4850105722579
1809.69668,56.015230129687474
1812.676902,30.724365387117338
1815.65359,-20.6995994911362
1818.626756,-47.60438181855035
1821.596413,-36.077325443997935
1824.562573,-1.9450514513405253
1827.525247,34.36312913479532
1830.48445,23.993199128145445
1833.440192,-26.586627985597516
1836.392487,-35.097084237401525
1839.341347,5.252945826348373
1842.286784,24.283490466671676
1845.22881,38.77786210913292
1848.167439,94.91444754988842
1851.102682,119.58263413347552
1854.034553,78.52053598247879
1856.963063,87.69239987369065
1859.888226,165.48883906283777
1862.810053,182.24410893566315
1865.728557,108.15562962074847
1868.643751,7.548773273194172
1871.555648,-69.06456068894431
1874.46426,-61.86643565036937
1877.369599,6.178081367427286
1880.271679,34.83274134585315
1883.170512,28.30736550603325
1886.06611,35.02604126348216
1888.958487,35.61576512329803
1891.847655,22.86607776575024
1894.733626,-1.6495276349590648
1897.616414,-47.13880811387998
1900.496032,-55.16078734833078
1903.372491,23.711374116118147
1906.245805,108.00592297010945
1909.115987,99.81840425712869
1911.983049,35.84175786700489
1914.847004,22.53113720042204
1917.707866,73.98312140625578
1920.565646,97.46106966244733
1923.420359,36.23781634311395
1926.272016,-55.72915558285467
1929.120631,-73.03028353916021
1931.966216,24.45961091634043
1934.808786,122.11969898811498
1937.648351,88.56586061759153
1940.484927,25.846305194211965
1943.318525,159.14812656541136
1946.149158,435.85985706427687
1948.97684,533.5841414488139
1951.801584,369.7470152706064
1954.623403,200.90098723102568
1957.44231,125.02349963256013
1960.258318,25.04463224346081
1963.071439,-31.401346718393846
1965.881688,68.92768531294466
1968.689078,139.67106265471023
1971.493621,8.193073063988937
