Raman shift cm-1,4ATP_1pM_rep3_acc2_processed_intensity
-93.47115107,708.7682830890641
-87.69374369,171.15799144629906
-81.9253076,-14.492238925935368
-76.16582701,121.99725177571065
-70.41528615,182.3950544517699
-64.67366933,22.210944760703512
-58.94096086,-57.8472938928238
-53.21714512,37.076834334756455
-47.50220652,95.2526927929399
-41.79612954,136.47914692795493
-36.09889866,272.67785467705056
-30.41049843,328.9663047646845
-24.73091343,211.59596366461088
-19.0601283,110.61667623750364
-13.39812769,62.06486108627753
-7.744896327,4.734931722352869
-2.100418946,31.945321266751392
3.535319659,85.57004658304484
9.162334658,31.225722727675745
14.78064118,-28.21577392035799
20.39025432,10.08924509001801
25.99118913,115.54448188037522
31.58346061,205.84632041395108
37.16708375,164.0311276156636
42.74207347,31.23032543874693
48.30844468,-11.182056591457581
53.86621222,-1.710448003055454
59.41539093,-61.597021590622276
64.95599558,-6.467135749386401
70.48804091,190.93732935503556
76.01154164,161.2811252871113
81.52651243,10.477651541327234
87.03296792,137.2270040259727
92.5309227,280.8715782874256
98.02039134,200.96180834712158
103.5013884,164.3817509921094
108.9739282,154.47358865615038
114.4380255,102.64154758037873
119.8936944,241.9920563380668
125.3409495,392.62647977344517
130.779805,212.06122021708455
136.2102753,-35.87121895958188
141.6323747,-23.64714814501565
147.0461174,71.8008653344653
152.4515176,26.86399613209153
157.8485895,-55.39208853016925
163.2373472,3.5043120213844077
168.6178049,139.10697866023452
173.9899766,137.36872803674385
179.3538764,20.879805035271488
184.7095182,22.754387315928852
190.0569161,130.87361139852203
195.396084,135.74398655756204
200.7270358,39.60747012759623
206.0497854,-6.445172260319509
211.3643466,34.7974253167979
216.6707333,59.57608870686897
221.9689593,11.4631664026125
227.2590382,20.812589731836397
232.5409839,146.68102269100552
237.8148101,247.59864006614498
243.0805303,287.6721558014018
248.3381582,363.6931509796161
253.5877075,472.49639070285616
258.8291917,572.815395473091
264.0626244,721.6271704944656
269.288019,924.3819154613188
274.5053891,1025.8374102402236
279.7147481,958.4788869189168
284.9161094,881.8527723894426
290.1094865,930.3660791095173
295.2948927,970.155574496136
300.4723414,709.0225613469077
305.6418459,200.97809943485458
310.8034194,-84.86245114603892
315.9570752,-33.78149738582316
321.1028267,40.37026024655093
326.2406869,95.17597041361336
331.370669,184.27229650151065
336.4927863,136.50839738609676
341.6070517,-2.7507835380409773
346.7134786,-23.15200487222026
351.8120798,9.334043256851032
356.9028684,21.886656309197434
361.9858576,105.50384480698818
367.0610602,196.47058817145012
372.1284892,215.0592578846513
377.1881577,315.79621084637984
382.2400784,668.2101945040868
387.2842644,1124.9294673666484
392.3207284,1282.0197769217853
397.3494833,1100.063752532093
402.370542,873.6781573931979
407.3839172,579.1127367344586
412.3896217,211.1127597296458
417.3876683,30.196693208182857
422.3780697,2.909541932588457
427.3608386,-25.472905538485158
432.3359876,27.09046630658582
437.3035295,134.77020101876494
442.2634769,120.07915739416391
447.2158423,3.1312517473017607
452.1606383,-60.924512755123374
457.0978776,-30.00164395136496
462.0275727,29.887456308525806
466.9497361,40.271765667273016
471.8643802,11.321499791816983
476.7715176,1.666907279607507
481.6711608,-0.6187130100026295
486.5633221,4.366630308564993
491.448014,1.6639769755464116
496.3252488,-33.30112820917899
501.195039,15.261937704020752
506.0573969,111.77035020363218
510.9123349,39.52354952415445
515.7598651,-50.34569071897543
520.6,81.50251465350752
525.4327518,171.6806373549096
530.2581327,36.230486067392825
535.076155,-1.0691845172640377
539.8868309,124.9746618960333
544.6901726,171.10076224778115
549.4861922,234.57247519085195
554.2749019,259.0970885163943
559.0563139,14.172460137668441
563.8304402,-79.7169759057899
568.597293,188.00494403698144
573.3568844,254.4477573551734
578.1092263,80.03451156755114
582.8543308,69.51058333169865
587.5922101,93.34046720996882
592.322876,27.031113679458972
597.0463405,35.004457941735346
601.7626157,38.06757136612309
606.4717135,-41.006143418384546
611.1736458,-53.51536470434537
615.8684246,3.870885366191402
620.5560617,22.34476154290915
625.2365691,18.697896546232933
629.9099585,72.29242547355098
634.5762419,186.12474915051402
639.2354312,243.50089461268487
643.887538,176.16563666115692
648.5325743,109.7344183982517
653.1705518,115.37353384839331
657.8014823,65.63871379075115
662.4253775,-29.66756735681897
667.0422493,-4.460449132379705
671.6521092,114.88152462481392
676.2549691,162.3402069647617
680.8508407,86.76791988381923
685.4397355,8.853987105544723
690.0216654,35.07200787726859
694.5966419,87.44522756443904
699.1646767,95.78988083660117
703.7257814,144.51773606176513
708.2799676,252.89832098535592
712.827247,266.5733061167449
717.367631,122.8210505371382
721.9011314,-12.284926564603921
726.4277595,5.250661589718142
730.9475271,145.71708365812447
735.4604456,288.95041492314937
739.9665264,322.15298586636277
744.4657813,238.04227014242403
748.9582215,102.4131428680617
753.4438587,-13.566019238734455
757.9227042,-21.2259313364807
762.3947696,92.23405082734169
766.8600662,232.92170644502
771.3186056,307.4144901746672
775.770399,298.5778856585577
780.215458,235.77438401301856
784.6537939,130.51481338669947
789.0854181,81.7687389475416
793.510342,189.62329494333125
797.9285769,307.09182109680336
802.3401342,297.5568442265916
806.7450253,243.40735838118462
811.1432614,156.94888454705162
815.5348538,25.27592954247989
819.9198139,-1.847472976346757
824.2981531,78.31318449154912
828.6698824,87.05171894142897
833.0350133,34.53713593390303
837.393557,58.34956473934995
841.7455248,153.68716490243594
846.0909278,180.63069337398767
850.4297774,114.87256682254238
854.7620848,109.80650662528666
859.0878611,107.59010479060382
863.4071176,-23.00668236335693
867.7198655,-7.313168287668702
872.026116,269.1852795872246
876.3258802,400.9745470656363
880.6191693,305.7967951515184
884.9059946,301.4909046260251
889.186367,304.64245316127096
893.4602979,97.6889662957104
897.7277982,-34.19496425943731
901.9888793,123.01183356298915
906.2435521,214.97465740791546
910.4918277,62.14812954199919
914.7337174,-29.714412770216818
918.9692321,40.21877446504918
923.1983831,136.35283339237415
927.4211813,224.01730972934462
931.6376378,211.99896279254384
935.8477637,116.21558035772519
940.0515701,82.30656141437883
944.249068,29.22746473978154
948.4402684,-50.472111622857476
952.6251825,-0.13891685156747258
956.8038212,121.53452767959713
960.9761955,171.7083199757471
965.1423166,118.44607777194832
969.3021953,39.98297385388773
973.4558427,19.824915690479003
977.6032699,17.536975308690415
981.7444877,18.847996892512626
985.8795072,37.36045314554622
990.0083394,16.03951762645061
994.1309953,-30.197950080951543
998.2474857,-49.931898722454534
1002.357822,-50.98926199826034
1006.462014,-11.165352516079617
1010.560075,98.2915824840992
1014.652013,205.44959903519648
1018.737841,179.08928147335183
1022.81757,40.51208294237202
1026.891209,5.858491041910263
1030.958771,132.31397660942525
1035.020266,179.19041364490334
1039.075705,81.25053628230762
1043.1251,97.82993109113087
1047.16846,214.36592418654075
1051.205797,160.36531624736762
1055.237121,10.136311276810346
1059.262444,-39.98699617456295
1063.281777,64.11272491088903
1067.295131,393.72809586607076
1071.302515,839.1194014683322
1075.303942,1200.5998686511352
1079.299422,1348.3974648188812
1083.288966,1095.4194023560967
1087.272585,586.357842558982
1091.250289,248.04899434734426
1095.222091,138.89960709225392
1099.187999,71.08944849815886
1103.148026,-2.289602061708351
1107.102183,-15.147015515275392
1111.050479,23.828370643618012
1114.992927,7.380394233412677
1118.929536,-21.12034009894882
1122.860318,12.305392130636276
1126.785283,21.376047237155
1130.704443,83.16278559153164
1134.617808,323.7758160534743
1138.52539,547.9515432776625
1142.427198,521.9879130078466
1146.323244,321.73852614782606
1150.213538,227.5176193596347
1154.098093,267.7908566781946
1157.976917,212.53935182239584
1161.850023,146.47267124115496
1165.717421,267.670001538119
1169.579121,402.95280256113995
1173.435135,342.55946356345646
1177.285474,202.15004373471092
1181.130148,256.3802516291339
1184.969169,486.1146876667003
1188.802547,541.8784534740482
1192.630292,347.8163903530742
1196.452416,182.48398355086377
1200.26893,119.59559998907369
1204.079844,33.52852035774056
1207.88517,-53.933577696200146
1211.684917,-15.611629602911847
1215.479098,169.9068470183197
1219.267722,257.19097126390244
1223.050801,98.48983102720857
1226.828346,2.8769852222455583
1230.600366,87.0949610390139
1234.366874,73.03803355767755
1238.12788,-21.190393176322374
1241.883395,33.71550911320617
1245.633429,162.42436242714064
1249.377994,144.02048426166436
1253.1171,19.838738173090743
1256.850759,-26.89478621051696
1260.578981,14.85815812119407
1264.301776,80.67643496890378
1268.019157,115.06160519873897
1271.731133,57.70108307420451
1275.437715,22.56622308090771
1279.138915,149.72716610531313
1282.834743,233.9714796556184
1286.52521,67.40075691340618
1290.210328,-74.01361154047142
1293.890106,41.434376763318866
1297.564555,128.27214607048182
1301.233688,33.63202577690538
1304.897514,28.18230700274433
1308.556044,114.12206748659787
1312.209289,25.773296098684945
1315.857261,-90.99155177659954
1319.499969,14.733273626273142
1323.137425,149.6575635101017
1326.769641,164.13379557086185
1330.396626,163.69810977467458
1334.018391,126.59653073408623
1337.634948,37.407388721361244
1341.246307,-20.54844859067689
1344.85248,-37.06166851883705
1348.453477,-30.006779157577785
1352.049309,-20.454948485788172
1355.639987,-5.5807928795579045
1359.225522,42.172148753515366
1362.805925,92.29353424674775
1366.381207,87.9976385757245
1369.951379,32.512763752353464
1373.516452,21.830464103708067
1377.076436,81.01812558775046
1380.631343,94.46573818488707
1384.181184,67.19369402161101
1387.725969,99.7226830332356
1391.26571,140.18619647482845
1394.800417,122.30868489596986
1398.330102,135.6295253109352
1401.854776,211.73891451645346
1405.374448,189.8798772381386
1408.889132,26.34887432545284
1412.398837,-34.03085908488674
1415.903574,120.57070185813639
1419.403355,250.66473080016385
1422.89819,280.57063615629414
1426.388091,391.00601573159076
1429.873069,462.07949851925355
1433.353134,331.03950068117194
1436.828298,231.04840739113175
1440.298571,229.59366762580015
1443.763965,97.38704586684578
1447.224491,-60.22052093210806
1450.68016,11.73081817957005
1454.130983,154.1622286364137
1457.576971,157.55420361531162
1461.018135,164.11412970047917
1464.454486,228.69580904402846
1467.886036,165.36534145107555
1471.312794,11.995202236210602
1474.734774,35.06102526319128
1478.151985,224.87914761997962
1481.564439,261.0920633911471
1484.972146,101.97064342445799
1488.375119,64.02261538041849
1491.773368,186.3780151100111
1495.166904,216.4497546922638
1498.555739,159.86901659208283
1501.939883,105.63473913864561
1505.319349,-0.8578526758366927
1508.694146,-16.391681020122657
1512.064286,103.6606194683134
1515.429781,134.57867744448237
1518.790642,138.1065131665243
1522.146879,140.12186892999782
1525.498505,3.815800866424496
1528.845529,0.018101869064963694
1532.187965,208.08960534305962
1535.525822,291.91562999643395
1538.859112,266.2247626912785
1542.187846,259.2068226966909
1545.512036,283.24217418028326
1548.831693,388.2435998866835
1552.146829,371.33643301166074
1555.457453,136.25434988612045
1558.763579,8.743259308887794
1562.065216,122.27588295277155
1565.362377,311.8488038898282
1568.655073,461.96877084038357
1571.943315,495.56068138053564
1575.227114,462.0824632060544
1578.506482,548.8259992454113
1581.781431,708.2613719502949
1585.051971,729.4317274990478
1588.318114,679.175829660567
1591.579872,657.6825763073158
1594.837255,507.10114101954645
1598.090275,295.167768884502
1601.338945,297.8953300841757
1604.583274,329.72826327460075
1607.823275,129.88390996724561
1611.058959,-37.130949524551
1614.290338,-15.067438707492279
1617.517422,34.53440178315566
1620.740224,88.75424459250146
1623.958755,82.17729273753214
1627.173027,0.2607814935068191
1630.38305,16.58853558710139
1633.588838,80.9276139066917
1636.7904,142.3646946278762
1639.987749,220.73783420255427
1643.180896,157.02083763976196
1646.369853,129.0722352578847
1649.554632,280.0931320186903
1652.735244,196.12858506927827
1655.9117,-9.768569970551361
1659.084013,101.2525708067999
1662.252193,173.04048650490074
1665.416254,8.718949065107324
1668.576205,57.9100911183779
1671.732059,279.32542828382645
1674.883828,279.2861295676311
1678.031523,115.08094527781225
1681.175157,6.331622562150169
1684.314739,15.90492549883949
1687.450284,92.32035765892155
1690.581801,65.33830622764526
1693.709304,-38.01136436125879
1696.832803,9.735487656163514
1699.952311,116.04593132313343
1703.067839,114.91984861375695
1706.179399,144.58335901738815
1709.287003,195.562386805141
1712.390663,141.5405170359292
1715.49039,127.26611847025649
1718.586197,206.24118065362327
1721.678095,178.4861695325555
1724.766096,26.826003571441895
1727.850213,-40.11841017025566
1730.930456,15.264093193425985
1734.006838,3.552786004718392
1737.079372,-62.82927266264954
1740.148067,41.49268515313037
1743.212938,219.87610937455648
1746.273996,195.99160930650882
1749.331252,63.855255151799966
1752.384718,34.96586677477704
1755.434408,84.40391694299194
1758.480332,132.7978016912859
1761.522503,102.25526055315032
1764.560933,-22.20548884271564
1767.595634,-32.24384114924238
1770.626618,134.1328708989538
1773.653896,177.93357881258495
1776.677482,37.39898410203201
1779.697388,19.190354461115206
1782.713625,175.1176311066094
1785.726205,263.74737842843683
1788.735141,191.2265340119605
1791.740445,99.40713945804782
1794.742129,150.39127657689446
1797.740206,280.964388945846
1800.734687,300.70179434993724
1803.725585,214.72395181874617
1806.712912,157.152745944816
1809.69668,120.15622514344999
1812.676902,19.349364498715588
1815.65359,-68.57179821048916
1818.626756,-31.334331836443504
1821.596413,26.621058045977872
1824.562573,7.993711897944955
1827.525247,4.159541267667265
1830.48445,27.56735178693974
1833.440192,-5.022083962252655
1836.392487,-30.84972287721459
1839.341347,9.737740142694708
1842.286784,13.444163398704411
1845.22881,-1.943569873466127
1848.167439,76.3298758126755
1851.102682,116.63507434640441
1854.034553,26.152333101067356
1856.963063,18.807429832836245
1859.888226,127.82701934726147
1862.810053,109.10665192806391
1865.728557,-2.0713749337617706
1868.643751,-21.663528307431022
1871.555648,-24.200298540259457
1874.46426,-30.393708005867545
1877.369599,31.71026519292336
1880.271679,64.80698908938805
1883.170512,75.30918092751554
1886.06611,140.0604799476757
1888.958487,142.50603758567547
1891.847655,62.37321153541403
1894.733626,23.04094827668318
1897.616414,10.779379415139086
1900.496032,-16.155424395922438
1903.372491,1.6690577250748788
1906.245805,100.21043258365376
1909.115987,205.57664440446848
1911.983049,205.78536139589238
1914.847004,146.6443433697603
1917.707866,162.55865108888722
1920.565646,189.90871764859514
1923.420359,107.15132195212422
1926.272016,-2.9049644537660413
1929.120631,-7.34715532393983
1931.966216,65.667146139281
1934.808786,123.72980820430446
1937.648351,166.62632287204872
1940.484927,175.14883753034462
1943.318525,173.69631034251984
1946.149158,343.57385368974815
1948.97684,530.739941012303
1951.801584,387.7724698583553
1954.623403,147.49285729877835
1957.44231,87.29179238428176
1960.258318,17.536221861788857
1963.071439,-35.029339861876664
1965.881688,93.55468440232931
1968.689078,174.57611067537667
1971.493621,19.247786421238192
