Raman shift cm-1,4ATP_1pM_rep3_acc1_processed_intensity
-93.47115107,581.8154610999992
-87.69374369,155.58246711152486
-81.9253076,46.1075042626797
-76.16582701,174.23733104583116
-70.41528615,143.08165049158472
-64.67366933,-45.41970961315131
-58.94096086,-67.37658124596233
-53.21714512,-1.2061578533069337
-47.50220652,-12.54768156010682
-41.79612954,92.76735830573158
-36.09889866,286.6003580778548
-30.41049843,230.8694393602705
-24.73091343,51.1047099285671
-19.0601283,51.833700164406615
-13.39812769,30.70281212956437
-7.744896327,-55.37553854561178
-2.100418946,60.65977237003881
3.535319659,142.9454377513461
9.162334658,15.473349353486931
14.78064118,-32.69662784417409
20.39025432,2.974663031164667
25.99118913,91.50492396044216
31.58346061,235.01907439343702
37.16708375,159.6627977233236
42.74207347,0.3535602793974163
48.30844468,12.179701174965881
53.86621222,-26.508215254430965
59.41539093,-92.9980481578696
64.95599558,66.15942434296461
70.48804091,252.02440494305662
76.01154164,146.66672010573959
81.52651243,6.817194305117075
87.03296792,180.58623216275961
92.5309227,284.7480369866372
98.02039134,153.02803108740784
103.5013884,224.67746529210012
108.9739282,294.95806567936665
114.4380255,179.8535660469389
119.8936944,354.905536227856
125.3409495,553.7912266249305
130.779805,215.3864299865471
136.2102753,-134.4193045131335
141.6323747,43.65552708848384
147.0461174,248.76136713469072
152.4515176,99.78541830956345
157.8485895,-37.603588356375155
163.2373472,-22.193788483572234
168.6178049,40.175929238457115
173.9899766,161.5670776542214
179.3538764,160.23712773041575
184.7095182,57.9083823361899
190.0569161,58.43225057670918
195.396084,33.081293396760884
200.7270358,-28.685835729655537
206.0497854,-9.429558692286946
211.3643466,40.00392391538924
216.6707333,106.31105881983262
221.9689593,157.86633935324653
227.2590382,206.18965176032737
232.5409839,297.1917233845511
237.8148101,340.5614202060764
243.0805303,347.0893491593058
248.3381582,431.30048828416784
253.5877075,555.3585711384341
258.8291917,625.2745885226636
264.0626244,713.8651363110212
269.288019,895.890792972694
274.5053891,990.0872212455113
279.7147481,920.529036191467
284.9161094,890.2806622776312
290.1094865,919.2353999783859
295.2948927,910.0949199069511
300.4723414,737.5056607283509
305.6418459,255.73820531343432
310.8034194,-117.3320919984868
315.9570752,-46.31933550439372
321.1028267,47.92261369870498
326.2406869,66.79540459100517
331.370669,155.5299041376234
336.4927863,67.29526679452033
341.6070517,-88.5375157256527
346.7134786,-25.440149049715735
351.8120798,20.25607110638141
356.9028684,-35.484660505937015
361.9858576,39.0888213597839
367.0610602,117.37658240813303
372.1284892,106.11515993987949
377.1881577,211.13727450992585
382.2400784,534.5568368612333
387.2842644,1012.7680068471923
392.3207284,1270.3175939958696
397.3494833,1069.5262438349712
402.370542,731.4253875035884
407.3839172,462.2173143939401
412.3896217,222.8177168633765
417.3876683,43.56623713561912
422.3780697,-25.65442297011903
427.3608386,-5.280988962353028
432.3359876,53.44481419116452
437.3035295,190.06298703164052
442.2634769,212.82329291834145
447.2158423,9.312716614087494
452.1606383,-40.654622456423496
457.0978776,16.997519338232916
462.0275727,-63.659563307198766
466.9497361,-56.505268287141405
471.8643802,29.471692218479934
476.7715176,28.168740696980336
481.6711608,4.552173259352164
486.5633221,8.58414920050731
491.448014,28.672077296950825
496.3252488,31.255474965927874
501.195039,88.30870492462314
506.0573969,160.12714468405997
510.9123349,11.985949412841913
515.7598651,-132.33556230879134
520.6,65.89015387397748
525.4327518,230.33653537531856
530.2581327,67.6136047191812
535.076155,-13.219884976021646
539.8868309,100.27696797992473
544.6901726,138.33796961382086
549.4861922,250.2840376114457
554.2749019,320.7404283327537
559.0563139,8.192047925345946
563.8304402,-103.34932784855847
568.597293,211.9389776893654
573.3568844,199.08703832143118
578.1092263,-25.845950062435996
582.8543308,40.44918043078051
587.5922101,93.60537038383507
592.322876,15.883126036232358
597.0463405,32.01651269993518
601.7626157,51.43441709512279
606.4717135,-32.36128544773068
611.1736458,-93.95087036005752
615.8684246,-19.46601706236763
620.5560617,51.64098957748341
625.2365691,4.959065787721656
629.9099585,39.47618565096806
634.5762419,172.48067013397053
639.2354312,166.01295382692385
643.887538,37.897893826082544
648.5325743,1.627760870346087
653.1705518,81.50973202951599
657.8014823,52.482990742314776
662.4253775,-85.6702985698517
667.0422493,-76.40258367594797
671.6521092,37.028939149027984
676.2549691,65.1085012936901
680.8508407,21.078967757733196
685.4397355,-41.90843374646094
690.0216654,-86.2478911788688
694.5966419,-31.351048867151174
699.1646767,66.99907981616872
703.7257814,84.90914634999325
708.2799676,99.524445493109
712.827247,138.37183940569827
717.367631,67.03697635560559
721.9011314,-39.45417899281869
726.4277595,-12.739555361363248
730.9475271,57.226040292916636
735.4604456,81.71721855106682
739.9665264,126.59663895484803
744.4657813,111.35499846071984
748.9582215,-11.274337517802095
753.4438587,-49.98569553662897
757.9227042,-2.252828816389064
762.3947696,17.371959933887943
766.8600662,162.68099038799892
771.3186056,323.29591753788964
775.770399,236.8645155606074
780.215458,134.3320031078853
784.6537939,43.19561178513863
789.0854181,-93.48817807786095
793.510342,88.4354689868411
797.9285769,338.76301781755666
802.3401342,188.8111347415758
806.7450253,45.49662931646789
811.1432614,165.69966198454145
815.5348538,158.68650564759443
819.9198139,-6.747912102791684
824.2981531,25.62722671794442
828.6698824,182.67468773819436
833.0350133,112.7205034327428
837.393557,-35.93179056181451
841.7455248,25.572905699802934
846.0909278,83.32998711799512
850.4297774,32.472912866661176
854.7620848,47.631687005281705
859.0878611,8.012077215594815
863.4071176,-95.92926591702701
867.7198655,30.26331946994008
872.026116,273.20362109218945
876.3258802,287.2816289080681
880.6191693,224.56843453803486
884.9059946,345.6353548443906
889.186367,380.5073295713289
893.4602979,123.67106712986784
897.7277982,-25.734741200538934
901.9888793,195.69300269651896
906.2435521,373.49229519804805
910.4918277,172.20744299578018
914.7337174,-50.420219121251876
918.9692321,15.650583400848205
923.1983831,169.7509530359125
927.4211813,238.91757270586845
931.6376378,219.36119480866665
935.8477637,192.3219007805048
940.0515701,175.19443371201726
944.249068,38.183738509946785
948.4402684,-65.31854055456
952.6251825,33.450124051622694
956.8038212,154.71898233051076
960.9761955,175.98498960710697
965.1423166,114.63408943746052
969.3021953,55.14574707126986
973.4558427,22.168912659606768
977.6032699,-14.412708208959913
981.7444877,26.932981848577562
985.8795072,44.27895616854087
990.0083394,-30.240213103079792
994.1309953,-36.32119051946884
998.2474857,-42.44523774396187
1002.357822,-61.01398241461668
1006.462014,-0.1514773224588737
1010.560075,8.494553436809394
1014.652013,31.43167916789365
1018.737841,128.08463081113968
1022.81757,63.45917269079612
1026.891209,-53.56451364199732
1030.958771,48.651457564121955
1035.020266,134.03409612497728
1039.075705,9.074958920514037
1043.1251,-26.115013422041006
1047.16846,56.05019278254875
1051.205797,20.212033905753593
1055.237121,-35.53288850083885
1059.262444,-76.17754216284152
1063.281777,-21.505434452103685
1067.295131,384.3183934390514
1071.302515,870.8405203071727
1075.303942,1159.1446172567812
1079.299422,1287.2285817873367
1083.288966,1066.2622619029205
1087.272585,605.5509530552239
1091.250289,247.27692961280653
1095.222091,45.7864220194912
1099.187999,27.254347956608747
1103.148026,52.21610789439896
1107.102183,9.288930313715671
1111.050479,-7.207763095599843
1114.992927,-44.079358981829685
1118.929536,-25.921664551830624
1122.860318,15.05230115830442
1126.785283,-93.37942751083325
1130.704443,-12.585140648349793
1134.617808,312.46678994610704
1138.52539,449.08349396820256
1142.427198,389.537595993511
1146.323244,245.13976112052012
1150.213538,122.33390242125225
1154.098093,99.26281709161462
1157.976917,42.773466180572626
1161.850023,57.51814086214904
1165.717421,172.76976640996008
1169.579121,188.28074550951004
1173.435135,115.79445244360927
1177.285474,60.70920452382714
1181.130148,123.49062061710254
1184.969169,254.2692343175077
1188.802547,278.1202692548485
1192.630292,209.55440640727844
1196.452416,137.8310545840807
1200.26893,26.870113479556366
1204.079844,-78.64345648331934
1207.88517,-76.74771042480239
1211.684917,-36.5116092319655
1215.479098,98.99778419254139
1219.267722,229.98480575557963
1223.050801,66.16346535521166
1226.828346,-41.9468251380512
1230.600366,131.3442814697019
1234.366874,171.51885380903357
1238.12788,31.549596369535973
1241.883395,42.266337616680396
1245.633429,198.83023033344514
1249.377994,145.8099090166946
1253.1171,-46.21527694407395
1256.850759,-15.705294868056471
1260.578981,45.24208734664942
1264.301776,-2.776578382292495
1268.019157,25.87491789385585
1271.731133,14.973457825946024
1275.437715,-19.576129364287674
1279.138915,148.82276378667999
1282.834743,262.02353232606436
1286.52521,49.51713465990464
1290.210328,-104.59432128902812
1293.890106,54.250088918051205
1297.564555,121.79180727373455
1301.233688,7.5584124523841325
1304.897514,118.04097973226743
1308.556044,287.5717070884855
1312.209289,110.08977109219512
1315.857261,-53.569808260158624
1319.499969,123.72518183002725
1323.137425,261.1131176366227
1326.769641,253.35300836175784
1330.396626,272.2867899947736
1334.018391,171.75926996570436
1337.634948,13.817648792437584
1341.246307,3.557898214326997
1344.85248,49.87695987606972
1348.453477,-1.7872687389818758
1352.049309,-94.99809940527325
1355.639987,-13.770316779729237
1359.225522,108.82422618654256
1362.805925,41.76209620731451
1366.381207,-5.97999137582574
1369.951379,13.192659972435692
1373.516452,-13.882397392781563
1377.076436,6.420038455042075
1380.631343,14.419041181508625
1384.181184,8.22760409778688
1387.725969,65.65036619063454
1391.26571,41.855282875444495
1394.800417,3.297640442483555
1398.330102,93.70900767055161
1401.854776,170.12136219463497
1405.374448,131.59422892403404
1408.889132,-33.19227981180359
1412.398837,-141.80437778586793
1415.903574,35.37865876326461
1419.403355,179.45828517867295
1422.89819,117.10773207995648
1426.388091,239.31454632246357
1429.873069,412.2522965331083
1433.353134,275.1144196367957
1436.828298,124.82278435903861
1440.298571,130.73026634599915
1443.763965,36.32054482351991
1447.224491,-77.07321491778981
1450.68016,-3.7825650430393694
1454.130983,66.65107199365322
1457.576971,53.075846202634466
1461.018135,123.86693184842758
1464.454486,160.67793261798317
1467.886036,27.347593455640535
1471.312794,-76.47631959686709
1474.734774,30.03341850281754
1478.151985,211.54123666155164
1481.564439,194.50731662634286
1484.972146,-1.3604567256612938
1488.375119,-46.38015821866087
1491.773368,145.54430949328247
1495.166904,220.04167493889202
1498.555739,90.49226813765407
1501.939883,13.811521141335351
1505.319349,-22.265691333565975
1508.694146,-8.127152757758935
1512.064286,42.02580574520201
1515.429781,-16.013761938670484
1518.790642,47.66420853099619
1522.146879,149.9878339616185
1525.498505,-7.97131873615016
1528.845529,-24.248628770200305
1532.187965,136.04048469337275
1535.525822,146.40957829568998
1538.859112,227.31625986134122
1542.187846,255.67212370320033
1545.512036,165.0168599660622
1548.831693,319.0465476247257
1552.146829,347.4653442233089
1555.457453,47.98262072459491
1558.763579,-44.766054075502105
1562.065216,115.36255512777231
1565.362377,316.837766954048
1568.655073,493.80421738538956
1571.943315,457.0718761079323
1575.227114,361.4739433065242
1578.506482,561.2939998252123
1581.781431,768.8276938736356
1585.051971,667.7839949112756
1588.318114,627.661832744594
1591.579872,732.3124931059833
1594.837255,590.4888118084605
1598.090275,340.1707699493593
1601.338945,322.5842275419246
1604.583274,276.26323500065894
1607.823275,18.28339247474459
1611.058959,-48.934210434989524
1614.290338,57.2353845324947
1617.517422,-14.15097472926616
1620.740224,-25.844661606421063
1623.958755,98.53132359259469
1627.173027,41.34794178606164
1630.38305,-60.426536538508145
1633.588838,-2.2021267978655077
1636.7904,116.76095113562894
1639.987749,182.89843985921428
1643.180896,97.19746490863065
1646.369853,51.50088049242004
1649.554632,164.7004213820703
1652.735244,59.13389873911982
1655.9117,-104.93298236208598
1659.084013,104.30090864507913
1662.252193,231.94298461873038
1665.416254,28.486391782026303
1668.576205,3.0390681865845792
1671.732059,158.87376274567987
1674.883828,128.38770862993607
1678.031523,28.632460019559133
1681.175157,6.435156568153751
1684.314739,-41.470256246559
1687.450284,-33.3123592993041
1690.581801,39.2540099501844
1693.709304,7.759839521070061
1696.832803,-16.833445229286674
1699.952311,7.539355606434931
1703.067839,-6.001896413948376
1706.179399,99.19116336986201
1709.287003,188.88025786246226
1712.390663,42.19171371532276
1715.49039,-32.01971162436799
1718.586197,103.596856858136
1721.678095,172.03260166360798
1724.766096,50.78880106593847
1727.850213,-76.34515247158629
1730.930456,-11.403376293082054
1734.006838,43.447976800292025
1737.079372,-32.18780271484255
1740.148067,97.38097734053231
1743.212938,316.6143026914923
1746.273996,211.70242665422995
1749.331252,51.30779840075758
1752.384718,125.2219879084619
1755.434408,196.1450530248505
1758.480332,199.01516255619237
1761.522503,158.04597283249973
1764.560933,-26.874109347956583
1767.595634,-69.24205247579062
1770.626618,160.04915713026116
1773.653896,185.57279929604803
1776.677482,9.760638768642067
1779.697388,48.75925466412162
1782.713625,187.1558227262842
1785.726205,220.93907594328093
1788.735141,146.55278591670643
1791.740445,-2.255402794358016
1794.742129,13.846711319871012
1797.740206,204.80480887999525
1800.734687,254.80172119358113
1803.725585,146.5908959862105
1806.712912,62.46728004001946
1809.69668,13.694175889121597
1812.676902,-49.202227372939106
1815.65359,-58.717115452997454
1818.626756,13.36953962108642
1821.596413,10.730595888005872
1824.562573,-35.853398374990405
1827.525247,53.64741165827881
1830.48445,100.2138764061649
1833.440192,-19.47468957817028
1836.392487,-3.873974886264488
1839.341347,150.25547150678108
1842.286784,111.41562716361172
1845.22881,-12.668622254695244
1848.167439,44.64913559185523
1851.102682,89.32061368410997
1854.034553,-30.033578997568732
1856.963063,13.293586635668586
1859.888226,235.21339702978446
1862.810053,210.12569851928686
1865.728557,56.639996097828686
1868.643751,21.103755236697193
1871.555648,-74.54602882607685
1874.46426,-96.45726998538831
1877.369599,33.84447840511584
1880.271679,8.54596486352365
1883.170512,-24.007598695363047
1886.06611,90.25765952222353
1888.958487,63.690726840948464
1891.847655,-1.617891175911641
1894.733626,51.795089043102664
1897.616414,-28.522032774709242
1900.496032,-106.50324350633583
1903.372491,40.19152163916827
1906.245805,118.16669957761974
1909.115987,62.30457862545471
1911.983049,45.419175190260034
1914.847004,8.809152489524731
1917.707866,-6.051488577740001
1920.565646,27.694752868152186
1923.420359,-24.49983808804495
1926.272016,-72.00855584342413
1929.120631,-12.02426823451322
1931.966216,5.048126837287787
1934.808786,-30.860002454577668
1937.648351,3.7361203052514718
1940.484927,32.238923126747125
1943.318525,96.07348436630517
1946.149158,361.4815889422601
1948.97684,506.40752676948034
1951.801584,261.1589025853346
1954.623403,60.81928353435281
1957.44231,64.63685074816725
1960.258318,-53.089560165430754
1963.071439,-140.74871973583262
1965.881688,12.4706217231819
1968.689078,131.49629349761818
1971.493621,64.04398689147756
