Raman shift cm-1,4ATP_1nM_rep3_acc2_processed_intensity
-93.47115107,589.1801831383536
-87.69374369,273.22772279038554
-81.9253076,71.33891726740725
-76.16582701,0.9644663505371085
-70.41528615,-3.361210085381906
-64.67366933,-1.1251239597907343
-58.94096086,5.88447247795029
-53.21714512,47.90275174187292
-47.50220652,134.62039790273846
-41.79612954,233.69761976394088
-36.09889866,294.5657934795156
-30.41049843,291.60675361695405
-24.73091343,243.55340300968984
-19.0601283,191.0243682859682
-13.39812769,162.06734494098492
-7.744896327,160.22390579955615
-2.100418946,171.34297526465605
3.535319659,175.74599322876804
9.162334658,166.17824384434732
14.78064118,157.70710309708429
20.39025432,170.66800512506458
25.99118913,203.07913085434095
31.58346061,226.35095839518567
37.16708375,210.76500809626677
42.74207347,153.2897615520256
48.30844468,78.12867372745063
53.86621222,15.02044351250963
59.41539093,-17.394042195819964
64.95599558,-15.748177158295363
70.48804091,10.923826632097615
76.01154164,51.07586270588411
81.52651243,96.55497776914954
87.03296792,132.622631100075
92.5309227,136.6337702798017
98.02039134,105.33073105808975
103.5013884,72.31473382304776
108.9739282,81.3228495062944
114.4380255,140.99826359097833
119.8936944,207.33758583499255
125.3409495,218.95258993223612
130.779805,160.0575406570302
136.2102753,76.75781579630558
141.6323747,21.124117905833472
147.0461174,0.2913200994008318
152.4515176,-6.1966195380577425
157.8485895,-4.40200662856883
163.2373472,14.908221863659469
168.6178049,48.86364221408495
173.9899766,79.16457207253278
179.3538764,95.82472221213331
184.7095182,105.17204878339739
190.0569161,111.22590168889633
195.396084,104.92570681842012
200.7270358,77.97513446379433
206.0497854,37.377499779816944
211.3643466,1.3620835687232322
216.6707333,-15.369856506404142
221.9689593,-11.33144849432139
227.2590382,3.2376544115967256
232.5409839,14.179690621709394
237.8148101,14.186016241989165
243.0805303,12.341410142135175
248.3381582,30.37538735825632
253.5877075,83.3435305219046
258.8291917,163.91920791228227
264.0626244,245.8111115527673
269.288019,300.3980576944326
274.5053891,312.98068129547846
279.7147481,289.44975668217455
284.9161094,245.5101467688247
290.1094865,186.1675802126602
295.2948927,105.72777316509587
300.4723414,16.690990297495816
305.6418459,-34.93636315421364
310.8034194,-4.93304351043966
315.9570752,97.4169437411721
321.1028267,207.12840197699302
326.2406869,260.5809021660007
331.370669,247.06102132175994
336.4927863,204.9459247138861
341.6070517,179.93907004459504
346.7134786,188.48456182598576
351.8120798,210.71588684487983
356.9028684,214.25905906462174
361.9858576,188.6349686308788
367.0610602,163.65365279064332
372.1284892,202.083458610203
377.1881577,365.7021193860593
382.2400784,659.722613509726
387.2842644,995.315788877466
392.3207284,1225.7575492168476
397.3494833,1244.1083043329836
402.370542,1052.021862109603
407.3839172,742.3193794822689
412.3896217,433.6413326166216
417.3876683,217.21218250486157
422.3780697,131.04901216594703
427.3608386,154.22084486202772
432.3359876,220.19572997034783
437.3035295,251.27157510921222
442.2634769,205.91898756662937
447.2158423,107.08824062605427
452.1606383,17.49819527176376
457.0978776,-18.051964954397107
462.0275727,-1.9234028529722806
466.9497361,36.937819529861414
471.8643802,74.63414338254314
476.7715176,102.3521418055686
481.6711608,118.75851117127092
486.5633221,123.33316149904697
491.448014,116.42737880258984
496.3252488,99.4227146955507
501.195039,72.0557765337372
506.0573969,36.560820625416504
510.9123349,8.708144584452796
515.7598651,8.33967316705052
520.6,27.079038849753857
525.4327518,28.90509518884845
530.2581327,1.5521198652903365
535.076155,-17.47917809048371
539.8868309,11.97799023024455
544.6901726,77.65376373730965
549.4861922,124.81145154625736
554.2749019,118.46674455566101
559.0563139,83.39372679889223
563.8304402,68.93256832474762
568.597293,82.80034959189129
573.3568844,89.63803487504097
578.1092263,67.81412893236437
582.8543308,32.201190788505585
587.5922101,6.223873951754266
592.322876,-2.076664580206744
597.0463405,-0.6585031362217899
601.7626157,-1.7896940849538394
606.4717135,-7.758166548376145
611.1736458,-9.58085036468999
615.8684246,0.4524097745283577
620.5560617,23.56560412000357
625.2365691,58.7633338447174
629.9099585,100.22352558677248
634.5762419,132.52257191243172
639.2354312,139.49278085623246
643.887538,117.86474187294606
648.5325743,78.24656462407722
653.1705518,36.78746067753152
657.8014823,9.940228657462827
662.4253775,11.33618380962552
667.0422493,41.695983464891285
671.6521092,79.376311766427
676.2549691,91.0593918467459
680.8508407,60.539793996307296
685.4397355,8.18639617005975
690.0216654,-22.376818903909957
694.5966419,-2.2292667235587267
699.1646767,56.727772870830975
703.7257814,111.23458099430695
708.2799676,121.07789909468472
712.827247,78.97993715016938
717.367631,16.33915671050592
721.9011314,-17.941603974788272
726.4277595,6.870447532464203
730.9475271,78.5129984607271
735.4604456,148.56339787724423
739.9665264,169.61890392688673
744.4657813,130.41354827629056
748.9582215,59.39536722607947
753.4438587,1.167650723345842
757.9227042,-10.395366609696012
762.3947696,31.248151187127668
766.8600662,102.38535047565547
771.3186056,161.58798362103894
775.770399,174.63686843270494
780.215458,137.59081745689886
784.6537939,81.88934607351332
789.0854181,53.67726817370646
793.510342,75.46521232013467
797.9285769,122.58435915931118
802.3401342,145.13051619335337
806.7450253,116.61011554568219
811.1432614,57.79767325184111
815.5348538,14.74097006043553
819.9198139,15.241347264484148
824.2981531,44.85462869362781
828.6698824,66.74628127415002
833.0350133,62.42901318212458
837.393557,44.775378606838615
841.7455248,33.02680615012339
846.0909278,26.35972665175145
850.4297774,8.568180621804949
854.7620848,-21.94338081967671
859.0878611,-33.26309902825348
863.4071176,17.357445218419997
867.7198655,134.4735717259603
872.026116,265.90013560372824
876.3258802,344.3809059781961
880.6191693,341.5112427136888
884.9059946,275.0097877801858
889.186367,182.3795930091127
893.4602979,105.5455092000584
897.7277982,77.24271278365045
901.9888793,91.04815340742401
906.2435521,98.59720005220989
910.4918277,63.79457795957852
914.7337174,10.030650992213943
918.9692321,-7.6192008834696825
923.1983831,32.79716475880673
927.4211813,100.54951153807475
931.6376378,146.01968392686092
935.8477637,138.93273498534938
940.0515701,83.25706366887684
944.249068,14.18587193651604
948.4402684,-20.00519984757138
952.6251825,7.709637495073967
956.8038212,77.58204463780054
960.9761955,136.89237413879957
965.1423166,144.7292559800212
969.3021953,104.60015893024897
973.4558427,57.54283128040724
977.6032699,42.69597792591881
981.7444877,60.00665962230057
985.8795072,73.8011437319495
990.0083394,55.68943115533168
994.1309953,16.590204779582265
998.2474857,-7.56329077663351
1002.357822,6.603540463722778
1006.462014,51.43802611323201
1010.560075,99.4610734586603
1014.652013,126.61543997929459
1018.737841,125.96537064503406
1022.81757,108.01030888607367
1026.891209,92.53485273407905
1030.958771,95.51052765076957
1035.020266,119.76642172569889
1039.075705,155.0741697912539
1043.1251,180.03839162613878
1047.16846,165.8753030681082
1051.205797,97.6526797679538
1055.237121,5.998340631225943
1059.262444,-29.481979310469114
1063.281777,75.73336441082202
1067.295131,347.23686625993
1071.302515,714.2235505453959
1075.303942,1032.5322949318556
1079.299422,1161.3374823734348
1083.288966,1047.865046535912
1087.272585,759.9831762084619
1091.250289,436.79864768038783
1095.222091,197.16646208940915
1099.187999,80.70819287577386
1103.148026,54.840424200280424
1107.102183,62.125072859313875
1111.050479,60.92913988427831
1114.992927,38.34553413350614
1118.929536,8.883877593104486
1122.860318,7.196365468692136
1126.785283,65.03059205169674
1130.704443,179.50109948008577
1134.617808,304.4930301030191
1138.52539,382.6522385519564
1142.427198,390.0476247436791
1146.323244,347.75848082651265
1150.213538,294.32699873596823
1154.098093,256.36880826250786
1157.976917,243.81888781558538
1161.850023,256.50969584968595
1165.717421,284.10637039523095
1169.579121,309.9678423716251
1173.435135,328.78319942093185
1177.285474,354.26993440056145
1181.130148,395.03373411600626
1184.969169,426.4285205981229
1188.802547,403.10782765580257
1192.630292,304.18580216948294
1196.452416,159.51736928317865
1200.26893,31.8217449722777
1204.079844,-22.62297053194048
1207.88517,15.899994170502325
1211.684917,120.73035529751525
1215.479098,230.11704383088886
1219.267722,282.93795333991943
1223.050801,262.2237817559546
1226.828346,203.78334811415613
1230.600366,155.7089938344016
1234.366874,140.56423027601352
1238.12788,156.33910257387856
1241.883395,187.2489202650847
1245.633429,206.82092556926415
1249.377994,194.8722610753249
1253.1171,158.97647890770816
1256.850759,121.0714898114565
1260.578981,85.22056827278956
1264.301776,41.809077862682436
1268.019157,0.6113506220366318
1271.731133,-6.550483523823043
1275.437715,33.11195309284362
1279.138915,82.78207298126344
1282.834743,87.71363313792895
1286.52521,41.338907519931176
1290.210328,-2.179970091900932
1293.890106,8.704042773833418
1297.564555,67.41291849335035
1301.233688,124.06067557391904
1304.897514,134.47855845776476
1308.556044,91.39115162092425
1312.209289,30.32800568081405
1315.857261,7.267254582806687
1319.499969,51.042326953972456
1323.137425,134.4293160053135
1326.769641,200.00068145981535
1330.396626,208.54047332938796
1334.018391,159.7550687011471
1337.634948,82.03798411889846
1341.246307,13.203064342873326
1344.85248,-17.285069110043224
1348.453477,1.128246367982456
1352.049309,61.08623039589366
1355.639987,139.3587379617248
1359.225522,199.36182113334573
1362.805925,211.95429028098627
1366.381207,184.46251884962805
1369.951379,155.3280239746129
1373.516452,153.06081112092693
1377.076436,170.11006074177385
1380.631343,180.19425715655305
1384.181184,172.0243020404386
1387.725969,160.79586818223916
1391.26571,171.27672288452956
1394.800417,210.07917023769477
1398.330102,248.86907679915396
1401.854776,239.8263911927972
1405.374448,161.71550905812092
1408.889132,53.22220437740202
1412.398837,-11.846859446564423
1415.903574,10.195749629767562
1419.403355,98.92363279490418
1422.89819,198.1709169439545
1426.388091,261.1454588624987
1429.873069,267.87017577910683
1433.353134,223.60002325543758
1436.828298,150.00436832048388
1440.298571,70.11465452671816
1443.763965,4.532814090311106
1447.224491,-21.57113366888703
1450.68016,8.022781793538798
1454.130983,74.41482354045792
1457.576971,130.51225066220658
1461.018135,143.01337121320097
1464.454486,120.23411712221193
1467.886036,99.84207373144898
1471.312794,111.46045484652709
1474.734774,144.839601011646
1478.151985,156.64657288447992
1481.564439,121.65684748932274
1484.972146,72.0685598432093
1488.375119,62.9050470282242
1491.773368,100.27348397955063
1495.166904,131.7026860066618
1498.555739,111.96284170410166
1501.939883,54.259834190555246
1505.319349,9.249778940057492
1508.694146,11.406367624038499
1512.064286,53.07631673066031
1515.429781,97.9878721043008
1518.790642,108.93972264603998
1522.146879,71.64665401322914
1525.498505,10.36272621835733
1528.845529,-24.104383253979805
1532.187965,2.1766036007330563
1535.525822,79.95809658968149
1538.859112,175.5909947520605
1542.187846,259.4435414447286
1545.512036,309.55828273598763
1548.831693,306.51189963821673
1552.146829,249.29433237123638
1555.457453,180.52110098784016
1558.763579,169.6328245876856
1562.065216,247.02187327006507
1565.362377,366.0529944200793
1568.655073,451.9188845442963
1571.943315,481.78245749906284
1575.227114,497.02037829834677
1578.506482,541.2971118976087
1581.781431,610.3016628756865
1585.051971,664.6434623345198
1588.318114,669.1000480459168
1591.579872,613.1944216267458
1594.837255,513.6988575412134
1598.090275,403.91946906524936
1601.338945,306.64601349929603
1604.583274,217.10077102243883
1607.823275,123.82185435752754
1611.058959,37.923666150703845
1614.290338,-14.48791344751347
1617.517422,-22.881975350305055
1620.740224,-4.061033518224512
1623.958755,13.325989768053354
1627.173027,13.540697901487952
1630.38305,6.1837933342618285
1633.588838,13.806315821643324
1636.7904,45.64599440550228
1639.987749,85.23209287159403
1643.180896,107.00565507730747
1646.369853,99.31394389094598
1649.554632,66.84860526734187
1652.735244,24.83791143060023
1655.9117,-3.21229247669865
1659.084013,-0.0876782452174254
1662.252193,31.469879138804025
1665.416254,78.99005218495083
1668.576205,128.45984305087302
1671.732059,157.75010704569786
1674.883828,148.19753721009778
1678.031523,107.89156496095627
1681.175157,64.35734879203515
1684.314739,34.72911774355784
1687.450284,15.467995605387388
1690.581801,-1.3395917879214032
1693.709304,-11.426212008189118
1696.832803,-1.4027895423747658
1699.952311,33.12740318811858
1703.067839,77.34252029438605
1706.179399,108.2874866216853
1709.287003,115.27632208087786
1712.390663,107.22650176752646
1715.49039,97.97002782165359
1718.586197,88.1088035487981
1721.678095,68.50823873957236
1724.766096,37.62616117601346
1727.850213,5.465582873611865
1730.930456,-15.04171903837856
1734.006838,-11.28843277137451
1737.079372,25.311267624463873
1740.148067,84.19781111277102
1743.212938,132.57684755943035
1746.273996,144.01864075420417
1749.331252,125.78463608226315
1752.384718,105.16529987216879
1755.434408,93.58616576744161
1758.480332,77.51375709594345
1761.522503,45.582138881640425
1764.560933,11.821156000397123
1767.595634,0.5006577472558487
1770.626618,15.127308790799018
1773.653896,41.83847605167088
1776.677482,78.88876289993895
1779.697388,134.8361228881107
1782.713625,194.75770826937776
1785.726205,221.36493184832008
1788.735141,202.59186284368025
1791.740445,174.88922469954207
1794.742129,183.1396747177007
1797.740206,227.54172520210915
1800.734687,263.3324805906129
1803.725585,248.79453093745377
1806.712912,181.34694427273718
1809.69668,90.50372055378797
1812.676902,12.408852884025428
1815.65359,-27.40135212081521
1818.626756,-24.22006431603554
1821.596413,2.188999163599348
1824.562573,20.460320114688272
1827.525247,14.099900594462778
1830.48445,-4.7061814334338194
1833.440192,-12.297477247520074
1836.392487,-1.9611328726145096
1839.341347,11.44972674330576
1842.286784,15.048873030147671
1845.22881,15.034650523411887
1848.167439,25.464409743941726
1851.102682,51.734297031952444
1854.034553,91.62238356066007
1856.963063,136.95032453232466
1859.888226,165.76976366969646
1862.810053,150.86326646715676
1865.728557,89.23882586259063
1868.643751,15.226189484569037
1871.555648,-22.970436196503094
1874.46426,-3.3751406047860897
1877.369599,50.62545152072784
1880.271679,95.69252652367223
1883.170512,112.17537675457766
1886.06611,111.8425742617909
1888.958487,110.44630315434824
1891.847655,108.14322063558419
1894.733626,95.95558325612146
1897.616414,75.37054159781434
1900.496032,64.9658366524785
1903.372491,80.14618817528505
1906.245805,112.3385779195057
1909.115987,139.13009804738056
1911.983049,148.84653914438604
1914.847004,143.49923074350818
1917.707866,123.33540267895361
1920.565646,84.93865543836283
1923.420359,36.54911125635947
1926.272016,-0.22943892420602197
1929.120631,-11.155513965996661
1931.966216,-2.1619802296729063
1934.808786,14.709646203742786
1937.648351,43.397353355212815
1940.484927,105.215835243052
1943.318525,210.50262072503602
1946.149158,325.90047443742264
1948.97684,384.815435394075
1951.801584,345.22235033558036
1954.623403,229.58304220798132
1957.44231,101.14095087064092
1960.258318,13.061960689252778
1963.071439,-18.47162474501409
1965.881688,-9.583362858460148
1968.689078,13.941164940135561
1971.493621,37.751972100318966
