Raman shift cm-1,4ATP_10uM_rep3_acc4_processed_intensity
-93.47115107,602.5832081867964
-87.69374369,174.4955941540141
-81.9253076,-5.617811830040964
-76.16582701,122.46905889353549
-70.41528615,181.39848024256173
-64.67366933,37.96741945858995
-58.94096086,-46.34204000527993
-53.21714512,-8.11022436883394
-47.50220652,99.28598869851322
-41.79612954,219.13470416224507
-36.09889866,287.6336138234257
-30.41049843,265.61783835742006
-24.73091343,142.45341270987385
-19.0601283,91.9110949791349
-13.39812769,57.31102326564424
-7.744896327,-75.8809548783656
-2.100418946,-16.727115569562333
3.535319659,95.20975430086028
9.162334658,41.46648608188493
14.78064118,35.07631950555329
20.39025432,8.822386758382564
25.99118913,53.07560100670812
31.58346061,241.18353403080673
37.16708375,230.6054405337183
42.74207347,68.4913043011323
48.30844468,0.6942439822716935
53.86621222,13.194083972220454
59.41539093,-42.63055336134562
64.95599558,-71.86473026974535
70.48804091,138.6210253699152
76.01154164,170.25438095344617
81.52651243,-28.477516852039415
87.03296792,155.1486285378876
92.5309227,324.09698274169733
98.02039134,85.33010768030152
103.5013884,38.494671909822856
108.9739282,110.84085381987416
114.4380255,45.168157448148975
119.8936944,248.45672684955667
125.3409495,434.52226592946886
130.779805,164.396252908976
136.2102753,-39.11004218484496
141.6323747,112.01510734921465
147.0461174,176.9652575550784
152.4515176,18.175015944349575
157.8485895,-68.51557099179934
163.2373472,-48.23453048339933
168.6178049,10.46598142969907
173.9899766,118.62901011802396
179.3538764,98.5764378273131
184.7095182,34.54000442105803
190.0569161,118.1559785861991
195.396084,136.7842365301059
200.7270358,39.83997995689913
206.0497854,0.11685491078912946
211.3643466,32.90934647060442
216.6707333,30.022396535491794
221.9689593,-35.8080864066213
227.2590382,33.583171073998415
232.5409839,148.21812590384988
237.8148101,123.5855323214931
243.0805303,190.11097105365963
248.3381582,320.5461576849468
253.5877075,385.700782901033
258.8291917,477.51422455665613
264.0626244,537.1092547466934
269.288019,672.4168671189676
274.5053891,830.369494473008
279.7147481,729.2117444180884
284.9161094,643.946311259012
290.1094865,735.3635377649091
295.2948927,738.8205712614453
300.4723414,550.3704714636896
305.6418459,151.49148679011284
310.8034194,-61.76506052585657
315.9570752,188.3751781878837
321.1028267,391.618040066637
326.2406869,458.8478077874928
331.370669,631.4458512221283
336.4927863,703.4706583835823
341.6070517,773.6263937740443
346.7134786,1027.7616452577618
351.8120798,1187.4713120782396
356.9028684,1213.334895207271
361.9858576,1278.4294401660968
367.0610602,1377.2666600301616
372.1284892,1728.4447223066618
377.1881577,2751.7493168117453
382.2400784,5235.410334717209
387.2842644,9090.815962490302
392.3207284,11527.651648005069
397.3494833,10633.715033982106
402.370542,7911.232949243067
407.3839172,5074.556188592603
412.3896217,2956.2840107063384
417.3876683,1750.5315247095696
422.3780697,971.976953024187
427.3608386,566.4320799784274
432.3359876,508.88408515768356
437.3035295,517.5900018171361
442.2634769,434.6707575908043
447.2158423,200.53666325690176
452.1606383,50.012747665669785
457.0978776,10.97058977832776
462.0275727,-25.770149903204043
466.9497361,-16.700569156498723
471.8643802,10.775343097722844
476.7715176,128.8737944537298
481.6711608,236.21082175845459
486.5633221,330.15162045051807
491.448014,447.27169425478024
496.3252488,314.83376954030336
501.195039,273.7266455749008
506.0573969,477.05954732849676
510.9123349,355.19407994550164
515.7598651,163.57854320210703
520.6,337.3296292888842
525.4327518,453.223795260326
530.2581327,285.32337431986286
535.076155,225.32410416202083
539.8868309,386.23107922068755
544.6901726,461.69743959639857
549.4861922,541.953131917171
554.2749019,552.3288444896284
559.0563139,130.88379826009628
563.8304402,-21.155954017968725
568.597293,403.8860817112979
573.3568844,374.76982223683336
578.1092263,31.253508739504895
582.8543308,167.36288084705055
587.5922101,238.44745458629757
592.322876,-32.74176379052659
597.0463405,-41.50528488859284
601.7626157,131.49626774927688
606.4717135,87.63103986233469
611.1736458,-17.15524028521395
615.8684246,11.817887423877046
620.5560617,46.22769368490151
625.2365691,45.27618624806139
629.9099585,235.20138092825522
634.5762419,519.0642944246537
639.2354312,606.8772274381336
643.887538,546.1431626591287
648.5325743,367.4046845907077
653.1705518,137.8958636490597
657.8014823,3.258408169206278
662.4253775,-59.183505485409896
667.0422493,-8.24702954952157
671.6521092,68.14620208342937
676.2549691,-9.784837322370382
680.8508407,-42.5515900743881
685.4397355,56.036949068981066
690.0216654,12.01882177808617
694.5966419,8.35345770065404
699.1646767,324.40232898466866
703.7257814,583.9481818803401
708.2799676,547.3784055978681
712.827247,397.51860747528536
717.367631,256.65372083107593
721.9011314,151.1319736495324
726.4277595,43.64358325384939
730.9475271,7.7850067356208
735.4604456,94.5041812595324
739.9665264,140.58710828034893
744.4657813,137.21276619693663
748.9582215,115.23066252310208
753.4438587,3.873329706380005
757.9227042,-65.79064250689237
762.3947696,21.22106230500161
766.8600662,227.65720009036642
771.3186056,374.45168751887013
775.770399,368.89511747231575
780.215458,385.48701724382374
784.6537939,319.65697445985813
789.0854181,274.3600978162463
793.510342,674.6834217225446
797.9285769,1153.159347694307
802.3401342,1254.6696861465534
806.7450253,1178.637751532435
811.1432614,1059.5761243965726
815.5348538,921.6393630793567
819.9198139,830.0257968485212
824.2981531,770.3854361381665
828.6698824,658.0860969828212
833.0350133,391.22418772252183
837.393557,199.81838565684515
841.7455248,248.7275696156765
846.0909278,212.38631924483354
850.4297774,82.08469371341435
854.7620848,37.61815721528786
859.0878611,-47.915407918871274
863.4071176,-86.99732083790207
867.7198655,50.722673745067546
872.026116,251.05432165176188
876.3258802,356.6637921631406
880.6191693,301.8625368319177
884.9059946,285.9678991270355
889.186367,321.49754394905676
893.4602979,177.0474518363936
897.7277982,48.05875827950007
901.9888793,216.75292630115615
906.2435521,419.8470948237357
910.4918277,360.9684274316197
914.7337174,360.8449309560005
918.9692321,570.222189872893
923.1983831,681.5948637960614
927.4211813,794.3248775825781
931.6376378,860.0625355778027
935.8477637,772.7359142403023
940.0515701,881.4008579047129
944.249068,1003.4001925194506
948.4402684,968.6524358386052
952.6251825,1080.5555804532837
956.8038212,1334.3487282194924
960.9761955,1496.8441719976822
965.1423166,1423.0971008912502
969.3021953,1399.7206892555046
973.4558427,1456.7568009667366
977.6032699,1312.1906114661679
981.7444877,1317.2219947108879
985.8795072,1394.0650136839836
990.0083394,1213.2563841462909
994.1309953,1155.2751421675616
998.2474857,1225.9417589861744
1002.357822,1301.667402207359
1006.462014,1390.1257456801582
1010.560075,1151.719547612131
1014.652013,775.1560805324127
1018.737841,535.7933190888224
1022.81757,222.0647680102115
1026.891209,20.551699834472487
1030.958771,126.2229896268492
1035.020266,170.32647156322406
1039.075705,-19.425247331060007
1043.1251,-10.92589660768374
1047.16846,222.17150348635906
1051.205797,189.63916303918938
1055.237121,170.73182645346893
1059.262444,451.95138416060024
1063.281777,1003.0481966471997
1067.295131,2532.6267465111428
1071.302515,5236.166750274221
1075.303942,8303.082383762321
1079.299422,10160.997128018782
1083.288966,8953.654919326465
1087.272585,5510.568511272707
1091.250289,2515.143006595426
1095.222091,914.5892871861454
1099.187999,311.8432800790156
1103.148026,116.13489221581695
1107.102183,8.785069479024916
1111.050479,21.576891379913455
1114.992927,-31.947874517679317
1118.929536,7.414069978017064
1122.860318,221.47749667637598
1126.785283,326.22624661737234
1130.704443,821.606515309606
1134.617808,1820.3368233508054
1138.52539,2619.0679470512036
1142.427198,2908.273189447486
1146.323244,2434.9127495355756
1150.213538,1583.618143566445
1154.098093,1050.7086399545592
1157.976917,674.1091302624011
1161.850023,501.98269796801276
1165.717421,666.7244246275746
1169.579121,896.8191464319564
1173.435135,1156.0632049520514
1177.285474,1472.8706228810397
1181.130148,1851.1967555072154
1184.969169,2036.7254810896766
1188.802547,1647.1644172676843
1192.630292,997.5203535614316
1196.452416,583.1580857210295
1200.26893,285.4015068610726
1204.079844,30.312674543052147
1207.88517,-28.57618759364214
1211.684917,-26.595887320473082
1215.479098,131.7987182380759
1219.267722,372.157805990327
1223.050801,203.61239099012207
1226.828346,11.45133828893221
1230.600366,178.98343567797974
1234.366874,263.0923384184813
1238.12788,230.342128156322
1241.883395,390.7939288561542
1245.633429,595.9076938994424
1249.377994,499.32352571520966
1253.1171,274.09041055219274
1256.850759,215.43489676468857
1260.578981,146.95728983649616
1264.301776,56.326228438387446
1268.019157,34.836942013334884
1271.731133,-40.8146116125388
1275.437715,-11.585284841724793
1279.138915,224.4102000523918
1282.834743,316.2883151109505
1286.52521,114.37591980821824
1290.210328,-41.10461054152753
1293.890106,81.94283368210787
1297.564555,249.38419117099815
1301.233688,255.7888724965601
1304.897514,292.39760423175
1308.556044,419.0084526086957
1312.209289,274.2065788958913
1315.857261,6.896269696945737
1319.499969,133.49993744583435
1323.137425,297.7423943342887
1326.769641,244.0355344245263
1330.396626,231.32355126001605
1334.018391,108.71749292161329
1337.634948,-11.877833232096183
1341.246307,7.871122027191879
1344.85248,-17.159720425379973
1348.453477,-6.285569261540512
1352.049309,3.1069584123588907
1355.639987,52.83729182786943
1359.225522,230.3493757943745
1362.805925,261.0214562313385
1366.381207,195.80257285088118
1369.951379,267.1569307524
1373.516452,439.7721823888801
1377.076436,591.4923380376281
1380.631343,638.2329144325291
1384.181184,853.6417736499163
1387.725969,1283.1781167848494
1391.26571,1394.1689398693754
1394.800417,1172.9716119544269
1398.330102,927.8007736459938
1401.854776,567.7747620228615
1405.374448,193.1275325742742
1408.889132,-7.374343687032145
1412.398837,-91.26138514555547
1415.903574,55.630591895598464
1419.403355,376.45443483289233
1422.89819,687.0395812359438
1426.388091,1216.892055713264
1429.873069,1732.4811202054411
1433.353134,1691.1234418477102
1436.828298,1399.3119530565705
1440.298571,1127.6226675102569
1443.763965,637.9723820945895
1447.224491,138.4456482637048
1450.68016,0.2977137318001084
1454.130983,35.53365080858936
1457.576971,-13.608743328493034
1461.018135,5.83929890690095
1464.454486,94.9100642897905
1467.886036,17.293673722632832
1471.312794,-72.52615498064583
1474.734774,44.1950358799548
1478.151985,177.70436855173367
1481.564439,170.93021962917138
1484.972146,72.65041798521113
1488.375119,46.70505792579328
1491.773368,233.33937976758787
1495.166904,302.03852267694293
1498.555739,109.95001410876085
1501.939883,15.501991046035892
1505.319349,-32.932142944942285
1508.694146,-45.57608324686669
1512.064286,74.31281552109573
1515.429781,44.56437952005072
1518.790642,49.08071044505627
1522.146879,131.90593630604621
1525.498505,-49.34698180698943
1528.845529,-41.70682245695937
1532.187965,159.58743588504245
1535.525822,142.60036734809455
1538.859112,312.0200211430129
1542.187846,461.83000998292334
1545.512036,387.64763468834224
1548.831693,624.4248862942945
1552.146829,781.2739144428061
1555.457453,548.9451570558003
1558.763579,530.5698910567228
1562.065216,854.3413405252377
1565.362377,1260.5463412766924
1568.655073,1622.5889849798675
1571.943315,1798.4286542765362
1575.227114,2002.5037789665964
1578.506482,2642.4665453495445
1581.781431,3359.460997309376
1585.051971,3817.5950958571757
1588.318114,4358.420690201784
1591.579872,4618.5833250389205
1594.837255,3931.0916264006714
1598.090275,2648.476266611061
1601.338945,1595.18738517099
1604.583274,973.8075661796275
1607.823275,436.71406430537115
1611.058959,140.30740716822706
1614.290338,135.8850039184108
1617.517422,20.054209371968312
1620.740224,36.153989102971536
1623.958755,173.6712858382885
1627.173027,39.75271574467247
1630.38305,-44.26372068766085
1633.588838,12.532602771637599
1636.7904,82.33800254599691
1639.987749,242.2921792744838
1643.180896,146.96071687145024
1646.369853,24.974938525100782
1649.554632,257.84551517183115
1652.735244,160.91674535963915
1655.9117,-110.76314259017
1659.084013,168.42775610390316
1662.252193,307.6362585484089
1665.416254,-9.000786545834906
1668.576205,2.353683214758
1671.732059,231.34103300511208
1674.883828,179.93131255757456
1678.031523,82.0473261341853
1681.175157,40.704603125540714
1684.314739,-26.29417049192581
1687.450284,45.765665595781186
1690.581801,113.75829762057717
1693.709304,-6.97455770822836
1696.832803,-27.033921850468587
1699.952311,80.220382120392
1703.067839,33.64660546389387
1706.179399,17.734366095357878
1709.287003,174.48830232570668
1712.390663,188.53832736289218
1715.49039,81.34582884830378
1718.586197,112.47827981128253
1721.678095,146.0703936710611
1724.766096,29.521972972254815
1727.850213,-73.95041096723854
1730.930456,-22.93587185289327
1734.006838,21.88875654871903
1737.079372,-14.272413491367388
1740.148067,138.49864300905264
1743.212938,328.85466506892067
1746.273996,183.84631342881633
1749.331252,-4.11216214932201
1752.384718,30.85609720469229
1755.434408,85.73805741889156
1758.480332,70.21327780037089
1761.522503,51.545019549020935
1764.560933,-18.302347922056775
1767.595634,-85.26764842781554
1770.626618,32.90759047324498
1773.653896,112.27555269501285
1776.677482,21.319463214732217
1779.697388,80.1034529993324
1782.713625,226.43126807563235
1785.726205,248.06799286681945
1788.735141,164.34447384842852
1791.740445,8.503765994031555
1794.742129,22.894756768591826
1797.740206,209.14055432760912
1800.734687,230.47405798385853
1803.725585,121.76801362516528
1806.712912,81.42924529660223
1809.69668,104.08236158717364
1812.676902,34.99859296906649
1815.65359,-106.15212393710937
1818.626756,-56.99988574479389
1821.596413,51.465942527891556
1824.562573,14.257079405213219
1827.525247,18.223015805871114
1830.48445,49.862529824566806
1833.440192,-16.03819979331288
1836.392487,-58.4580903893044
1839.341347,-7.339980850660497
1842.286784,40.791246161906656
1845.22881,76.04579158600086
1848.167439,158.03975288792847
1851.102682,118.49416111592275
1854.034553,-32.873331787127796
1856.963063,41.66495078036624
1859.888226,158.61710793255773
1862.810053,42.22881503063354
1865.728557,41.661594695226555
1868.643751,110.3849365910946
1871.555648,-59.45705100775808
1874.46426,-54.027878232798216
1877.369599,163.98860314414497
1880.271679,93.433096632359
1883.170512,18.01685129369423
1886.06611,173.02463687622694
1888.958487,144.98350010497506
1891.847655,33.204707914677336
1894.733626,95.66956177770486
1897.616414,30.95983694922281
1900.496032,-123.91742876605112
1903.372491,-4.845128366499054
1906.245805,176.62007907059123
1909.115987,149.1778953049544
1911.983049,53.136295722279165
1914.847004,45.96069647196444
1917.707866,116.8951875645725
1920.565646,94.80773981511112
1923.420359,-0.34026274602846307
1926.272016,-19.8720619579285
1929.120631,-15.558215401198925
1931.966216,9.195081340273413
1934.808786,72.32064263040913
1937.648351,90.90241586516932
1940.484927,11.039565557798158
1943.318525,4.174205374250494
1946.149158,303.6468868839776
1948.97684,504.2457074419055
1951.801584,285.4397188050848
1954.623403,171.05876718740703
1957.44231,213.73713985389844
1960.258318,32.0683626768275
1963.071439,-89.31436732907059
1965.881688,78.73661928758375
1968.689078,192.9357142278381
1971.493621,41.10393457129095
