Raman shift cm-1,4ATP_1nM_rep2_acc5_processed_intensity
-93.47115107,513.2582638755363
-87.69374369,69.59911828577226
-81.9253076,-10.681046399695987
-76.16582701,124.59297720337199
-70.41528615,120.13293550398149
-64.67366933,-22.863980698778875
-58.94096086,-86.75092956999147
-53.21714512,-38.309591514622866
-47.50220652,56.94985808814401
-41.79612954,176.74516353948022
-36.09889866,258.8122237006549
-30.41049843,215.4489689387866
-24.73091343,156.61726083160553
-19.0601283,221.45713182137305
-13.39812769,160.23228444340157
-7.744896327,-39.92028195900219
-2.100418946,0.42120091758818035
3.535319659,79.09542812067795
9.162334658,4.821856376902147
14.78064118,29.305884426642294
20.39025432,27.957732107921828
25.99118913,12.73045509025522
31.58346061,147.39578247741287
37.16708375,135.33224897603202
42.74207347,-17.866408660059136
48.30844468,-16.644152782130078
53.86621222,22.26900008606208
59.41539093,-78.79679118109831
64.95599558,-103.65131045780683
70.48804091,66.97382656819462
76.01154164,52.47458918987218
81.52651243,-88.54777323763264
87.03296792,54.90153921436746
92.5309227,132.56402037890385
98.02039134,-8.781381410268096
103.5013884,42.76918996357813
108.9739282,74.34477220999298
114.4380255,-27.864505193080106
119.8936944,175.21783027704612
125.3409495,384.30888199838296
130.779805,83.6190869974962
136.2102753,-214.48312002500234
141.6323747,-33.17105586566805
147.0461174,171.86244378311847
152.4515176,83.499143273757
157.8485895,-39.889116754198994
163.2373472,-71.65060266493492
168.6178049,-12.408187466686968
173.9899766,74.95586840063754
179.3538764,21.17930926209874
184.7095182,14.359981286144489
190.0569161,146.26979464779845
195.396084,101.65487456797882
200.7270358,-25.013910015073975
206.0497854,-3.637673774628638
211.3643466,41.719815924226396
216.6707333,27.305289776233508
221.9689593,3.64009556516919
227.2590382,73.1118120580353
232.5409839,173.22663805500383
237.8148101,192.2624888176765
243.0805303,259.7480600475077
248.3381582,379.60742972387504
253.5877075,482.67111886523253
258.8291917,616.6139718905736
264.0626244,743.5762438741606
269.288019,875.8225216503929
274.5053891,983.768486172391
279.7147481,986.0817028154145
284.9161094,1007.7418677605906
290.1094865,1064.0324585493945
295.2948927,996.4330683546116
300.4723414,695.0818803783745
305.6418459,179.16956691659308
310.8034194,-152.83896070773937
315.9570752,-68.16753127944774
321.1028267,48.41661348366745
326.2406869,42.98750920397245
331.370669,78.09937659761661
336.4927863,23.663276367686624
341.6070517,-72.93494165703737
346.7134786,44.5386125145493
351.8120798,83.26039920332121
356.9028684,-101.245855286107
361.9858576,-51.676716995266474
367.0610602,129.6926773153173
372.1284892,146.60900973503547
377.1881577,283.88550207746295
382.2400784,617.4591587101675
387.2842644,963.6220862979288
392.3207284,1154.9621604994954
397.3494833,1040.8076490621818
402.370542,745.5590392740147
407.3839172,420.66659260563705
412.3896217,155.7421329303072
417.3876683,38.76390533569497
422.3780697,0.9668642631035169
427.3608386,-13.587456466312375
432.3359876,79.21697429914482
437.3035295,271.13567892392786
442.2634769,238.3115392021374
447.2158423,-20.484854059036387
452.1606383,-29.813147252558615
457.0978776,60.5201953674895
462.0275727,-69.52466344021983
466.9497361,-93.84983869230007
471.8643802,40.62221547614178
476.7715176,49.70919430253286
481.6711608,45.41211532820178
486.5633221,137.436085138303
491.448014,112.41110180471246
496.3252488,-15.030532400597174
501.195039,19.62922131567739
506.0573969,112.05951721665319
510.9123349,-14.833552802549429
515.7598651,-135.05370139572756
520.6,71.17446704331422
525.4327518,242.1715479151176
530.2581327,52.79949814766177
535.076155,-13.16408960983793
539.8868309,174.263068395748
544.6901726,172.5232972074672
549.4861922,238.18870544006927
554.2749019,384.16622385314236
559.0563139,79.17271162651325
563.8304402,-109.39776127457486
568.597293,167.13157565048135
573.3568844,164.22856281174242
578.1092263,-17.491062992543064
582.8543308,56.86209557099725
587.5922101,71.22174921018568
592.322876,-17.29543185670817
597.0463405,-5.212977544497132
601.7626157,-21.27180915203939
606.4717135,-94.56240268365718
611.1736458,-88.11243900901165
615.8684246,6.371261952320955
620.5560617,59.68191405438253
625.2365691,23.72224979595998
629.9099585,60.35831125486483
634.5762419,150.6959499558926
639.2354312,112.73009538542388
643.887538,3.5142835475044905
648.5325743,-26.47517745004728
653.1705518,44.00803151826048
657.8014823,42.71253542147285
662.4253775,-46.15836375098252
667.0422493,-2.036385707495061
671.6521092,63.303781468882875
676.2549691,-3.8819747015041006
680.8508407,-48.24943920596031
685.4397355,-46.29241548523735
690.0216654,-57.62698784750097
694.5966419,8.367737529891714
699.1646767,111.58778792197757
703.7257814,72.91868896775682
708.2799676,-14.21722178259029
712.827247,66.78197820087863
717.367631,158.3912541095023
721.9011314,17.446694840377535
726.4277595,-139.886234610214
730.9475271,-18.580641658606098
735.4604456,188.10992034492088
739.9665264,191.50889495909072
744.4657813,113.69400792180522
748.9582215,81.35165574978667
753.4438587,26.940108034176102
757.9227042,-11.118336052157709
762.3947696,37.960986741552915
766.8600662,203.86854538056272
771.3186056,318.39298796571995
775.770399,259.9911858763221
780.215458,205.55784511332058
784.6537939,28.85009459530702
789.0854181,-194.054017634652
793.510342,12.186852942001982
797.9285769,311.49099881971756
802.3401342,223.0792007924114
806.7450253,77.28263626456675
811.1432614,58.024288685833355
815.5348538,-31.41347817784424
819.9198139,-97.37198360341162
824.2981531,4.277094246876523
828.6698824,75.50427443296982
833.0350133,0.11037834855908102
837.393557,-9.88274792017262
841.7455248,76.76663716857709
846.0909278,68.69690360991154
850.4297774,1.032165935845173
854.7620848,-41.75137436035463
859.0878611,-86.95478148997356
863.4071176,-66.06780396973366
867.7198655,82.476566555422
872.026116,255.8362567234559
876.3258802,280.6145300664215
880.6191693,207.96704876460046
884.9059946,268.24873044941245
889.186367,318.7659705376988
893.4602979,119.61221180110412
897.7277982,-6.908969071078744
901.9888793,155.66391621644289
906.2435521,209.43853940080604
910.4918277,20.888239171885417
914.7337174,-85.48861752862203
918.9692321,-56.861833757523314
923.1983831,25.86851241273775
927.4211813,153.68070963036257
931.6376378,143.91053736403495
935.8477637,61.763393902506245
940.0515701,68.11579309909322
944.249068,-30.25257191159021
948.4402684,-107.82760056264618
952.6251825,31.285159568093206
956.8038212,120.7518470770177
960.9761955,74.10557933032293
965.1423166,53.55498042854097
969.3021953,64.56807059249358
973.4558427,-19.94208097717194
977.6032699,-95.58918160199057
981.7444877,-3.8283775040946537
985.8795072,36.861192874491465
990.0083394,12.551400787061326
994.1309953,51.322028279267904
998.2474857,-45.418205320707656
1002.357822,-149.0087372800985
1006.462014,-40.09251889366451
1010.560075,61.58246869473917
1014.652013,135.74926922052822
1018.737841,211.0813179329137
1022.81757,81.43401772356374
1026.891209,-57.84632111220362
1030.958771,70.63413360603471
1035.020266,169.84217512599892
1039.075705,23.318998946775082
1043.1251,-6.442792427150195
1047.16846,178.83595507832482
1051.205797,188.9765290328245
1055.237121,25.974244813668157
1059.262444,-80.66389954299916
1063.281777,-34.90574466799423
1067.295131,278.55166791504456
1071.302515,626.824290285445
1075.303942,850.2618805536712
1079.299422,1010.1577168049675
1083.288966,794.8783591545825
1087.272585,356.02067362750137
1091.250289,169.79769208044956
1095.222091,60.730256529157046
1099.187999,-23.39120597709446
1103.148026,39.1761610768119
1107.102183,63.89643073406177
1111.050479,22.74905722191903
1114.992927,-41.49580554216952
1118.929536,-65.49579857404743
1122.860318,-13.05274800602555
1126.785283,-63.19194262140219
1130.704443,-42.6999288976948
1134.617808,203.95629179705773
1138.52539,314.74795449357464
1142.427198,201.1379635748513
1146.323244,76.09244343976445
1150.213538,40.375987179822474
1154.098093,39.12925811429599
1157.976917,-45.622416337848406
1161.850023,-89.3583610520094
1165.717421,-4.238288828219709
1169.579121,72.62543031136991
1173.435135,43.26071945809363
1177.285474,-23.732058049079853
1181.130148,56.10020990295487
1184.969169,182.11009555480967
1188.802547,127.76150693383028
1192.630292,29.58852406154248
1196.452416,44.91867495973861
1200.26893,29.11283501066653
1204.079844,-72.69088204284401
1207.88517,-120.11174051862783
1211.684917,-51.98089933471146
1215.479098,163.14847189182356
1219.267722,262.90687110631296
1223.050801,47.421498780865456
1226.828346,16.266374408937097
1230.600366,260.8507674622574
1234.366874,279.70917765878175
1238.12788,124.87877988860814
1241.883395,168.51684440959272
1245.633429,373.40409560232786
1249.377994,313.80429986196236
1253.1171,36.098204660761205
1256.850759,25.82917734811079
1260.578981,160.3600119911829
1264.301776,175.40910329735073
1268.019157,129.01663650496687
1271.731133,-13.89495072560959
1275.437715,-67.6138368487949
1279.138915,112.58809153246558
1282.834743,163.46827614204534
1286.52521,-8.615994338778812
1290.210328,-66.38439465321387
1293.890106,45.429618400039914
1297.564555,117.81254856354062
1301.233688,62.6865221646099
1304.897514,33.92993355502073
1308.556044,119.19717080265562
1312.209289,58.225757453270205
1315.857261,-99.75706135218675
1319.499969,40.01816518186824
1323.137425,250.34391229322068
1326.769641,220.59834728521702
1330.396626,177.30238158528888
1334.018391,163.01818548716966
1337.634948,62.12067819289213
1341.246307,-25.257244677883588
1344.85248,-18.782055421331766
1348.453477,-52.3820403395928
1352.049309,-137.8488517291188
1355.639987,-12.601495948214264
1359.225522,151.85461696410405
1362.805925,60.24990321415618
1366.381207,-5.707338013074562
1369.951379,44.364425754115
1373.516452,43.53029896496366
1377.076436,35.445754522904
1380.631343,-3.3090312681926406
1384.181184,8.063879065277362
1387.725969,105.38079570186324
1391.26571,67.90621863712074
1394.800417,25.068311799105974
1398.330102,154.75246522207536
1401.854776,231.83558012876568
1405.374448,143.64774593362444
1408.889132,-50.01890709448023
1412.398837,-156.71041254901695
1415.903574,77.89595675029399
1419.403355,327.1843203557049
1422.89819,231.32687532719726
1426.388091,183.77923336742458
1429.873069,319.7661041048268
1433.353134,279.90858475453
1436.828298,178.96346666942202
1440.298571,196.86841943356885
1443.763965,77.22823778224512
1447.224491,-118.9694928197768
1450.68016,-9.40289869664852
1454.130983,198.10733250333035
1457.576971,155.9680903432355
1461.018135,139.65403792712067
1464.454486,227.13244003530363
1467.886036,126.5140345531191
1471.312794,-4.178625172254577
1474.734774,78.66594616049878
1478.151985,175.1775421603245
1481.564439,83.3617023761929
1484.972146,-76.17729715430623
1488.375119,-57.593146013096685
1491.773368,119.21515769884599
1495.166904,136.5449742400686
1498.555739,30.101664044669114
1501.939883,30.993038387456103
1505.319349,-4.964823136406778
1508.694146,-20.985898489402288
1512.064286,57.35956387761574
1515.429781,-1.7757029468896164
1518.790642,29.06249809922698
1522.146879,159.19490973411163
1525.498505,-14.410279525404128
1528.845529,-153.53710564477274
1532.187965,-39.78374199657371
1535.525822,46.971588365847516
1538.859112,129.03342633749506
1542.187846,82.49240424186016
1545.512036,2.1562609164672963
1548.831693,196.1356040004951
1552.146829,258.39597764103485
1555.457453,32.971903267453435
1558.763579,-70.79164259386135
1562.065216,42.193292118074936
1565.362377,288.48488830718946
1568.655073,418.44631814139444
1571.943315,288.9641421516416
1575.227114,253.0771086205293
1578.506482,464.9718378323387
1581.781431,613.7473707679545
1585.051971,555.2606144168217
1588.318114,505.6696960204687
1591.579872,552.3731607505074
1594.837255,463.37536791118407
1598.090275,253.94898766915912
1601.338945,210.4502522954946
1604.583274,182.56941196512986
1607.823275,0.0029473746736456974
1611.058959,-37.35125640196073
1614.290338,9.297971952001475
1617.517422,-56.32647399252832
1620.740224,3.0057440518758987
1623.958755,72.14330327035819
1627.173027,-23.814760556823643
1630.38305,13.813028296655572
1633.588838,128.09731248006133
1636.7904,160.26776736114505
1639.987749,233.55965418555527
1643.180896,154.8814156097781
1646.369853,63.37180060306528
1649.554632,240.33372104316206
1652.735244,163.68982526975256
1655.9117,-76.52754678405225
1659.084013,128.13678170299187
1662.252193,247.7368136866233
1665.416254,-13.174384952985871
1668.576205,5.550267685490535
1671.732059,207.11458505613277
1674.883828,113.27213523429957
1678.031523,-1.368901074987619
1681.175157,30.87904885536233
1684.314739,6.098726798187391
1687.450284,8.94864967433835
1690.581801,44.84840586698492
1693.709304,-17.64669199653387
1696.832803,-29.851390509274157
1699.952311,-9.258286706279714
1703.067839,-48.721692752741006
1706.179399,58.729763105501334
1709.287003,198.18302749199432
1712.390663,105.54044491518982
1715.49039,36.771014474286105
1718.586197,147.78090582861623
1721.678095,151.15851262796514
1724.766096,-7.270307099733458
1727.850213,-62.72842137725344
1730.930456,3.512648638052582
1734.006838,-30.46496970032313
1737.079372,-93.20819110075922
1740.148067,58.65049740357583
1743.212938,226.7932939921221
1746.273996,125.63828785396046
1749.331252,14.630585044799268
1752.384718,66.53907031984468
1755.434408,63.35651288996928
1758.480332,81.01256114481731
1761.522503,121.45629450627904
1764.560933,-67.45072353785011
1767.595634,-133.3790100587693
1770.626618,129.02598516305932
1773.653896,169.58492262027144
1776.677482,-5.090104549287016
1779.697388,50.53741313793027
1782.713625,220.98241782539318
1785.726205,250.2059078593154
1788.735141,103.12906793427081
1791.740445,-45.6177314793307
1794.742129,70.32653305152695
1797.740206,301.88057702933963
1800.734687,295.24669447611603
1803.725585,140.97648611410798
1806.712912,77.05755430276469
1809.69668,26.14083995667481
1812.676902,-58.978483173073386
1815.65359,-47.300566438779484
1818.626756,-11.705159224448064
1821.596413,-48.62743849277622
1824.562573,-26.128787208738252
1827.525247,41.408158033788865
1830.48445,13.244360790026366
1833.440192,-43.774394515518665
1836.392487,-15.641618512519187
1839.341347,30.244759621473772
1842.286784,5.236695142072577
1845.22881,4.859479036656172
1848.167439,82.77520882729587
1851.102682,64.82457365301742
1854.034553,-73.21196826097548
1856.963063,-33.05533646515312
1859.888226,177.93897085106747
1862.810053,180.8117647003727
1865.728557,54.002931350948536
1868.643751,11.363133893063377
1871.555648,-79.25243644069559
1874.46426,-73.49865866095818
1877.369599,65.29597667346556
1880.271679,23.885818037202405
1883.170512,18.43077876309512
1886.06611,177.73291568824547
1888.958487,118.2942989810921
1891.847655,-9.007866687853209
1894.733626,21.24479287578405
1897.616414,-39.22192334916602
1900.496032,-77.04363889359425
1903.372491,47.24370774917852
1906.245805,106.77939789498674
1909.115987,127.48283045888392
1911.983049,117.04556543697336
1914.847004,18.828437184144555
1917.707866,30.316048443456076
1920.565646,63.88559748355213
1923.420359,-25.684848544053523
1926.272016,-45.02814665029013
1929.120631,0.9144492032718237
1931.966216,-19.99130455467803
1934.808786,-39.871725161269026
1937.648351,0.34707768504822045
1940.484927,22.89276341712284
1943.318525,39.45546409031957
1946.149158,258.07952231784026
1948.97684,483.1918962085046
1951.801584,324.1601796511915
1954.623403,103.64984115055712
1957.44231,63.72711470310864
1960.258318,-52.47536953529733
1963.071439,-99.78961157829691
1965.881688,32.76526360335366
1968.689078,69.03255370052223
1971.493621,-26.32971994598133
