Raman shift cm-1,4ATP_100uM_rep2_acc5_processed_intensity
-93.47115107,770.6889993987642
-87.69374369,180.22533784218467
-81.9253076,-19.373980627935907
-76.16582701,120.03866528846744
-70.41528615,152.52036880923714
-64.67366933,5.935373957997186
-58.94096086,-42.08220607992747
-53.21714512,0.8541133935020611
-47.50220652,72.21725427111943
-41.79612954,179.5818274433677
-36.09889866,261.48254726688265
-30.41049843,263.4421062009808
-24.73091343,149.699937907953
-19.0601283,128.0996480052446
-13.39812769,179.55751150015658
-7.744896327,20.862287639423094
-2.100418946,-32.66596651472662
3.535319659,119.38990383301896
9.162334658,141.82217054715233
14.78064118,102.58037403289198
20.39025432,18.078163755790563
25.99118913,16.919942037058718
31.58346061,196.39008141531224
37.16708375,178.46551901804995
42.74207347,29.95293710449925
48.30844468,3.094129906831263
53.86621222,-35.718145888401665
59.41539093,-102.47695188027862
64.95599558,-73.730776422849
70.48804091,62.86993362662568
76.01154164,66.38146115171574
81.52651243,-56.940863134553496
87.03296792,34.784542921580766
92.5309227,128.71597271306425
98.02039134,28.017608785404946
103.5013884,31.649276046157212
108.9739282,46.38526410435526
114.4380255,8.132978298064756
119.8936944,210.35354139719408
125.3409495,396.1549933894898
130.779805,189.15421177960877
136.2102753,-88.18650754392922
141.6323747,-24.465389780026612
147.0461174,192.4945536938746
152.4515176,139.1240689541736
157.8485895,-73.46707135670476
163.2373472,-91.88650186065081
168.6178049,59.590437149126615
173.9899766,145.54208067234595
179.3538764,48.995965720905474
184.7095182,24.73584691578469
190.0569161,105.0614738876792
195.396084,9.196195188952743
200.7270358,-32.23048244879783
206.0497854,30.485506339105996
211.3643466,6.901280114976316
216.6707333,43.47813389921873
221.9689593,38.5272126842799
227.2590382,43.43244552363478
232.5409839,198.67016089299125
237.8148101,263.08367172128214
243.0805303,287.3102198843178
248.3381582,375.5030936270167
253.5877075,500.7773163625609
258.8291917,671.3402321201007
264.0626244,770.075144144015
269.288019,898.316681826507
274.5053891,1039.0504807970528
279.7147481,993.9125303828123
284.9161094,948.8084399294871
290.1094865,969.4045627655262
295.2948927,951.5209065650076
300.4723414,781.7308157587235
305.6418459,265.96806336081096
310.8034194,-128.49799206463908
315.9570752,26.577581072846428
321.1028267,265.4364960620643
326.2406869,345.75071495596717
331.370669,426.24440311185583
336.4927863,470.1870356185254
341.6070517,488.13790436888837
346.7134786,634.3447932591234
351.8120798,787.2992423630685
356.9028684,749.8697379961983
361.9858576,792.684992016734
367.0610602,1029.82607431344
372.1284892,1323.8209476380102
377.1881577,2049.8246509119517
382.2400784,3993.2931596676544
387.2842644,6907.906584224241
392.3207284,8499.618465973153
397.3494833,7522.320802654837
402.370542,5496.2566136036485
407.3839172,3643.4895979735725
412.3896217,2226.6506868808074
417.3876683,1332.4906598839168
422.3780697,809.8290868623321
427.3608386,636.4132093538284
432.3359876,628.0951647484842
437.3035295,650.5048219100877
442.2634769,543.2579542642237
447.2158423,194.75721380356745
452.1606383,61.1138414186085
457.0978776,67.67839395109334
462.0275727,-71.36811349472762
466.9497361,-53.20588165289564
471.8643802,28.23181808730051
476.7715176,-41.36200886503023
481.6711608,-28.88907133799215
486.5633221,140.9065706676932
491.448014,186.33602396295169
496.3252488,31.051848800134138
501.195039,42.73022026182693
506.0573969,255.9191875504345
510.9123349,210.2149385785843
515.7598651,0.005047375008985
520.6,96.74465427624608
525.4327518,238.51725803084872
530.2581327,67.63336257229719
535.076155,-25.737718134324858
539.8868309,118.09475230776543
544.6901726,170.37074685674315
549.4861922,230.16524227226233
554.2749019,263.18116407638496
559.0563139,-19.040773438698572
563.8304402,-71.4829664861676
568.597293,291.71731225640883
573.3568844,267.5376323687808
578.1092263,-21.68228812668845
582.8543308,64.92665033650354
587.5922101,180.2215322939832
592.322876,18.59205894271261
597.0463405,-21.21865607724435
601.7626157,104.45838841489717
606.4717135,43.32688187902518
611.1736458,-74.12513919991893
615.8684246,-3.949340165426751
620.5560617,2.084482078527877
625.2365691,12.634788893173923
629.9099585,335.0891065364041
634.5762419,558.5412839526372
639.2354312,568.6025605558249
643.887538,615.4785559982557
648.5325743,442.67025314223577
653.1705518,199.450634460187
657.8014823,92.01862257353993
662.4253775,-27.244405792732707
667.0422493,-4.904568065752549
671.6521092,58.70599154284693
676.2549691,-12.89138963100988
680.8508407,-3.22056066475362
685.4397355,49.29257571785511
690.0216654,-38.78700567054621
694.5966419,18.953841604240132
699.1646767,343.14686842691873
703.7257814,500.63603877189956
708.2799676,423.1989508353339
712.827247,334.7433530349631
717.367631,219.93169307550772
721.9011314,58.24958474126204
726.4277595,-76.17438858911343
730.9475271,-17.96988153911759
735.4604456,160.0898011965157
739.9665264,175.09093924404885
744.4657813,115.15274623960244
748.9582215,60.19731480732945
753.4438587,-46.992411766234355
757.9227042,-52.21361499896081
762.3947696,27.07684131517076
766.8600662,144.30731982882753
771.3186056,254.11461312261207
775.770399,227.2981208476867
780.215458,169.82239919425848
784.6537939,31.553441641264786
789.0854181,-18.210158907874977
793.510342,346.64848592111696
797.9285769,633.5210541510594
802.3401342,627.9140905930819
806.7450253,735.9857327838516
811.1432614,768.4398139852849
815.5348538,567.0246387300781
819.9198139,417.9663714155836
824.2981531,397.78654322597384
828.6698824,380.5241441830976
833.0350133,205.35909869417125
837.393557,53.61629257169454
841.7455248,107.61442215462431
846.0909278,57.09584630050155
850.4297774,-42.34744003316618
854.7620848,47.63003994108166
859.0878611,20.41443029447731
863.4071176,-127.93986892112316
867.7198655,-41.27171575555123
872.026116,166.46918568762084
876.3258802,241.10976392852248
880.6191693,173.79227171899817
884.9059946,147.86366261621072
889.186367,214.68058833801135
893.4602979,111.84340560271794
897.7277982,-10.714327103859922
901.9888793,159.4210959562398
906.2435521,288.6839256191463
910.4918277,134.15321382841375
914.7337174,64.9892049229852
918.9692321,228.2077457236779
923.1983831,358.1011116968635
927.4211813,434.27657292580557
931.6376378,425.59455544938976
935.8477637,397.5851467800479
940.0515701,566.0316428218491
944.249068,575.1887515084792
948.4402684,493.64971649753875
952.6251825,724.0909951787995
956.8038212,932.2646347103527
960.9761955,956.9199037861542
965.1423166,913.5014896104019
969.3021953,893.828422133849
973.4558427,896.821113249536
977.6032699,804.1207596415959
981.7444877,831.9189465054585
985.8795072,896.2137721606161
990.0083394,823.1135939395923
994.1309953,854.7925916100455
998.2474857,943.6581235521575
1002.357822,1143.4740581900542
1006.462014,1371.0290119204294
1010.560075,1150.003886349602
1014.652013,738.9688575633985
1018.737841,447.439329778495
1022.81757,131.08298937393982
1026.891209,-51.56544799803557
1030.958771,4.471899758633023
1035.020266,96.64822198567671
1039.075705,33.90564120711951
1043.1251,-1.2311685450946799
1047.16846,125.7896237147799
1051.205797,130.6240761060685
1055.237121,147.72872305994525
1059.262444,329.0046104153399
1063.281777,771.531544723061
1067.295131,2126.4810129481853
1071.302515,4355.079646742717
1075.303942,6842.155804231716
1079.299422,8458.973815321504
1083.288966,7481.042738298688
1087.272585,4599.001902755631
1091.250289,2189.6427849489473
1095.222091,877.8515469518433
1099.187999,296.71905368169143
1103.148026,121.27243969898589
1107.102183,40.066973100903425
1111.050479,10.90380623264543
1114.992927,-40.56465126789853
1118.929536,-52.20576044773259
1122.860318,49.883887839675666
1126.785283,174.01318052571375
1130.704443,594.4406517457112
1134.617808,1337.3383909036647
1138.52539,1881.1132623093297
1142.427198,1965.0778311453416
1146.323244,1630.433034200655
1150.213538,1192.062796154068
1154.098093,870.2787201567235
1157.976917,596.1052794638197
1161.850023,543.2191992115991
1165.717421,735.1091679927174
1169.579121,962.8093594524241
1173.435135,1116.7579126360752
1177.285474,1215.5036499055839
1181.130148,1455.9341259830549
1184.969169,1619.1640913017457
1188.802547,1270.7020492127683
1192.630292,683.3104280408005
1196.452416,402.8451865644027
1200.26893,271.15762282245817
1204.079844,19.354389818707624
1207.88517,-84.30018280736056
1211.684917,12.784995210083453
1215.479098,239.37940655659563
1219.267722,339.1452635617198
1223.050801,46.63426690903093
1226.828346,-53.86449014817367
1230.600366,167.4027884312187
1234.366874,176.29661330200915
1238.12788,46.268209298572586
1241.883395,131.15858811223336
1245.633429,348.2220765437858
1249.377994,246.2342319401827
1253.1171,32.15123717576655
1256.850759,67.06457283094458
1260.578981,34.57237891080342
1264.301776,-3.9705371408028256
1268.019157,50.244097825870625
1271.731133,-78.44959424649366
1275.437715,-118.27071990284905
1279.138915,163.50301154941948
1282.834743,266.612230980778
1286.52521,16.419505078264518
1290.210328,-91.02737312865695
1293.890106,51.405242858965906
1297.564555,156.90612752011666
1301.233688,161.107578520593
1304.897514,154.95576749309447
1308.556044,208.94061784891488
1312.209289,143.56056214909222
1315.857261,-25.184058354082993
1319.499969,64.40919037630982
1323.137425,181.63934531516716
1326.769641,144.0213741042909
1330.396626,178.40967003160367
1334.018391,72.79602787225147
1337.634948,-63.924459155586526
1341.246307,27.182269362109935
1344.85248,58.991053603664696
1348.453477,-34.09133029460389
1352.049309,-86.57441890080308
1355.639987,50.27135262781006
1359.225522,261.40592015765196
1362.805925,282.74369207574995
1366.381207,283.5339071826301
1369.951379,306.0419230646877
1373.516452,344.27158627598817
1377.076436,503.5627848594171
1380.631343,585.7766529187087
1384.181184,747.7844916915952
1387.725969,1035.4678129238278
1391.26571,1020.6008838223818
1394.800417,826.1083713644542
1398.330102,656.1851194320014
1401.854776,444.3019041377589
1405.374448,264.3782844517008
1408.889132,43.35370165284793
1412.398837,-95.87196388547852
1415.903574,144.2107670752713
1419.403355,459.73206207263047
1422.89819,607.866638346363
1426.388091,875.6495685883964
1429.873069,1172.8947919996401
1433.353134,1177.4582626767306
1436.828298,970.8150932763809
1440.298571,710.4788878332707
1443.763965,403.686883184481
1447.224491,106.99139819161871
1450.68016,-5.643809658112602
1454.130983,24.2602616362674
1457.576971,-0.09058159358630746
1461.018135,-0.6587466664831965
1464.454486,59.03826785535449
1467.886036,16.74731361004187
1471.312794,-52.04306834478194
1474.734774,30.493857707744247
1478.151985,157.7894875056773
1481.564439,206.44296079082235
1484.972146,154.67655791552892
1488.375119,125.79906704560622
1491.773368,371.83954882039933
1495.166904,459.17842011399955
1498.555739,113.75627234263412
1501.939883,-12.027850638639894
1505.319349,40.62535196359068
1508.694146,-13.110716782883143
1512.064286,48.324819425561174
1515.429781,8.645972582335753
1518.790642,-39.58945321282965
1522.146879,56.58632096744875
1525.498505,-107.19815581621961
1528.845529,-195.12034223748856
1532.187965,-34.848676032660435
1535.525822,-21.2248279136856
1538.859112,66.34378828306353
1542.187846,104.11799057121948
1545.512036,70.76602875096097
1548.831693,330.73276178228036
1552.146829,355.89883190783934
1555.457453,69.08407851544536
1558.763579,62.531553917411145
1562.065216,289.9464313200912
1565.362377,605.2800424356543
1568.655073,911.478203352471
1571.943315,1011.5074868316632
1575.227114,1103.47046557952
1578.506482,1539.156529582706
1581.781431,2122.30589767084
1585.051971,2546.795271462796
1588.318114,2945.0212856713597
1591.579872,3195.299074607886
1594.837255,2895.9450918105676
1598.090275,2128.8815151982812
1601.338945,1405.9475019307067
1604.583274,848.4509800339065
1607.823275,284.48527464781677
1611.058959,41.22625556456779
1614.290338,58.56281694475777
1617.517422,-87.6763773101787
1620.740224,-83.7155008758859
1623.958755,50.22554983824955
1627.173027,-28.35357550376463
1630.38305,-38.53128839243533
1633.588838,19.8919090979781
1636.7904,33.01160933179276
1639.987749,152.52881804351966
1643.180896,112.70479538033662
1646.369853,56.089156406755265
1649.554632,267.8543628170309
1652.735244,162.28493645690597
1655.9117,-117.46774072579038
1659.084013,98.22225759432732
1662.252193,282.3752690427904
1665.416254,51.649410606368306
1668.576205,-29.505115404117934
1671.732059,133.9282594183574
1674.883828,136.48301870503266
1678.031523,28.910451862557615
1681.175157,28.73775617107581
1684.314739,-1.0737706209034172
1687.450284,-44.682257814269256
1690.581801,19.062359416141472
1693.709304,-4.085927263820662
1696.832803,-44.28729809429566
1699.952311,29.201509907259354
1703.067839,62.908363295397464
1706.179399,161.98156115200544
1709.287003,254.5538615487789
1712.390663,156.4117219240362
1715.49039,129.41737946824773
1718.586197,157.37457238437509
1721.678095,48.154416081799596
1724.766096,-35.05812864693093
1727.850213,-38.667370068565695
1730.930456,-23.626440294442375
1734.006838,-26.837458571147522
1737.079372,-71.01601829433736
1740.148067,52.86903810568078
1743.212938,244.04881607892352
1746.273996,140.2803621696628
1749.331252,5.91544546772805
1752.384718,57.91832957222996
1755.434408,72.70716072212656
1758.480332,102.3353486680036
1761.522503,144.52007075088613
1764.560933,-4.128054022095942
1767.595634,-117.34381958218371
1770.626618,99.89300739982329
1773.653896,235.88626950179008
1776.677482,23.555912226183693
1779.697388,-25.303134314704536
1782.713625,184.4998340450094
1785.726205,298.7023246462563
1788.735141,243.095876833204
1791.740445,65.73518559761825
1794.742129,30.121678621783943
1797.740206,202.65991949960855
1800.734687,233.75622960169966
1803.725585,141.4679374475576
1806.712912,107.1643642458481
1809.69668,70.92092998154469
1812.676902,-10.131348710693636
1815.65359,-119.1075160711126
1818.626756,-88.65317718284996
1821.596413,36.49290888270063
1824.562573,8.778930377558027
1827.525247,5.955340400965058
1830.48445,56.52662063940925
1833.440192,-47.364073751505096
1836.392487,-58.1980647907417
1839.341347,63.211684640041064
1842.286784,15.312432495935802
1845.22881,-36.10966806956611
1848.167439,67.74180207828891
1851.102682,69.86361728350364
1854.034553,-55.04815568012458
1856.963063,-10.798245066518723
1859.888226,197.12891770973738
1862.810053,199.17482997774994
1865.728557,51.91694265505732
1868.643751,11.73836195437262
1871.555648,-77.32481207952212
1874.46426,-74.14487375833424
1877.369599,65.83217221242363
1880.271679,-9.281712366142164
1883.170512,-14.155823316677536
1886.06611,144.04210400490797
1888.958487,62.10930101399933
1891.847655,-38.224180764245254
1894.733626,20.059775963380616
1897.616414,-38.11900887217666
1900.496032,-109.6495765059718
1903.372491,-7.90125093431601
1906.245805,66.49916007353946
1909.115987,69.31656258019125
1911.983049,53.5290605546798
1914.847004,11.62256414789627
1917.707866,48.08889865995434
1920.565646,35.97994973044298
1923.420359,-69.06473568552616
1926.272016,-97.32753255945391
1929.120631,-53.76427463279713
1931.966216,8.250778138417296
1934.808786,-8.438355217516012
1937.648351,-15.50406457131335
1940.484927,55.55470463840132
1943.318525,59.89951041337397
1946.149158,233.2256512228549
1948.97684,476.36183921215104
1951.801584,342.9272140637888
1954.623403,178.59918499168612
1957.44231,159.53392207780888
1960.258318,8.267986981569392
1963.071439,-43.30519418404468
1965.881688,133.40339508162586
1968.689078,200.27328044229634
1971.493621,7.946538006820177
