Raman shift cm-1,4ATP_100nM_rep1_acc2_processed_intensity
-93.47115107,492.10813649252054
-87.69374369,158.54188068051891
-81.9253076,43.338753207244906
-76.16582701,109.64819178955011
-70.41528615,95.49925634342193
-64.67366933,-31.09425050519215
-58.94096086,-59.23065224839671
-53.21714512,20.604715845486552
-47.50220652,116.95484776174996
-41.79612954,241.35098242929791
-36.09889866,302.71151960539436
-30.41049843,210.53774952532598
-24.73091343,120.37806184851416
-19.0601283,148.53284148494808
-13.39812769,141.2873701286019
-7.744896327,28.66814676364842
-2.100418946,-1.97851154863762
3.535319659,91.88226419423486
9.162334658,115.59912694397823
14.78064118,34.221690787157684
20.39025432,21.24862251168564
25.99118913,148.87481309356832
31.58346061,265.0213813714368
37.16708375,207.42431730368065
42.74207347,68.42223323876303
48.30844468,18.866546062623993
53.86621222,-7.118450294931616
59.41539093,-82.16604438627205
64.95599558,-34.68539091077416
70.48804091,140.29511923157744
76.01154164,162.67601027438488
81.52651243,96.9828191057742
87.03296792,198.79216922257763
92.5309227,280.4262018792518
98.02039134,198.01541211427528
103.5013884,136.71702058276253
108.9739282,74.55450511129038
114.4380255,20.68107091264102
119.8936944,188.4390332492339
125.3409495,365.3844856377751
130.779805,218.58964291752
136.2102753,36.67737339343489
141.6323747,141.93784686283942
147.0461174,287.3972059633754
152.4515176,266.9517428039985
157.8485895,225.10876657333398
163.2373472,253.6236299207872
168.6178049,361.5035037259926
173.9899766,498.2220546242038
179.3538764,506.38424501789206
184.7095182,464.5846462519178
190.0569161,561.3464117083005
195.396084,638.2034484499766
200.7270358,566.869320372698
206.0497854,546.4902931156828
211.3643466,635.588481998494
216.6707333,697.9273751459762
221.9689593,742.2367769737907
227.2590382,810.4061319791405
232.5409839,857.374019303234
237.8148101,899.2639095925399
243.0805303,965.687501035927
248.3381582,1043.7819804580631
253.5877075,1155.3163117588358
258.8291917,1276.446010530091
264.0626244,1352.9771494079598
269.288019,1421.2513494632915
274.5053891,1484.1286100444956
279.7147481,1461.4633194578525
284.9161094,1386.8048395600824
290.1094865,1385.330259556976
295.2948927,1366.1578986238571
300.4723414,1027.3545782971494
305.6418459,403.0233789777577
310.8034194,-12.97112458927085
315.9570752,-29.993804996097346
321.1028267,32.04112816543855
326.2406869,30.228139061488335
331.370669,40.08851647047569
336.4927863,10.50104821189256
341.6070517,-22.375771954405984
346.7134786,5.969701680556469
351.8120798,-33.78925876237081
356.9028684,-88.26594674320305
361.9858576,34.94211462743574
367.0610602,214.3106280226982
372.1284892,302.1364482631892
377.1881577,429.29720999407846
382.2400784,772.7928368713484
387.2842644,1301.4756002369475
392.3207284,1677.4600866095325
397.3494833,1621.5983496241627
402.370542,1237.8197548523312
407.3839172,759.9534857389609
412.3896217,402.9105088870897
417.3876683,259.4281314391114
422.3780697,185.79134664190474
427.3608386,143.94348837258156
432.3359876,240.55302235451117
437.3035295,325.24840053619533
442.2634769,202.522764716095
447.2158423,34.364088779067025
452.1606383,8.090919554364204
457.0978776,13.59159572127367
462.0275727,-13.621548471158823
466.9497361,15.117372044163272
471.8643802,21.548285251745952
476.7715176,-27.325272906238972
481.6711608,85.33740524929637
486.5633221,264.6024098955062
491.448014,160.7388649668286
496.3252488,-23.636670531041702
501.195039,88.91108493830663
506.0573969,232.91049419091263
510.9123349,99.20442852638723
515.7598651,-8.752159278618535
520.6,149.16472885208518
525.4327518,269.3215449401379
530.2581327,164.2285941255471
535.076155,74.15533093693196
539.8868309,112.41180817679879
544.6901726,193.77633636038703
549.4861922,305.0054191114859
554.2749019,266.683595249977
559.0563139,7.107348834417763
563.8304402,-13.498834185635246
568.597293,282.4711385047079
573.3568844,328.88000635198426
578.1092263,118.98589574672768
582.8543308,58.1628715515491
587.5922101,76.56769825778082
592.322876,41.675066077159954
597.0463405,23.802127661355353
601.7626157,-19.775744356326108
606.4717135,-67.44897031732582
611.1736458,-19.710600656543143
615.8684246,27.023614460477503
620.5560617,0.4270024985134917
625.2365691,27.147314253011906
629.9099585,133.2527213156436
634.5762419,182.59239739883301
639.2354312,146.1699018497335
643.887538,100.79395134760185
648.5325743,86.29521978997494
653.1705518,89.11762339617013
657.8014823,41.85976283248636
662.4253775,-33.904230710192756
667.0422493,-9.476265562787313
671.6521092,65.54631589597373
676.2549691,53.768226815510694
680.8508407,20.532086359435233
685.4397355,24.036263241664436
690.0216654,-17.496181791127995
694.5966419,-58.35072952988892
699.1646767,13.191012138436989
703.7257814,115.34558425612451
708.2799676,124.58426427383701
712.827247,76.33697742044035
717.367631,33.00251573683009
721.9011314,-4.604070139810339
726.4277595,-0.5524301478496483
730.9475271,70.52859184256197
735.4604456,141.29378948226048
739.9665264,153.3450386749361
744.4657813,121.688427027601
748.9582215,77.8928649548428
753.4438587,21.447858860293252
757.9227042,-36.818376974076514
762.3947696,-2.661510962572926
766.8600662,156.13939434129975
771.3186056,274.6021039222934
775.770399,265.0310032104173
780.215458,205.41104179630366
784.6537939,90.032655611775
789.0854181,-22.932116287073626
793.510342,33.10370265744059
797.9285769,192.53219637423535
802.3401342,280.0920689191257
806.7450253,273.85076843046994
811.1432614,174.5728914981723
815.5348538,14.91066974960452
819.9198139,-33.56079386988855
824.2981531,83.83686889003442
828.6698824,179.49000197379365
833.0350133,152.34220472699153
837.393557,104.65026838611521
841.7455248,84.22100703919692
846.0909278,32.73115942647978
850.4297774,-10.095302803133897
854.7620848,25.91342904211769
859.0878611,26.437758687735972
863.4071176,-31.838681875778263
867.7198655,85.44930552318853
872.026116,325.59808622403295
876.3258802,340.8696357293022
880.6191693,217.6857318366586
884.9059946,266.0336350098896
889.186367,298.9403029819242
893.4602979,94.34208978309078
897.7277982,-16.20553579842607
901.9888793,176.2202217305066
906.2435521,283.81802946189754
910.4918277,80.4269097786098
914.7337174,-82.10807673186973
918.9692321,23.72122970318015
923.1983831,170.39180444421982
927.4211813,194.92437204321865
931.6376378,169.1358800532656
935.8477637,143.2205798378851
940.0515701,94.86779677628705
944.249068,12.164550509740295
948.4402684,-28.08893548497454
952.6251825,33.689128908420074
956.8038212,90.35769705004071
960.9761955,42.48191225623684
965.1423166,-15.447108717846476
969.3021953,29.151154418963444
973.4558427,73.9723993907377
977.6032699,18.624453291583677
981.7444877,-7.530607354641546
985.8795072,25.09506984952621
990.0083394,5.342896311934105
994.1309953,-9.650597703750222
998.2474857,11.738262205810283
1002.357822,-16.690098281550085
1006.462014,-65.59561361204631
1010.560075,-17.216187550391524
1014.652013,162.89697843561706
1018.737841,264.22542455155786
1022.81757,127.40103865147417
1026.891209,41.613586343519316
1030.958771,178.06940480172506
1035.020266,225.48693499766864
1039.075705,111.95333380551844
1043.1251,120.63243333664502
1047.16846,217.2819792440431
1051.205797,168.59821932509197
1055.237121,21.404629916643046
1059.262444,-61.88170508488531
1063.281777,25.055317254509532
1067.295131,336.4989594108955
1071.302515,762.020433577326
1075.303942,1173.5739235518236
1079.299422,1438.3345328589048
1083.288966,1292.2820184203958
1087.272585,795.5704564829485
1091.250289,398.51397376499494
1095.222091,258.6694939904163
1099.187999,197.81693370202902
1103.148026,162.01777670048676
1107.102183,194.25194319705722
1111.050479,196.24700968427905
1114.992927,88.42237416280001
1118.929536,-0.14032726889458047
1122.860318,-7.230783327717475
1126.785283,11.072750924188355
1130.704443,148.27839507811245
1134.617808,386.3189248844396
1138.52539,463.97700142082203
1142.427198,357.2881304171553
1146.323244,295.31008062265295
1150.213538,332.42394206925997
1154.098093,322.0977925520466
1157.976917,200.17338936645976
1161.850023,107.61445271713613
1165.717421,193.87295408000145
1169.579121,354.8074524765351
1173.435135,331.2618312883437
1177.285474,187.7008016726681
1181.130148,262.85967317337315
1184.969169,454.6687806117553
1188.802547,370.13964071164975
1192.630292,106.30421376090277
1196.452416,4.72214086052189
1200.26893,43.940926555109414
1204.079844,26.16753618965587
1207.88517,-63.37912579278728
1211.684917,-55.93752566413153
1215.479098,134.93948313760401
1219.267722,262.0303786064153
1223.050801,141.50560332642488
1226.828346,36.465242102830224
1230.600366,89.13158194558893
1234.366874,81.81943534836408
1238.12788,9.572847458612717
1241.883395,75.97774222731276
1245.633429,213.04898461104537
1249.377994,197.41070069463368
1253.1171,73.51964352006341
1256.850759,16.196323008847525
1260.578981,34.497286364317496
1264.301776,78.28371568808129
1268.019157,63.671838832666324
1271.731133,-40.31120434425354
1275.437715,-11.804508295986565
1279.138915,195.04991200965293
1282.834743,225.675668258782
1286.52521,24.118804127095807
1290.210328,-31.6686376624463
1293.890106,142.2893287355421
1297.564555,244.5151996770797
1301.233688,177.83550093144834
1304.897514,148.3486380742629
1308.556044,182.57092426415355
1312.209289,102.6896308824641
1315.857261,13.676535377161898
1319.499969,120.35209463313372
1323.137425,260.1358579769136
1326.769641,262.6337450198441
1330.396626,212.69866959265573
1334.018391,149.6908984225781
1337.634948,72.21968353640571
1341.246307,22.853202881390615
1344.85248,-7.864292988573766
1348.453477,-43.63293096714059
1352.049309,-56.028778317992504
1355.639987,9.549826556240987
1359.225522,113.26483526961682
1362.805925,120.37683223507311
1366.381207,28.950396722631325
1369.951379,-13.792381324929746
1373.516452,32.54983922144048
1377.076436,55.09582841709853
1380.631343,27.005026481704796
1384.181184,40.48692544629893
1387.725969,60.97620169445784
1391.26571,16.3075284570805
1394.800417,23.609475761088905
1398.330102,136.88476195140316
1401.854776,200.86511495319243
1405.374448,127.51754200413495
1408.889132,-16.484244912414113
1412.398837,-65.99795560194548
1415.903574,80.505972420561
1419.403355,223.7199789809869
1422.89819,201.7836076220366
1426.388091,183.88830562276075
1429.873069,229.49805177380597
1433.353134,225.3164045229574
1436.828298,217.88668412710848
1440.298571,209.28871733659653
1443.763965,79.94009684981526
1447.224491,-57.45389385362438
1450.68016,-5.00649306094644
1454.130983,116.87967200107343
1457.576971,142.70621038062092
1461.018135,169.0702553128562
1464.454486,208.0821201290654
1467.886036,132.64028771196985
1471.312794,26.374761390327567
1474.734774,39.88405096731366
1478.151985,127.06939591559946
1481.564439,143.8228279081728
1484.972146,28.886135250232687
1488.375119,-59.12989949239202
1491.773368,23.797831635391553
1495.166904,85.11200437982042
1498.555739,6.750241415535605
1501.939883,-15.875186406168801
1505.319349,39.17839470429443
1508.694146,34.69452243518612
1512.064286,-16.954527735359335
1515.429781,-39.33835619308499
1518.790642,23.93924241326862
1522.146879,91.62043608948693
1525.498505,23.530491320667583
1528.845529,-64.26198480181957
1532.187965,-14.130302850554507
1535.525822,95.57641924319736
1538.859112,145.5692785285829
1542.187846,118.58191987832663
1545.512036,134.12085092080946
1548.831693,258.5282547123791
1552.146829,280.00947225142096
1555.457453,118.3368066018426
1558.763579,38.3671295667657
1562.065216,157.67591679352137
1565.362377,338.0124077140414
1568.655073,459.60337967701565
1571.943315,461.5639474094813
1575.227114,424.98457741697104
1578.506482,522.7075881187895
1581.781431,690.4092356799556
1585.051971,765.2502823418137
1588.318114,805.4126277422139
1591.579872,830.3689251336576
1594.837255,706.0148556104494
1598.090275,498.41246277196944
1601.338945,393.4338060974262
1604.583274,317.0184572251283
1607.823275,145.8409327844874
1611.058959,1.6761265244075787
1614.290338,-38.66189168961819
1617.517422,-24.025877385271784
1620.740224,61.994129576172526
1623.958755,149.70090480821116
1627.173027,118.63112471799211
1630.38305,19.04621291115175
1633.588838,0.8372378570960919
1636.7904,137.94487756260338
1639.987749,238.00472022671028
1643.180896,113.27897124020332
1646.369853,28.216111793805332
1649.554632,128.5790237820316
1652.735244,105.85538046513608
1655.9117,9.413884168890227
1659.084013,105.73125960659613
1662.252193,152.97679744268504
1665.416254,10.354756401704918
1668.576205,-6.7349760636145035
1671.732059,132.8169268261568
1674.883828,157.90163540863887
1678.031523,37.139777447375366
1681.175157,-58.04409228021027
1684.314739,-18.164193351929896
1687.450284,64.49009675756557
1690.581801,27.532254354289577
1693.709304,-32.49500256138022
1696.832803,14.707449711884134
1699.952311,22.608151813491645
1703.067839,14.056781266565546
1706.179399,168.19898058785586
1709.287003,264.31661871166
1712.390663,142.85907605706046
1715.49039,87.48330946081947
1718.586197,146.48627793105442
1721.678095,92.03241565763042
1724.766096,-20.036062452579962
1727.850213,-31.96007521963959
1730.930456,3.0144360441008473
1734.006838,3.685387373537054
1737.079372,22.360187523618265
1740.148067,122.48432877287593
1743.212938,220.60981241935684
1746.273996,213.6228981447776
1749.331252,148.03173273374426
1752.384718,94.00990938512825
1755.434408,84.02895424021789
1758.480332,135.549571844568
1761.522503,134.81488755660078
1764.560933,5.332597594681445
1767.595634,-43.16997869134738
1770.626618,102.01899911110715
1773.653896,172.22521209063777
1776.677482,61.72537854027469
1779.697388,43.55955901217449
1782.713625,204.57665962047125
1785.726205,310.92351550326356
1788.735141,208.37559926191472
1791.740445,11.382800736989871
1794.742129,0.14966275683821983
1797.740206,219.3384944461714
1800.734687,311.97935452365056
1803.725585,149.73735259463666
1806.712912,60.023374593004974
1809.69668,104.06218662365784
1812.676902,36.74836101408768
1815.65359,-61.864373351484915
1818.626756,-23.291739071831657
1821.596413,8.536426271972037
1824.562573,-24.618232892973346
1827.525247,19.14400884306382
1830.48445,83.15668528838918
1833.440192,32.487613118954
1836.392487,-20.507296309447074
1839.341347,15.559978991684957
1842.286784,12.604060737537493
1845.22881,-3.8347069752171627
1848.167439,89.9001494482681
1851.102682,117.91606875765399
1854.034553,27.749370125395384
1856.963063,107.53959295240136
1859.888226,285.3066389025214
1862.810053,262.8015220290143
1865.728557,140.49336154656032
1868.643751,27.358107218648307
1871.555648,-89.65943251962456
1874.46426,-16.94851147962126
1877.369599,173.4660365553658
1880.271679,156.93085602398645
1883.170512,82.38311485444879
1886.06611,149.497154178831
1888.958487,126.29172208116958
1891.847655,11.81175277075829
1894.733626,39.03638071449733
1897.616414,75.53836766843891
1900.496032,1.1501624372658252
1903.372491,12.233519804829402
1906.245805,136.03613734304884
1909.115987,203.00971170790703
1911.983049,198.07075137785858
1914.847004,206.9520512174868
1917.707866,218.23918388103417
1920.565646,145.81727465360981
1923.420359,12.104501514748037
1926.272016,-59.45206485864944
1929.120631,-40.85069696024533
1931.966216,0.16691861102938388
1934.808786,31.4145215197832
1937.648351,35.35065590025448
1940.484927,-16.369295765661022
1943.318525,28.89325349235998
1946.149158,319.83970241845907
1948.97684,512.9074316961048
1951.801584,299.38380383009263
1954.623403,38.47648489921093
1957.44231,9.890652005603457
1960.258318,-9.316762681634
1963.071439,-72.44456150376517
1965.881688,-18.97068080381009
1968.689078,65.88257230535426
1971.493621,39.831776931141626
