Raman shift cm-1,4ATP_10fM_rep3_acc1_processed_intensity
-93.47115107,676.0272806402429
-87.69374369,57.67787162375495
-81.9253076,-59.044832584081206
-76.16582701,121.44517907416171
-70.41528615,138.36622369019926
-64.67366933,-11.392769251481885
-58.94096086,-45.00517010952813
-53.21714512,13.31130399435775
-47.50220652,30.047444091809993
-41.79612954,104.28819471426073
-36.09889866,206.00329271665345
-30.41049843,188.0899533703267
-24.73091343,151.98132902255423
-19.0601283,202.2513348908826
-13.39812769,182.60004904027483
-7.744896327,42.81483436936317
-2.100418946,-13.646033346893233
3.535319659,-4.950642234103881
9.162334658,-39.73540152284558
14.78064118,-5.456718767186672
20.39025432,36.507839519101815
25.99118913,48.87948333992796
31.58346061,168.75440511668182
37.16708375,198.90656290744076
42.74207347,48.11134897319565
48.30844468,8.729657324404235
53.86621222,30.115043225353837
59.41539093,-96.16450194373711
64.95599558,-101.07899399873321
70.48804091,122.31457713666018
76.01154164,111.80286624941157
81.52651243,-72.08044403742817
87.03296792,66.67012968407218
92.5309227,203.93627254458974
98.02039134,37.962208911574514
103.5013884,38.25529308615357
108.9739282,132.26852115220237
114.4380255,-4.842444113099843
119.8936944,68.57575524098291
125.3409495,318.7329343642037
130.779805,126.48609370700575
136.2102753,-148.62327908664614
141.6323747,11.20438985570627
147.0461174,159.636080834965
152.4515176,58.99103692007627
157.8485895,-7.4580483407462985
163.2373472,5.456715048575521
168.6178049,89.79105654056745
173.9899766,156.7178417395663
179.3538764,33.131382419709965
184.7095182,-24.42566446484835
190.0569161,149.82997904414646
195.396084,194.21579094924437
200.7270358,23.190459868910587
206.0497854,-54.222305392465664
211.3643466,18.890745015450143
216.6707333,65.78017477922143
221.9689593,4.805454073086848
227.2590382,-59.259712481823286
232.5409839,-33.117446590769376
237.8148101,3.0978810848230687
243.0805303,18.59904069472786
248.3381582,34.90610923444632
253.5877075,-10.34712093193101
258.8291917,-38.68544456856464
264.0626244,66.5739048114863
269.288019,177.64699204628425
274.5053891,166.13499095645142
279.7147481,73.72034693697584
284.9161094,-49.15837921762713
290.1094865,-86.00483509808568
295.2948927,154.6239703658129
300.4723414,562.7060615654964
305.6418459,911.489872759366
310.8034194,1329.0131999932576
315.9570752,1793.0531597728327
321.1028267,1960.410133034159
326.2406869,1854.8220890692705
331.370669,1792.6934986067834
336.4927863,1834.7085980980796
341.6070517,1857.5217970422857
346.7134786,1871.7191656843834
351.8120798,1865.2471542848828
356.9028684,1790.3420389515275
361.9858576,1738.2816640741014
367.0610602,1649.8820847280933
372.1284892,1549.657888276568
377.1881577,1674.4159880840318
382.2400784,1930.7837522041686
387.2842644,2174.713807806701
392.3207284,2386.078489348441
397.3494833,2382.183655809707
402.370542,2068.9123356696373
407.3839172,1584.6472248277662
412.3896217,1177.0326514162498
417.3876683,915.49957447421
422.3780697,672.261890538216
427.3608386,521.6251109648848
432.3359876,581.8118595293441
437.3035295,674.1502807494201
442.2634769,527.4867674556069
447.2158423,207.57599292463988
452.1606383,12.599305877788083
457.0978776,9.589906442383608
462.0275727,113.92656654467214
466.9497361,209.5295297606799
471.8643802,225.0173765373528
476.7715176,215.37244606287948
481.6711608,161.97189750066866
486.5633221,147.85116087395056
491.448014,185.76999368741338
496.3252488,68.88651465787166
501.195039,24.554384881737178
506.0573969,159.57716157408947
510.9123349,27.510015521534456
515.7598651,-157.7946912454966
520.6,57.63160481492247
525.4327518,219.55010283897926
530.2581327,48.33646150848486
535.076155,-49.98749149238617
539.8868309,-35.44866732249176
544.6901726,-8.645901449094012
549.4861922,195.19141304039908
554.2749019,283.57553937895085
559.0563139,33.0750619567006
563.8304402,-0.09550878126423257
568.597293,236.6601638463523
573.3568844,159.30142828797457
578.1092263,-59.13029790028375
582.8543308,5.146565908129229
587.5922101,119.1419814545697
592.322876,74.07529960503803
597.0463405,34.90139075558238
601.7626157,25.861805522244413
606.4717135,-75.10914401959536
611.1736458,-134.44614842107012
615.8684246,-3.979047127247611
620.5560617,73.78166452672349
625.2365691,-4.387672776838297
629.9099585,51.09916914869631
634.5762419,190.15445397783338
639.2354312,171.76092280268716
643.887538,118.0150748658579
648.5325743,108.11710716386486
653.1705518,55.121465462336026
657.8014823,-33.55206489687848
662.4253775,-72.13014476462537
667.0422493,14.69184770316966
671.6521092,115.10878804365643
676.2549691,74.04323496546021
680.8508407,-8.042248948058308
685.4397355,-21.163541061802494
690.0216654,-32.99139135500138
694.5966419,-14.745553117363025
699.1646767,68.57679513641382
703.7257814,123.74389644289845
708.2799676,189.6930697763888
712.827247,249.04415604336353
717.367631,148.33038808075733
721.9011314,1.743679514508628
726.4277595,-20.587939298860224
730.9475271,16.48530228912413
735.4604456,111.5104168952927
739.9665264,276.8316143131689
744.4657813,308.0490895477949
748.9582215,130.16100402481578
753.4438587,-30.779193154697687
757.9227042,-54.507133507462235
762.3947696,11.592217325635747
766.8600662,179.84560424976783
771.3186056,291.843457307847
775.770399,210.8334108199374
780.215458,148.45958323176174
784.6537939,74.3405416786085
789.0854181,-81.3202282884068
793.510342,0.8067214544414227
797.9285769,185.46080504008273
802.3401342,124.65669879765407
806.7450253,69.86286943865763
811.1432614,106.20729727758784
815.5348538,-0.8344513147176684
819.9198139,-66.28645041103704
824.2981531,41.170474401534854
828.6698824,70.56750795723877
833.0350133,-0.31705201183664755
837.393557,-8.569786786181226
841.7455248,24.685814321041036
846.0909278,32.76898119417325
850.4297774,8.679111448030426
854.7620848,-24.71336897764583
859.0878611,-56.27732107335072
863.4071176,-85.40150762338685
867.7198655,49.129779540176386
872.026116,366.29228017335083
876.3258802,440.94132103562345
880.6191693,234.69606017409416
884.9059946,250.17398407461593
889.186367,355.95095751971405
893.4602979,130.2464128621665
897.7277982,-50.29263510648147
901.9888793,151.86408894323324
906.2435521,280.4669850214322
910.4918277,59.72572190886327
914.7337174,-93.93888988001422
918.9692321,36.261148508185286
923.1983831,132.45688331328955
927.4211813,103.08067702291284
931.6376378,140.75379835014908
935.8477637,232.35927190745707
940.0515701,211.2423008698341
944.249068,21.136893433774134
948.4402684,-88.8145918507075
952.6251825,33.659260702548124
956.8038212,125.21727112851337
960.9761955,64.54437900480713
965.1423166,25.892313025592927
969.3021953,69.21257416325872
973.4558427,46.711973799411254
977.6032699,-40.78017122246257
981.7444877,-13.072991216748449
985.8795072,21.489455069919757
990.0083394,-6.435300644692887
994.1309953,34.49762271064088
998.2474857,-14.31521147490993
1002.357822,-121.39501859079779
1006.462014,-27.16979329051692
1010.560075,145.43608046713538
1014.652013,265.6095833011418
1018.737841,268.9031437875306
1022.81757,63.59861945280285
1026.891209,-80.54825882823587
1030.958771,58.74244178735697
1035.020266,183.884393675872
1039.075705,49.6278829892574
1043.1251,-34.418021735419885
1047.16846,141.56762927823365
1051.205797,222.9101580149421
1055.237121,49.526494023941055
1059.262444,-110.92605118644732
1063.281777,26.050911495871212
1067.295131,570.8132721419804
1071.302515,1142.4131533701905
1075.303942,1424.4907794741562
1079.299422,1527.5423149701396
1083.288966,1248.004672723634
1087.272585,592.7647734698743
1091.250289,151.4753617746034
1095.222091,55.56983536731933
1099.187999,34.351168860418014
1103.148026,-8.86229478452002
1107.102183,-45.297082857824236
1111.050479,-38.93048706328043
1114.992927,-49.45623327789774
1118.929536,-36.658248967086195
1122.860318,34.6813058909506
1126.785283,51.481365754556805
1130.704443,167.30516280980416
1134.617808,465.69735360340366
1138.52539,644.6459411704398
1142.427198,560.2620411474157
1146.323244,353.46602025305486
1150.213538,261.35824548566626
1154.098093,239.54474922044147
1157.976917,65.5494686404995
1161.850023,0.24559051680211041
1165.717421,187.90851191482926
1169.579121,312.2487936234054
1173.435135,311.9471533787079
1177.285474,254.7990240148863
1181.130148,227.77881066307418
1184.969169,343.0124537618474
1188.802547,412.4859198754843
1192.630292,325.520599424712
1196.452416,188.11864045282275
1200.26893,24.14924173846107
1204.079844,-52.64838187727311
1207.88517,-47.05650671668785
1211.684917,-48.73056398957729
1215.479098,154.77812657685746
1219.267722,319.8296838808266
1223.050801,73.52204780519668
1226.828346,-69.8167823173222
1230.600366,69.93615242804255
1234.366874,53.0852290480824
1238.12788,-14.657209073507154
1241.883395,118.98757263633877
1245.633429,291.2987630074282
1249.377994,276.1014898934477
1253.1171,145.7667893424873
1256.850759,118.1891396541366
1260.578981,210.99826501189617
1264.301776,286.986605028597
1268.019157,194.19191540334555
1271.731133,-4.3127941785362225
1275.437715,-14.402155389187072
1279.138915,204.2160361624654
1282.834743,287.91046481106684
1286.52521,45.7813277085041
1290.210328,-154.45730982300933
1293.890106,-62.8254327539221
1297.564555,52.10562928432195
1301.233688,69.39364536272814
1304.897514,136.10707157720302
1308.556044,192.76533124233458
1312.209289,59.990227988183065
1315.857261,-93.89859749854745
1319.499969,66.79916093327242
1323.137425,333.83142782869135
1326.769641,350.7691359181555
1330.396626,317.26185572030016
1334.018391,361.1045018124775
1337.634948,238.93373363001578
1341.246307,29.35484426840597
1344.85248,15.517757653881148
1348.453477,39.37007743172498
1352.049309,-63.24447031503479
1355.639987,-51.83667625666823
1359.225522,62.150955053058055
1362.805925,37.148675730169316
1366.381207,-62.62303885911177
1369.951379,-81.26478712226441
1373.516452,25.850361965199127
1377.076436,118.94581293799054
1380.631343,73.30459129175455
1384.181184,109.84079154214008
1387.725969,254.32168430231735
1391.26571,204.62084146284798
1394.800417,74.38059282683469
1398.330102,124.53947347059179
1401.854776,162.95812578597008
1405.374448,54.928978261280626
1408.889132,-63.031654610520306
1412.398837,-117.60667323547577
1415.903574,11.440750390375996
1419.403355,234.9209567234686
1422.89819,283.048864811725
1426.388091,322.8671420758012
1429.873069,433.38510390452393
1433.353134,367.02834302935696
1436.828298,260.0984684278226
1440.298571,257.56591348079604
1443.763965,149.26073074993235
1447.224491,-29.49913579016038
1450.68016,-35.338982603686844
1454.130983,72.19001219044507
1457.576971,131.58824536680473
1461.018135,172.01693085243286
1464.454486,193.17188086557138
1467.886036,121.01993088958616
1471.312794,4.153417748258832
1474.734774,15.35827841277115
1478.151985,198.6100778160859
1481.564439,284.3191389860209
1484.972146,117.15584397935821
1488.375119,20.3527731463886
1491.773368,173.30397555195876
1495.166904,256.17497974964544
1498.555739,175.19443922825855
1501.939883,96.85038781078552
1505.319349,3.6757315101133443
1508.694146,-19.461118180669825
1512.064286,4.5021025363058484
1515.429781,-60.138766582566994
1518.790642,15.397930618201741
1522.146879,148.96421060323863
1525.498505,26.89659057601132
1528.845529,-67.95748221745202
1532.187965,7.104433079765116
1535.525822,58.47336164528289
1538.859112,133.05036081746758
1542.187846,166.17963661411076
1545.512036,164.81398075393577
1548.831693,279.6661681297507
1552.146829,258.6435527538478
1555.457453,32.14053401141649
1558.763579,-6.897343250320468
1562.065216,228.35149739554592
1565.362377,470.6142034714701
1568.655073,575.7566945701503
1571.943315,579.8405607393817
1575.227114,569.8543438217191
1578.506482,660.5999489210801
1581.781431,790.567247784977
1585.051971,791.2229780968628
1588.318114,778.3540004804097
1591.579872,792.3413003251563
1594.837255,593.3131769029886
1598.090275,333.6931876735471
1601.338945,358.5135683429653
1604.583274,385.8050444625442
1607.823275,129.31996255976625
1611.058959,-38.28167382701431
1614.290338,-7.909218270541267
1617.517422,-3.3537441320396155
1620.740224,107.84606878924215
1623.958755,205.06276136265907
1627.173027,37.0636988806385
1630.38305,-65.50282394570503
1633.588838,37.18051341882546
1636.7904,121.51214676346314
1639.987749,180.19383077325543
1643.180896,163.41769783362105
1646.369853,122.55670469828458
1649.554632,162.25946029610387
1652.735244,56.70560547352104
1655.9117,-68.69247520196723
1659.084013,54.55675556339902
1662.252193,95.22343449417426
1665.416254,-23.809114775282517
1668.576205,41.57354555136881
1671.732059,164.90633869370723
1674.883828,108.8828609876527
1678.031523,14.372648946177105
1681.175157,-25.925317888650003
1684.314739,-34.42346530131116
1687.450284,15.225125818839432
1690.581801,20.16887025779848
1693.709304,-60.85514662558036
1696.832803,-42.00540407732917
1699.952311,32.83465104741164
1703.067839,7.096925809846297
1706.179399,52.55150824387025
1709.287003,177.0286353696236
1712.390663,122.33984710877738
1715.49039,23.802040411255575
1718.586197,105.87782085456843
1721.678095,159.9907661401828
1724.766096,30.301244975197307
1727.850213,-72.51322010767426
1730.930456,-25.325305253706162
1734.006838,-6.227554561301574
1737.079372,-59.143883061533344
1740.148067,18.050636538164184
1743.212938,148.11494510132553
1746.273996,103.8616560638926
1749.331252,25.310042353651355
1752.384718,38.60610120956373
1755.434408,40.34362227520684
1758.480332,66.21083113461637
1761.522503,70.01738812460152
1764.560933,-96.8564968494966
1767.595634,-161.9947515878132
1770.626618,68.6107241922645
1773.653896,153.25998411821655
1776.677482,-16.03470538285319
1779.697388,28.061854610372954
1782.713625,223.47451229456706
1785.726205,240.6502675798453
1788.735141,150.23154147142557
1791.740445,31.99096911813156
1794.742129,13.40149197277827
1797.740206,188.42658142281442
1800.734687,291.0359080954128
1803.725585,223.40544224836347
1806.712912,168.32780811805702
1809.69668,121.08729255446501
1812.676902,-7.057027019800268
1815.65359,-90.60614103620043
1818.626756,-10.90995376411424
1821.596413,39.768982955150605
1824.562573,-28.26577061629549
1827.525247,-15.418916995733726
1830.48445,56.734949883837444
1833.440192,36.1553568131316
1836.392487,14.168602290008929
1839.341347,43.75902623535529
1842.286784,-10.403009770863228
1845.22881,-70.66952669467929
1848.167439,47.03618299900948
1851.102682,119.66182561518242
1854.034553,-31.553146380701797
1856.963063,-20.791586855762926
1859.888226,219.68761126036827
1862.810053,200.12993269837756
1865.728557,27.156461884089637
1868.643751,22.67308803242252
1871.555648,-38.18499457243385
1874.46426,-61.18236679116006
1877.369599,93.35884424943586
1880.271679,67.75932164197644
1883.170512,-7.320083256003464
1886.06611,110.32220201556983
1888.958487,118.39652764961801
1891.847655,57.39063767172064
1894.733626,94.68264297548684
1897.616414,-11.384158278086645
1900.496032,-148.88119585601353
1903.372491,-44.77988986046472
1906.245805,63.156674682769804
1909.115987,45.66814522743235
1911.983049,45.39295728153729
1914.847004,34.85107082959958
1917.707866,36.94755569744285
1920.565646,59.74962603000838
1923.420359,-9.243781338512298
1926.272016,-82.48159769183158
1929.120631,-68.58655445950251
1931.966216,-40.55088574410227
1934.808786,-0.12225736683091881
1937.648351,48.32131199497741
1940.484927,14.76305290934397
1943.318525,16.717596329378946
1946.149158,276.93331490422406
1948.97684,503.35929976137385
1951.801584,339.1314308511289
1954.623403,138.5789038679732
1957.44231,117.08827501234884
1960.258318,5.807529808128152
1963.071439,-85.64296515125615
1965.881688,13.4766232498895
1968.689078,73.59387783357558
1971.493621,-21.56723159760858
