Raman shift cm-1,4ATP_1mM_rep3_acc5_processed_intensity
-93.47115107,561.2455216144145
-87.69374369,28.631813485551852
-81.9253076,-52.631821126634094
-76.16582701,89.92362962727579
-70.41528615,80.7360432036771
-64.67366933,-95.36487653411743
-58.94096086,-128.05432810207284
-53.21714512,-44.80607874844439
-47.50220652,-45.060944628829056
-41.79612954,3.348001080160266
-36.09889866,117.88605983279348
-30.41049843,153.3358909419107
-24.73091343,86.97379158703754
-19.0601283,51.72546684221669
-13.39812769,29.868832158366487
-7.744896327,-80.935347411618
-2.100418946,-49.079562329283675
3.535319659,30.34966182926528
9.162334658,-25.692458404255973
14.78064118,-3.4343091718798533
20.39025432,-45.629021090645175
25.99118913,-35.2379184635693
31.58346061,122.89127947076886
37.16708375,80.94956333551217
42.74207347,33.12074860193727
48.30844468,-8.26126377008029
53.86621222,-77.12490583856311
59.41539093,-52.46255041992541
64.95599558,-88.48768549040476
70.48804091,80.99543381376935
76.01154164,161.8857155829976
81.52651243,-129.68979710570542
87.03296792,16.72025218263249
92.5309227,278.2287166000857
98.02039134,22.9286984286145
103.5013884,-13.653757099179472
108.9739282,109.5281841494651
114.4380255,-28.646352605003734
119.8936944,107.62840125649092
125.3409495,287.2074740865728
130.779805,62.68005053171618
136.2102753,-115.90381667725259
141.6323747,-45.510476276125736
147.0461174,31.439067622265213
152.4515176,-7.706045360620031
157.8485895,-49.92961753905528
163.2373472,-87.49715405070359
168.6178049,-28.233897392661802
173.9899766,155.45753281797596
179.3538764,103.37894520212207
184.7095182,11.431868261977655
190.0569161,97.91037678877098
195.396084,55.85276907550882
200.7270358,-3.9264102213132617
206.0497854,-6.060799934357114
211.3643466,-40.56709825312145
216.6707333,-13.362233983682266
221.9689593,-12.802521588815644
227.2590382,0.026962482750853667
232.5409839,12.029815763464022
237.8148101,9.133648438190704
243.0805303,64.91822185550923
248.3381582,-48.51593490579158
253.5877075,-74.04705413399867
258.8291917,103.86273167532565
264.0626244,30.91819964490894
269.288019,-29.31659435878003
274.5053891,38.348937642438855
279.7147481,-105.82199517903211
284.9161094,-160.3912185120687
290.1094865,79.82757419641925
295.2948927,1025.9726696369246
300.4723414,3530.806795471777
305.6418459,7105.191678683363
310.8034194,10362.341848050002
315.9570752,12346.75132867471
321.1028267,13127.555225695978
326.2406869,13591.193399644542
331.370669,13833.84279764253
336.4927863,13813.400636310485
341.6070517,13993.475734011336
346.7134786,14218.829156227173
351.8120798,14155.321770370745
356.9028684,13838.697565249577
361.9858576,13634.684864837298
367.0610602,13679.855508274699
372.1284892,13752.520440904224
377.1881577,14319.767542724
382.2400784,15830.483144721138
387.2842644,17718.513070268084
392.3207284,18722.31095802419
397.3494833,18297.84924722491
402.370542,17471.98394347675
407.3839172,16554.19952056186
412.3896217,15215.64625410123
417.3876683,13893.993108262766
422.3780697,12713.360424486305
427.3608386,11776.530161862302
432.3359876,11223.334981505974
437.3035295,10892.679758711525
442.2634769,10288.695482554585
447.2158423,9304.539037505692
452.1606383,8580.068682307701
457.0978776,8141.519024040718
462.0275727,8096.1154922575
466.9497361,7973.6169157882
471.8643802,6981.7576355598085
476.7715176,6219.80505808055
481.6711608,6285.11567375618
486.5633221,6207.338209855529
491.448014,5738.34147722043
496.3252488,5314.062350000596
501.195039,4875.645991207271
506.0573969,4368.302193071144
510.9123349,3849.5489372751763
515.7598651,3359.7296970468615
520.6,3162.741918906526
525.4327518,2928.862845345393
530.2581327,2376.995926537018
535.076155,2013.1487951969484
539.8868309,1916.7220412496881
544.6901726,1559.330569224925
549.4861922,1117.3528293641903
554.2749019,844.87537855546
559.0563139,348.6092829434947
563.8304402,34.27258787209939
568.597293,232.46707311377577
573.3568844,245.93826797779548
578.1092263,93.2112141865091
582.8543308,229.85761863759217
587.5922101,118.44743315334745
592.322876,-228.3442404012403
597.0463405,-128.02819363021626
601.7626157,13.43051595741781
606.4717135,23.701172418095666
611.1736458,87.56649152938553
615.8684246,79.79827920348544
620.5560617,41.17887252945911
625.2365691,8.065633550395432
629.9099585,452.01312174403756
634.5762419,1093.739062013252
639.2354312,1297.3701079512412
643.887538,1362.9494619567395
648.5325743,984.5708194607178
653.1705518,294.11633343789254
657.8014823,49.87902623620994
662.4253775,-26.437224704934124
667.0422493,-3.00286768575279
671.6521092,116.35498111817469
676.2549691,-94.53523720917292
680.8508407,-202.5119272912616
685.4397355,10.681917992708804
690.0216654,12.172131416334196
694.5966419,178.81037498746446
699.1646767,684.7781867988879
703.7257814,961.9535247150916
708.2799676,1246.0400701581157
712.827247,1536.783050847981
717.367631,1424.6888932138272
721.9011314,1098.8911277446377
726.4277595,730.7961625219032
730.9475271,496.04420546640904
735.4604456,581.038675505637
739.9665264,734.9890360293111
744.4657813,789.891429535538
748.9582215,632.8466597698643
753.4438587,284.198712401344
757.9227042,204.3676074776895
762.3947696,102.24848748585327
766.8600662,-59.31932817303186
771.3186056,229.08549091886698
775.770399,317.23165832405493
780.215458,97.75584724266446
784.6537939,-16.203180933703152
789.0854181,-147.9936351251372
793.510342,40.5786606469037
797.9285769,498.2632433909466
802.3401342,675.0179862354307
806.7450253,754.4861901578342
811.1432614,1060.6330359826961
815.5348538,1182.9593517160392
819.9198139,1004.1064109685713
824.2981531,923.4859095211407
828.6698824,725.3338038083323
833.0350133,405.3070580906233
837.393557,334.2477506128605
841.7455248,215.79869815131747
846.0909278,45.63504773824002
850.4297774,88.49261054503313
854.7620848,60.82229965987335
859.0878611,-38.83400253824266
863.4071176,-34.61497676455349
867.7198655,69.93218498824194
872.026116,313.6857752694009
876.3258802,391.5246985277796
880.6191693,186.7749152068916
884.9059946,168.82695258542736
889.186367,221.6091346387771
893.4602979,-90.88009430169797
897.7277982,-335.4365165284572
901.9888793,-131.7201301737863
906.2435521,85.12501673273258
910.4918277,-26.867819318007037
914.7337174,-74.06784310498074
918.9692321,112.40140807685492
923.1983831,82.92487090015226
927.4211813,95.03594280251536
931.6376378,190.76261895602158
935.8477637,8.128720314830957
940.0515701,84.90408534371102
944.249068,279.1668152847009
948.4402684,163.91631471701885
952.6251825,112.81768961811798
956.8038212,235.65652878991182
960.9761955,341.9470547176749
965.1423166,234.73327183439574
969.3021953,87.2978708916894
973.4558427,33.410062889242994
977.6032699,-61.05102895967471
981.7444877,-38.135536992718485
985.8795072,-21.554732717196842
990.0083394,-54.028881821694554
994.1309953,199.63976233825557
998.2474857,610.1587775169428
1002.357822,1496.483528533211
1006.462014,2727.409268674037
1010.560075,2773.1412679700748
1014.652013,1696.1977708938111
1018.737841,856.0117318760065
1022.81757,427.7923666271979
1026.891209,-15.178923685969622
1030.958771,-76.9254589565345
1035.020266,430.5367013662393
1039.075705,604.6600311444475
1043.1251,761.6422828825741
1047.16846,1362.5293298464858
1051.205797,1815.6273100169597
1055.237121,2511.6209416883785
1059.262444,3723.9635971896178
1063.281777,6069.43008046969
1067.295131,10650.952513648825
1071.302515,15979.17496448039
1075.303942,20287.96583350486
1079.299422,22286.02092954407
1083.288966,19398.974493599984
1087.272585,12781.09255582678
1091.250289,6883.945810549046
1095.222091,3267.9927198309133
1099.187999,1329.0824264899068
1103.148026,431.43653408876776
1107.102183,56.43429913832415
1111.050479,-53.08137971076917
1114.992927,8.963424857611244
1118.929536,427.6718995314286
1122.860318,1079.351874514703
1126.785283,2286.968001830699
1130.704443,5161.587591858172
1134.617808,9548.35845482272
1138.52539,14018.80774550348
1142.427198,16144.806772643096
1146.323244,13995.130535540045
1150.213538,9774.240075590094
1154.098093,6511.0050043362935
1157.976917,4677.967928428571
1161.850023,4557.5533205029105
1165.717421,5332.321219633415
1169.579121,5885.933395966638
1173.435135,6144.072948120684
1177.285474,5764.045918933409
1181.130148,5402.565228338039
1184.969169,5315.121167444556
1188.802547,4634.455693986041
1192.630292,3397.016358049382
1196.452416,2066.5035272066716
1200.26893,868.0472133979811
1204.079844,104.70216787775053
1207.88517,5.15689857957932
1211.684917,27.04334472674327
1215.479098,179.58892684633656
1219.267722,394.6558448058777
1223.050801,71.24881543606034
1226.828346,48.404028934609414
1230.600366,156.17269470232668
1234.366874,-98.036885803715
1238.12788,-53.87766479024276
1241.883395,-34.77566717777472
1245.633429,-3.665924517617441
1249.377994,96.35948720933493
1253.1171,61.94196477342484
1256.850759,172.29568487297865
1260.578981,213.41214385205012
1264.301776,209.86751245940513
1268.019157,44.47384523921164
1271.731133,-247.73090121333144
1275.437715,-166.181014561334
1279.138915,99.42728740300208
1282.834743,282.98159159549186
1286.52521,59.121413208592
1290.210328,-114.69092377601828
1293.890106,343.8208704730937
1297.564555,620.902487239413
1301.233688,804.8549372532648
1304.897514,1158.1659357810881
1308.556044,1171.9204970321944
1312.209289,897.9186455320623
1315.857261,499.8000751068789
1319.499969,529.1880353736965
1323.137425,745.9457802663424
1326.769641,663.3497395156696
1330.396626,763.8324228238662
1334.018391,660.5264617151988
1337.634948,421.8883394207587
1341.246307,421.14074035316116
1344.85248,229.66980205097389
1348.453477,102.59447761055162
1352.049309,93.36955027282602
1355.639987,205.52904754874544
1359.225522,427.1379857518232
1362.805925,363.6241689807084
1366.381207,470.5125686134379
1369.951379,806.0656809039156
1373.516452,1112.200482680836
1377.076436,1558.1108570451015
1380.631343,2262.4240075744638
1384.181184,3701.0864902618223
1387.725969,5687.165192116515
1391.26571,7052.10234859786
1394.800417,6592.450952648759
1398.330102,4559.839892067536
1401.854776,2500.9225157870596
1405.374448,1008.756799524127
1408.889132,106.62222815334644
1412.398837,-152.875189043295
1415.903574,250.83587997045652
1419.403355,1199.732924515325
1422.89819,2482.429888281955
1426.388091,4597.937283400879
1429.873069,7265.223505666002
1433.353134,9281.314443365787
1436.828298,10170.506752713369
1440.298571,9818.510194202889
1443.763965,8323.10324199202
1447.224491,6231.975318792713
1450.68016,4303.055484226653
1454.130983,2832.1019553113183
1457.576971,1795.3277198737633
1461.018135,1260.6881239492532
1464.454486,1021.6610624396089
1467.886036,1101.6174794797635
1471.312794,1398.7707216575054
1474.734774,1523.7919595555522
1478.151985,1378.1549781707745
1481.564439,943.7502500092678
1484.972146,510.877779272726
1488.375119,395.4637849949095
1491.773368,473.6033954385821
1495.166904,339.856296956631
1498.555739,13.876242906540028
1501.939883,-140.22659474766533
1505.319349,-152.94357358456728
1508.694146,-7.6185830325093775
1512.064286,182.54387814566326
1515.429781,85.57454513483844
1518.790642,59.5521667271305
1522.146879,220.5551808371556
1525.498505,53.33963727594528
1528.845529,108.84042874118222
1532.187965,655.335185662756
1535.525822,1121.9309887654445
1538.859112,1737.739277912544
1542.187846,2257.675640357119
1545.512036,2542.2511883711195
1548.831693,3146.3620416720787
1552.146829,3814.1856681097443
1555.457453,4161.259092905371
1558.763579,4476.378228056443
1562.065216,5248.022469713654
1565.362377,6219.492128055422
1568.655073,7002.320469232038
1571.943315,7653.877543110547
1575.227114,8182.179827752132
1578.506482,8578.918184784514
1581.781431,8403.884479924363
1585.051971,7888.797266665913
1588.318114,7716.5216338902555
1591.579872,7211.235810574155
1594.837255,6001.367293142427
1598.090275,4489.072544793336
1601.338945,2979.1624886557
1604.583274,1947.0787743809792
1607.823275,1160.027997564745
1611.058959,623.935480372149
1614.290338,596.4226515912942
1617.517422,450.979473807623
1620.740224,406.9701118153803
1623.958755,538.7169734209224
1627.173027,257.75125689274046
1630.38305,57.15625650260881
1633.588838,27.187629832066932
1636.7904,70.24934064476997
1639.987749,378.0751088514171
1643.180896,248.7669082091861
1646.369853,-94.70843583302815
1649.554632,57.24244625744859
1652.735244,-5.258291957250776
1655.9117,-237.37379119198795
1659.084013,90.69250647437497
1662.252193,223.71013417116188
1665.416254,-113.95302391155744
1668.576205,-44.18482171576039
1671.732059,231.08638174287162
1674.883828,178.42806809169764
1678.031523,88.65277971235398
1681.175157,141.73762387460064
1684.314739,60.10036100641908
1687.450284,-40.090393609086746
1690.581801,40.40649108118892
1693.709304,-45.17169671694047
1696.832803,-87.01949818475855
1699.952311,45.800573886018576
1703.067839,27.231675127227447
1706.179399,178.43948240910274
1709.287003,282.7077148338543
1712.390663,85.06573178655945
1715.49039,82.60905337904181
1718.586197,192.95397311050053
1721.678095,184.2295432721904
1724.766096,10.471590979557545
1727.850213,-176.24811533974182
1730.930456,-58.03092674308884
1734.006838,55.723268857048474
1737.079372,-49.16565546954567
1740.148067,55.96676007978643
1743.212938,216.71228938770062
1746.273996,67.0517314797389
1749.331252,20.538509972646228
1752.384718,104.86691876657487
1755.434408,60.22306862706944
1758.480332,27.852623623707636
1761.522503,9.537595293960525
1764.560933,-130.7774411304327
1767.595634,-250.86573693430637
1770.626618,-9.602102236867339
1773.653896,124.96432898085432
1776.677482,-133.83487089706782
1779.697388,-76.5883013079107
1782.713625,107.35641132585835
1785.726205,48.697830258500616
1788.735141,83.41791552069022
1791.740445,25.601565345885234
1794.742129,-71.22142929662482
1797.740206,109.3441133577795
1800.734687,204.47669401051857
1803.725585,60.016682480199535
1806.712912,-7.6684731746333625
1809.69668,72.82553152867443
1812.676902,6.654973707962782
1815.65359,-137.3764151487761
1818.626756,-56.71630262960976
1821.596413,-14.528487990146475
1824.562573,-62.619884524016584
1827.525247,-10.280146862693952
1830.48445,16.2812332915394
1833.440192,10.345640810602344
1836.392487,26.86068243597005
1839.341347,44.16276523973503
1842.286784,-2.033022213905795
1845.22881,-41.04673622706359
1848.167439,28.40426844502232
1851.102682,39.86028619077874
1854.034553,-23.977387346799695
1856.963063,46.17339151045955
1859.888226,200.10842528656264
1862.810053,124.87881225032042
1865.728557,-39.86175794650027
1868.643751,-38.16712269863515
1871.555648,-149.23441189613396
1874.46426,-155.85606439987595
1877.369599,90.73382271189324
1880.271679,62.22922959672678
1883.170512,-33.509744456464084
1886.06611,44.358392108030316
1888.958487,53.73345025108323
1891.847655,38.928381336572905
1894.733626,40.74332776226027
1897.616414,-7.786607287540643
1900.496032,-87.5820187376051
1903.372491,-24.09392670484583
1906.245805,170.44723692827634
1909.115987,238.399048366113
1911.983049,80.3483166972538
1914.847004,-11.670737007463654
1917.707866,69.36110314239187
1920.565646,-5.951849540993898
1923.420359,-47.50601083349319
1926.272016,-24.171300889420998
1929.120631,-111.08285824605694
1931.966216,-48.95064909420144
1934.808786,-12.135809814814719
1937.648351,5.321195059818301
1940.484927,80.15516684377764
1943.318525,14.766724220472561
1946.149158,185.8423667494123
1948.97684,401.68493725970995
1951.801584,216.77149194879797
1954.623403,102.26566206718411
1957.44231,116.68908436334168
1960.258318,-15.671008357060167
1963.071439,-139.66521966578253
1965.881688,-26.332672851584604
1968.689078,168.110065812748
1971.493621,5.403539180044939
