Raman shift cm-1,4ATP_1uM_rep3_acc4_processed_intensity
-93.47115107,587.9610471300548
-87.69374369,48.297277662628495
-81.9253076,-56.595267812050096
-76.16582701,1.613652067304102
-70.41528615,82.14041720684023
-64.67366933,-60.7254025572567
-58.94096086,-37.94332565529311
-53.21714512,-94.72467498140905
-47.50220652,-2.0774072529022565
-41.79612954,81.77781803288693
-36.09889866,200.121215315942
-30.41049843,189.46649946174597
-24.73091343,43.316985827885745
-19.0601283,67.12420897094901
-13.39812769,40.88441071662427
-7.744896327,-39.76221971805065
-2.100418946,-57.80475632274947
3.535319659,162.43840243180375
9.162334658,-86.46728713412544
14.78064118,70.87421717039832
20.39025432,-82.62569253571174
25.99118913,54.996821726090104
31.58346061,268.90802624136916
37.16708375,96.80490121493385
42.74207347,14.358965582976282
48.30844468,67.21773142792058
53.86621222,-10.273271244087287
59.41539093,-127.80870236840644
64.95599558,-100.94779282485365
70.48804091,67.56037354753559
76.01154164,88.56160776334457
81.52651243,-196.50677196228182
87.03296792,59.097545487911944
92.5309227,153.93402172945417
98.02039134,-25.31523099295047
103.5013884,80.9988340404898
108.9739282,-1.152981118930092
114.4380255,5.936659642960734
119.8936944,95.69662994413359
125.3409495,455.6998863715058
130.779805,50.646317042694065
136.2102753,-140.47660902910147
141.6323747,-17.781063975341308
147.0461174,174.83874525160644
152.4515176,30.918246881147986
157.8485895,-70.59186708091404
163.2373472,-32.12920509249243
168.6178049,-58.398764521124875
173.9899766,85.39531319365327
179.3538764,-23.37211879867889
184.7095182,83.26289602663932
190.0569161,8.143042223725928
195.396084,73.41470398710946
200.7270358,-18.712797963689397
206.0497854,92.57743630581501
211.3643466,-120.74564596909579
216.6707333,59.98584544793912
221.9689593,-79.25859733497578
227.2590382,29.29447470720119
232.5409839,58.264073199283125
237.8148101,38.49505679989625
243.0805303,11.759714757873013
248.3381582,-99.54836267801073
253.5877075,-46.35528382569809
258.8291917,-9.977170037048154
264.0626244,34.01631429597393
269.288019,102.96203368647537
274.5053891,7.055914721407596
279.7147481,-46.78938313373049
284.9161094,-198.2975670653487
290.1094865,76.54613938128406
295.2948927,820.2315168704333
300.4723414,2801.651924191339
305.6418459,5386.409343653002
310.8034194,7663.909877316728
315.9570752,9023.092822860584
321.1028267,9298.41875470852
326.2406869,9300.184528965388
331.370669,9421.618549141185
336.4927863,9662.027829089848
341.6070517,9734.125221878314
346.7134786,10112.083273521988
351.8120798,10047.025883368975
356.9028684,9895.167470497401
361.9858576,9539.015619312813
367.0610602,9452.573030574973
372.1284892,9090.640560115336
377.1881577,9288.557439473127
382.2400784,9684.232420399972
387.2842644,10394.283125128306
392.3207284,10822.165322964313
397.3494833,10306.542418957817
402.370542,9552.030644243821
407.3839172,8604.757715752035
412.3896217,7732.124423375886
417.3876683,7142.852213843892
422.3780697,6753.57402256737
427.3608386,6117.226872246585
432.3359876,6027.541923912486
437.3035295,5625.156569899599
442.2634769,5298.188862313511
447.2158423,4695.582631847562
452.1606383,4596.712398784012
457.0978776,4269.678982616705
462.0275727,3807.83438951076
466.9497361,3991.045008778314
471.8643802,3566.6293001466265
476.7715176,3619.763173396331
481.6711608,3780.781415098766
486.5633221,3646.1508555969112
491.448014,3206.7638677497916
496.3252488,2740.252448025446
501.195039,2567.968803714357
506.0573969,2487.3588870285184
510.9123349,1997.6046855183358
515.7598651,1501.962876994753
520.6,1619.2641155628626
525.4327518,1380.4904208316102
530.2581327,1245.9386690256497
535.076155,1026.774982570265
539.8868309,1028.8930250647663
544.6901726,784.8383843549318
549.4861922,551.0904396739979
554.2749019,756.7347143396755
559.0563139,112.83939272975931
563.8304402,72.60184999456669
568.597293,420.43478516971936
573.3568844,276.6647782324735
578.1092263,-151.74630830016395
582.8543308,32.44050780370435
587.5922101,214.76816776984379
592.322876,228.48600838063794
597.0463405,136.9168660261903
601.7626157,74.92399379897688
606.4717135,-125.22264007109698
611.1736458,-30.267985353005315
615.8684246,-31.448031370167882
620.5560617,71.85918714700983
625.2365691,122.04566913466533
629.9099585,86.37728312459603
634.5762419,23.726576741953977
639.2354312,-62.186184874965875
643.887538,79.8971330307395
648.5325743,-37.53327493677352
653.1705518,-94.01692395665032
657.8014823,91.86536477111349
662.4253775,-157.04846498867118
667.0422493,50.455056908921506
671.6521092,6.380750046787398
676.2549691,-39.90215657214503
680.8508407,81.1189451193195
685.4397355,-38.51781877916801
690.0216654,88.27731175433564
694.5966419,-82.25927977639822
699.1646767,307.438991951979
703.7257814,441.4705987946463
708.2799676,393.9797588229203
712.827247,801.3763552099408
717.367631,480.7321560651135
721.9011314,618.2412778730127
726.4277595,263.4757537155024
730.9475271,456.38920837417527
735.4604456,348.8129237617395
739.9665264,461.5069805994003
744.4657813,443.3396757463138
748.9582215,341.07481345365204
753.4438587,299.1825590208141
757.9227042,88.46697339222783
762.3947696,252.381546060009
766.8600662,-100.3267124404947
771.3186056,420.5574092895067
775.770399,-19.6820248673057
780.215458,57.18388550943246
784.6537939,-103.17519282382591
789.0854181,8.38286724160207
793.510342,83.56576673088648
797.9285769,326.93846481667606
802.3401342,166.37330255594247
806.7450253,191.92392764689725
811.1432614,91.47898776170814
815.5348538,81.4753286638645
819.9198139,17.143079097182863
824.2981531,-36.728853687674246
828.6698824,58.35128047231592
833.0350133,-167.28321242218067
837.393557,-75.1290034826917
841.7455248,27.605426711599762
846.0909278,-46.81717580220288
850.4297774,162.04828149192963
854.7620848,42.981452577342
859.0878611,57.892650401251444
863.4071176,-27.971691610541768
867.7198655,268.4250763074476
872.026116,447.19035313912246
876.3258802,572.8293509039861
880.6191693,304.90870252835487
884.9059946,358.29848296826253
889.186367,533.7682713256382
893.4602979,-186.0201379255592
897.7277982,-82.77242146676943
901.9888793,98.87095642343041
906.2435521,292.47874015391426
910.4918277,52.61754477215513
914.7337174,18.633527776081223
918.9692321,-32.114082694720025
923.1983831,177.65529459011265
927.4211813,89.08652278264947
931.6376378,226.87919679532837
935.8477637,90.44505375997022
940.0515701,172.64369484310646
944.249068,-9.679659225216255
948.4402684,-147.68776339503603
952.6251825,30.705168156591128
956.8038212,83.10107688747684
960.9761955,377.624048450815
965.1423166,46.0088693882642
969.3021953,-159.25660460640455
973.4558427,1.8130859648289288
977.6032699,-58.834879303580635
981.7444877,43.992630060576346
985.8795072,95.4264050746051
990.0083394,90.21384636549016
994.1309953,25.39930959552055
998.2474857,34.82212586569952
1002.357822,-112.06558675267995
1006.462014,156.59863668462714
1010.560075,196.91895680815048
1014.652013,71.73362932885784
1018.737841,106.13737790864747
1022.81757,10.048196300702912
1026.891209,-96.68568566919805
1030.958771,-285.34175331842675
1035.020266,35.3287812057737
1039.075705,-34.98837989654899
1043.1251,-62.257377643821
1047.16846,92.47595911395752
1051.205797,85.73316209576983
1055.237121,65.90520601369593
1059.262444,725.5546546845853
1063.281777,1360.89498397129
1067.295131,2736.4175777960213
1071.302515,4089.315973699068
1075.303942,4234.68659942891
1079.299422,3990.282989921332
1083.288966,2752.9943132914073
1087.272585,1439.3464508290572
1091.250289,504.83966082472347
1095.222091,173.53449298158708
1099.187999,-29.453816681352357
1103.148026,78.40286094961955
1107.102183,34.237291816002966
1111.050479,-92.65505114970222
1114.992927,-37.50619632578032
1118.929536,-108.0948013427483
1122.860318,446.9134077613964
1126.785283,762.1333161856546
1130.704443,1813.3816414031385
1134.617808,2975.814149583291
1138.52539,3534.172689582539
1142.427198,3141.1272198129564
1146.323244,2028.9666188852516
1150.213538,1026.2275408926726
1154.098093,675.807958394204
1157.976917,113.21973382763281
1161.850023,72.19278332907868
1165.717421,191.9424061691255
1169.579121,102.03931557375716
1173.435135,448.8837288014068
1177.285474,272.4945894377429
1181.130148,485.98815693452553
1184.969169,777.9213753741299
1188.802547,728.9081619097057
1192.630292,554.3832017826983
1196.452416,206.29728454324092
1200.26893,84.96118906074634
1204.079844,-187.72928215307172
1207.88517,-132.58267922078394
1211.684917,-23.408914420911458
1215.479098,-79.43881031932125
1219.267722,594.2429034588117
1223.050801,-14.935414820695957
1226.828346,18.578160036972132
1230.600366,77.56423455630923
1234.366874,83.03742820145456
1238.12788,206.24493147602942
1241.883395,109.22080057516331
1245.633429,281.4149004403722
1249.377994,313.12665845281015
1253.1171,-123.28277616684026
1256.850759,28.744906242797065
1260.578981,-24.333214923292385
1264.301776,79.19594358051046
1268.019157,-6.621939249630405
1271.731133,-23.144497757406885
1275.437715,-54.908060158018024
1279.138915,93.5299660223053
1282.834743,325.92489443113783
1286.52521,-102.3937381768502
1290.210328,49.22552549737099
1293.890106,-77.28479456938206
1297.564555,623.8309761165885
1301.233688,427.18947059971873
1304.897514,713.2197271543777
1308.556044,539.9739989090534
1312.209289,448.645071380423
1315.857261,0.9281124220072456
1319.499969,21.22913575675085
1323.137425,345.6635724662539
1326.769641,61.68860060410529
1330.396626,353.25970945459153
1334.018391,58.089613788123756
1337.634948,47.865600915423386
1341.246307,-151.24530030644374
1344.85248,-47.11888422313757
1348.453477,101.1126622532345
1352.049309,-8.6547981363926
1355.639987,246.25476882394318
1359.225522,573.0755476646403
1362.805925,414.4612902158625
1366.381207,318.8243733139334
1369.951379,368.29818259537944
1373.516452,487.8490000267267
1377.076436,896.9302001489475
1380.631343,1212.7878195444919
1384.181184,1540.5268681333962
1387.725969,1921.8605265936449
1391.26571,1810.0331989682472
1394.800417,1288.5505161367441
1398.330102,618.3539423367434
1401.854776,436.17900544293565
1405.374448,44.389060372313324
1408.889132,-11.63199130977196
1412.398837,-77.41136852212102
1415.903574,174.6634242132181
1419.403355,947.5559146992822
1422.89819,1421.760052286848
1426.388091,1862.5964550923652
1429.873069,2299.62784044435
1433.353134,2008.5875946973788
1436.828298,1582.0283188794147
1440.298571,1125.1752640954367
1443.763965,617.2278417127309
1447.224491,284.07527332911906
1450.68016,-10.15153646257197
1454.130983,68.78089236679575
1457.576971,-113.44682679484471
1461.018135,178.97987368544582
1464.454486,110.20949946394887
1467.886036,112.84030974924026
1471.312794,165.55629871506602
1474.734774,212.23317633804763
1478.151985,389.10458617325105
1481.564439,147.69719854583155
1484.972146,-55.220824006065136
1488.375119,-241.76672467873473
1491.773368,28.999677992926504
1495.166904,185.64555762436567
1498.555739,27.548169439006088
1501.939883,109.43901972276925
1505.319349,-89.82315423282702
1508.694146,-77.34006198876958
1512.064286,108.32269425610077
1515.429781,74.62521745408125
1518.790642,64.89182308804399
1522.146879,291.5196469431436
1525.498505,34.980711784346965
1528.845529,-228.4578877976725
1532.187965,278.4925317086968
1535.525822,165.91924760060152
1538.859112,45.65512391775968
1542.187846,223.10926376051407
1545.512036,73.99914592191988
1548.831693,576.9563579787896
1552.146829,655.3908426553256
1555.457453,536.3689032763143
1558.763579,434.52113356997745
1562.065216,739.2975913331077
1565.362377,1270.1701903295593
1568.655073,1498.3116902533113
1571.943315,1624.3717854055099
1575.227114,1706.5632894713094
1578.506482,1964.9767786370971
1581.781431,2079.9964274366694
1585.051971,1836.8685359993033
1588.318114,1724.6586413726568
1591.579872,1665.6426117179453
1594.837255,1045.9286699627473
1598.090275,774.0811020387019
1601.338945,440.51253411303776
1604.583274,565.6187565605477
1607.823275,328.1245495792805
1611.058959,-30.992292965993613
1614.290338,326.9853109056421
1617.517422,-27.419364315344666
1620.740224,204.56795945152314
1623.958755,35.03070020298122
1627.173027,39.75199905642881
1630.38305,-73.88826187649114
1633.588838,49.01398723392523
1636.7904,80.87738772453234
1639.987749,298.8642215042851
1643.180896,345.8906315253325
1646.369853,-38.78058094118958
1649.554632,324.7908913575204
1652.735244,18.74348789504277
1655.9117,-172.46876474844646
1659.084013,36.49428264544301
1662.252193,230.79855607368387
1665.416254,-129.61387133576568
1668.576205,113.41711793171572
1671.732059,102.56427732099031
1674.883828,179.5527874805362
1678.031523,32.57447867325647
1681.175157,-45.25117772917716
1684.314739,-4.847081499175239
1687.450284,48.54128505825952
1690.581801,-23.422673814571752
1693.709304,5.885740769089644
1696.832803,-68.46889309268984
1699.952311,-66.04946968596295
1703.067839,5.041592852346453
1706.179399,112.50096018220799
1709.287003,260.30916826483013
1712.390663,-79.11252837570757
1715.49039,37.23598904673058
1718.586197,77.45676530851851
1721.678095,53.58595217121031
1724.766096,14.477657258794899
1727.850213,-44.81829878947503
1730.930456,-25.5949162012803
1734.006838,-27.860513689800204
1737.079372,-66.78642750062852
1740.148067,-96.66890965823269
1743.212938,231.53188922274228
1746.273996,61.6476084642116
1749.331252,90.99446241187414
1752.384718,-20.985595793819243
1755.434408,36.628988565151346
1758.480332,100.3792896623745
1761.522503,43.686499108029906
1764.560933,-93.76740636053117
1767.595634,-195.2947407545657
1770.626618,66.9763970296744
1773.653896,73.7747662187505
1776.677482,-22.679351981577366
1779.697388,-43.10434324244747
1782.713625,224.35191669628608
1785.726205,203.77267462682073
1788.735141,187.59028659599772
1791.740445,-13.671034313619284
1794.742129,50.263198879374414
1797.740206,205.65429209129846
1800.734687,324.421028281705
1803.725585,224.69626243963856
1806.712912,82.8117581179917
1809.69668,58.95163015976639
1812.676902,49.85883650123889
1815.65359,-100.24180998539002
1818.626756,-146.93810484931157
1821.596413,-4.322569565327967
1824.562573,10.374061835623612
1827.525247,153.9448810633826
1830.48445,16.18559586963014
1833.440192,-5.126316976994257
1836.392487,-62.282761522256365
1839.341347,92.9380677403578
1842.286784,-5.405010120270386
1845.22881,-17.415635265390748
1848.167439,193.07458986516554
1851.102682,78.75456671325114
1854.034553,52.84868835590172
1856.963063,-33.31978293599254
1859.888226,235.81242915170859
1862.810053,38.770989443674495
1865.728557,138.7067599623158
1868.643751,-81.1839347749052
1871.555648,54.25327483797156
1874.46426,-133.88379602674522
1877.369599,188.05850370790682
1880.271679,49.45803516234509
1883.170512,-125.40473379773002
1886.06611,71.93893907405048
1888.958487,14.979002493320367
1891.847655,-1.929766329516209
1894.733626,47.466693308032504
1897.616414,27.982519894929105
1900.496032,-111.94222585018791
1903.372491,66.6233019794903
1906.245805,59.56454587547944
1909.115987,134.97544832147474
1911.983049,92.83118578576793
1914.847004,-38.86220431396865
1917.707866,147.83212597107743
1920.565646,182.5349060144327
1923.420359,-81.21456419119289
1926.272016,-16.35222804916353
1929.120631,-112.02989020423817
1931.966216,-12.917161644907464
1934.808786,22.36178320142323
1937.648351,21.929434557501786
1940.484927,-69.52745453434719
1943.318525,99.34368734876192
1946.149158,98.50259534123529
1948.97684,585.2958950196631
1951.801584,165.25524974538862
1954.623403,87.6019921055305
1957.44231,144.69792574144017
1960.258318,-128.89375284147985
1963.071439,-4.406403543810963
1965.881688,8.389495552122952
1968.689078,153.50037346321244
1971.493621,-4.474389637834257
