Raman shift cm-1,4ATP_10fM_rep1_acc1_processed_intensity
-93.47115107,504.179393067355
-87.69374369,92.00588808002435
-81.9253076,-108.15537544481117
-76.16582701,76.18544664948891
-70.41528615,124.20921675959504
-64.67366933,-74.98360742885515
-58.94096086,-28.390117768382332
-53.21714512,-15.746029800159217
-47.50220652,7.497145811473063
-41.79612954,208.36364205312782
-36.09889866,237.38017759429835
-30.41049843,223.52960433936354
-24.73091343,125.38955861963794
-19.0601283,30.92458474714664
-13.39812769,81.00241678362322
-7.744896327,-60.501578935331366
-2.100418946,-56.70830624242564
3.535319659,61.42902770589963
9.162334658,-22.3550415712252
14.78064118,41.028221468658
20.39025432,27.483855215508235
25.99118913,-1.0088124735598747
31.58346061,161.3825289726544
37.16708375,133.52730038838888
42.74207347,72.66121451662458
48.30844468,37.89556290355248
53.86621222,-46.42485527624251
59.41539093,-84.79257876950824
64.95599558,-87.06988481958813
70.48804091,167.14469475966132
76.01154164,166.42111411397877
81.52651243,-87.39124439325721
87.03296792,166.10055176171943
92.5309227,276.9326495003051
98.02039134,82.61881802788592
103.5013884,84.72502423801933
108.9739282,57.57548761898014
114.4380255,-18.030973007376183
119.8936944,167.6708853464847
125.3409495,363.63324986510287
130.779805,81.82708487691806
136.2102753,-148.53394399451514
141.6323747,31.126303138617097
147.0461174,178.67193477977565
152.4515176,28.595055891339694
157.8485895,-135.33267043516932
163.2373472,-54.664833369441
168.6178049,-8.94956066241086
173.9899766,55.93886743363939
179.3538764,69.67737817008425
184.7095182,-46.57755117134059
190.0569161,41.940108206465396
195.396084,76.84382301010828
200.7270358,21.06068992677251
206.0497854,-6.687632351488048
211.3643466,-52.82598962474796
216.6707333,10.365599063953596
221.9689593,-79.92384366084605
227.2590382,-75.0055578513325
232.5409839,83.12053907694826
237.8148101,35.07009520308736
243.0805303,12.844098114489242
248.3381582,-27.204796419766467
253.5877075,85.10146949967779
258.8291917,312.39268894049883
264.0626244,306.06321956903207
269.288019,440.04198391415525
274.5053891,601.6084140055262
279.7147481,463.45807633911147
284.9161094,388.2915965952969
290.1094865,428.22246472297707
295.2948927,399.37127642525786
300.4723414,355.11560621130087
305.6418459,47.19438272503902
310.8034194,-237.07799968227323
315.9570752,-31.82087653573018
321.1028267,91.24748905656851
326.2406869,75.6387273909627
331.370669,69.92156923990112
336.4927863,-46.74270361662033
341.6070517,-48.98010066165684
346.7134786,25.378349892995132
351.8120798,-0.786677852302688
356.9028684,-139.92692433447291
361.9858576,72.8033020155101
367.0610602,215.12665742095703
372.1284892,69.65191010161604
377.1881577,433.79353522224227
382.2400784,901.4904892577207
387.2842644,1509.7692591951059
392.3207284,2000.9740758390215
397.3494833,1678.3242463830204
402.370542,1222.5861124057838
407.3839172,734.0178211815249
412.3896217,293.62043582881137
417.3876683,156.52078626598393
422.3780697,10.744790851042877
427.3608386,-17.39934772671194
432.3359876,60.529180024321455
437.3035295,132.76000118270755
442.2634769,111.2010342421678
447.2158423,-28.295169427235916
452.1606383,8.34623208897133
457.0978776,-45.24923492714506
462.0275727,-150.37697900595688
466.9497361,1.9761217435106104
471.8643802,69.52675688899689
476.7715176,60.443512191547384
481.6711608,89.48876802025939
486.5633221,-2.3708757718656344
491.448014,-31.592014837396814
496.3252488,0.48466682428143315
501.195039,-3.5345527749663574
506.0573969,146.6520623858704
510.9123349,62.760351288278216
515.7598651,-82.65518860075686
520.6,173.1519362333783
525.4327518,309.30893633483106
530.2581327,132.00522812711256
535.076155,-12.51657922298439
539.8868309,169.2684803412585
544.6901726,202.8720681314761
549.4861922,206.73467349282512
554.2749019,399.6243891572262
559.0563139,2.791461547130581
563.8304402,-52.982331464182266
568.597293,398.0492013165638
573.3568844,199.30754880636027
578.1092263,-1.0055098331107288
582.8543308,82.25646650497218
587.5922101,22.136641236400198
592.322876,-62.728349396108925
597.0463405,12.052613010113735
601.7626157,81.88924213229653
606.4717135,-72.16918642795851
611.1736458,-101.49517369233476
615.8684246,62.47986897615523
620.5560617,53.264558113845936
625.2365691,-85.88038270397304
629.9099585,21.743914014522918
634.5762419,104.80760248717542
639.2354312,14.95756495870134
643.887538,50.13809309585354
648.5325743,-5.329724250149781
653.1705518,90.61238131813224
657.8014823,64.69021254530972
662.4253775,-178.559975550828
667.0422493,-20.60577954716642
671.6521092,41.51243925745691
676.2549691,-54.899863854906016
680.8508407,-4.974536573332502
685.4397355,57.09124067833477
690.0216654,-25.37951854796381
694.5966419,-53.983991698315535
699.1646767,39.47393589170197
703.7257814,42.84868477264011
708.2799676,127.39512136994463
712.827247,121.35982898553067
717.367631,74.97144910790172
721.9011314,-24.856961843413124
726.4277595,-90.57944014227934
730.9475271,4.050619884850015
735.4604456,146.22785209957055
739.9665264,294.32905606609404
744.4657813,201.94082468436108
748.9582215,183.41299249456756
753.4438587,49.049464074287364
757.9227042,-63.36330043204848
762.3947696,64.92426897005595
766.8600662,186.86866037700526
771.3186056,337.1362588584657
775.770399,251.79156296351536
780.215458,238.19099514537035
784.6537939,54.98531258214278
789.0854181,-152.97049297064186
793.510342,157.32625560967347
797.9285769,341.8691809174022
802.3401342,240.29608239322351
806.7450253,167.37487092202642
811.1432614,187.0637515109076
815.5348538,61.8375407778374
819.9198139,-21.01095304196668
824.2981531,165.52952887482257
828.6698824,200.2574887016918
833.0350133,91.88701710803119
837.393557,-19.46648379689493
841.7455248,-34.32884539600206
846.0909278,77.68461121494948
850.4297774,-4.888542124156125
854.7620848,-79.45855229148151
859.0878611,-0.3059280894585328
863.4071176,-14.423408705353353
867.7198655,51.520402134657765
872.026116,310.54697059319875
876.3258802,344.8790774529376
880.6191693,146.8771170259549
884.9059946,273.44235378662427
889.186367,453.10283884221866
893.4602979,164.3636396734839
897.7277982,-70.32447456885042
901.9888793,179.87628433639253
906.2435521,313.3682698036836
910.4918277,55.737408557242595
914.7337174,-106.1086337403425
918.9692321,-31.64726355428406
923.1983831,33.48460425242805
927.4211813,183.01784493838497
931.6376378,253.039383267693
935.8477637,75.89022517298679
940.0515701,67.63599877854708
944.249068,-46.173167789614226
948.4402684,-102.01236198174334
952.6251825,-0.023664233236061705
956.8038212,18.127041203245653
960.9761955,183.19415847101612
965.1423166,77.29924505817225
969.3021953,-16.960043589059964
973.4558427,83.01332270565801
977.6032699,11.898215573794488
981.7444877,-0.07691422559338434
985.8795072,45.817880117672644
990.0083394,-42.51287715524447
994.1309953,-9.842449981282556
998.2474857,5.821139344532465
1002.357822,-117.88473999166648
1006.462014,0.7904709313348839
1010.560075,-70.75946616208208
1014.652013,6.696234999385515
1018.737841,230.66471925501202
1022.81757,44.72853820493467
1026.891209,1.0934828603133226
1030.958771,-7.495344759935669
1035.020266,29.451039845139956
1039.075705,65.85474563212081
1043.1251,25.27733198561554
1047.16846,150.31982024799618
1051.205797,87.79810014043386
1055.237121,10.982390886604875
1059.262444,-49.970488543780036
1063.281777,-183.57970860941407
1067.295131,201.40468625981723
1071.302515,661.3073017055042
1075.303942,985.2800716396812
1079.299422,1475.5994976450506
1083.288966,1240.1563551374118
1087.272585,620.9258102497402
1091.250289,305.1357110723872
1095.222091,4.801411510078676
1099.187999,23.668020414193336
1103.148026,88.07426754535165
1107.102183,-30.1752321604772
1111.050479,69.70031340297805
1114.992927,70.72039134615645
1118.929536,-94.08209550474652
1122.860318,-38.307067385103686
1126.785283,-83.59281767059908
1130.704443,-49.04000117355285
1134.617808,143.0742172291171
1138.52539,21.04423081595314
1142.427198,73.31730551851695
1146.323244,20.516061493103365
1150.213538,1.214937053193978
1154.098093,231.77098912347546
1157.976917,-35.50899651970212
1161.850023,27.11981945070449
1165.717421,199.80318533982305
1169.579121,194.8376486439365
1173.435135,334.21298743838435
1177.285474,66.70345493755165
1181.130148,178.62784754857552
1184.969169,481.39230612537557
1188.802547,408.6802110718157
1192.630292,183.18284409980026
1196.452416,26.463932249707142
1200.26893,121.14393851085171
1204.079844,-129.82947224689786
1207.88517,-84.48055508646036
1211.684917,40.10810018813188
1215.479098,21.036594996130376
1219.267722,375.77636211264576
1223.050801,43.582804230921695
1226.828346,-82.27488477146171
1230.600366,153.11082741433276
1234.366874,-10.125965301016642
1238.12788,91.98636508920642
1241.883395,63.164586233147915
1245.633429,183.02414092646973
1249.377994,258.1025761184194
1253.1171,-38.398906316453605
1256.850759,29.707874811781636
1260.578981,60.77527580847992
1264.301776,-2.383188011709535
1268.019157,20.539797258413802
1271.731133,-100.55775193198
1275.437715,-109.07227775627078
1279.138915,42.53646610900744
1282.834743,67.35169564943739
1286.52521,-57.954709188012956
1290.210328,-78.85267031616657
1293.890106,30.36438600717596
1297.564555,23.447415975868903
1301.233688,13.794466743033485
1304.897514,65.57044859857486
1308.556044,69.0454976365821
1312.209289,27.717329518787533
1315.857261,-148.12599736392104
1319.499969,3.624810842842571
1323.137425,185.37722224007908
1326.769641,62.02514894041618
1330.396626,180.2632669468311
1334.018391,118.28876340426456
1337.634948,51.57384415536995
1341.246307,68.61978015617555
1344.85248,-71.4882955230955
1348.453477,-16.59737263412553
1352.049309,-158.97493850844359
1355.639987,-67.90524021908894
1359.225522,252.9292968274289
1362.805925,83.7593209599014
1366.381207,23.065202471471572
1369.951379,22.133801794243446
1373.516452,10.006392111287216
1377.076436,185.3541473551275
1380.631343,91.95917122214283
1384.181184,-18.4158844776158
1387.725969,43.799158432758915
1391.26571,-33.787988817735744
1394.800417,5.930212173154305
1398.330102,229.53584527691135
1401.854776,157.95370522889192
1405.374448,15.931119376454198
1408.889132,-12.165129814531163
1412.398837,-151.53939459030215
1415.903574,-21.890125881940186
1419.403355,225.50831872676878
1422.89819,65.39906855188453
1426.388091,56.159315499659485
1429.873069,199.33998577637146
1433.353134,5.917915128324417
1436.828298,-12.653552243920931
1440.298571,65.36913295837701
1443.763965,6.160596404526828
1447.224491,-104.5466372074919
1450.68016,-98.41690755313276
1454.130983,48.7171690533078
1457.576971,12.677435501829457
1461.018135,181.05165464167985
1464.454486,233.4433149988001
1467.886036,79.31401565509033
1471.312794,22.24376598252268
1474.734774,-17.742200114262353
1478.151985,145.81592539685877
1481.564439,143.6919569877563
1484.972146,38.70716959950683
1488.375119,-106.22725122451962
1491.773368,24.88612707342346
1495.166904,275.2524717887183
1498.555739,38.35987229845779
1501.939883,9.827265276092191
1505.319349,35.650455010912935
1508.694146,-59.51011680979395
1512.064286,77.19544106045439
1515.429781,10.897182648827965
1518.790642,-70.83275202416382
1522.146879,160.0089463471553
1525.498505,-19.85426685557406
1528.845529,-158.6527595730092
1532.187965,180.26662570588775
1535.525822,57.57983946364245
1538.859112,91.2131584844319
1542.187846,238.6214761012279
1545.512036,72.82454038132266
1548.831693,276.4543346129487
1552.146829,279.20214104685436
1555.457453,10.613692554717096
1558.763579,-103.56495689523288
1562.065216,21.997499962386104
1565.362377,338.6553957986942
1568.655073,439.6092440255638
1571.943315,410.7694162811253
1575.227114,280.4295785081698
1578.506482,439.00444022771086
1581.781431,758.8712588207661
1585.051971,664.4035548359731
1588.318114,712.020260607387
1591.579872,780.1267989235077
1594.837255,674.022704831985
1598.090275,433.41031352114476
1601.338945,311.8184941382446
1604.583274,439.1295432351488
1607.823275,85.05731658754065
1611.058959,4.3070485772143385
1614.290338,129.85140231763629
1617.517422,-131.1145344193526
1620.740224,-72.32116782837167
1623.958755,62.02724068795516
1627.173027,-13.525818045301351
1630.38305,-13.806951490802572
1633.588838,71.6718768174793
1636.7904,88.84502314338603
1639.987749,295.2028943093095
1643.180896,238.39509595947212
1646.369853,-17.772791419323063
1649.554632,262.76998970876315
1652.735244,221.18259838416992
1655.9117,-91.18319953035098
1659.084013,115.45601491994975
1662.252193,204.21275554455596
1665.416254,-70.30700759118378
1668.576205,23.46475287345321
1671.732059,222.13643178170645
1674.883828,73.6982788746384
1678.031523,-0.47699215822052565
1681.175157,39.83901312852666
1684.314739,17.50868450350913
1687.450284,-13.955327879336838
1690.581801,17.493244240176224
1693.709304,-42.852983118383705
1696.832803,-93.84984996500346
1699.952311,37.06626540656393
1703.067839,20.74424526104782
1706.179399,44.28280672068185
1709.287003,156.48208851475118
1712.390663,16.561433380780116
1715.49039,14.083093370838384
1718.586197,158.99183327828104
1721.678095,90.52784267827712
1724.766096,-43.04692973125907
1727.850213,-120.3118655465075
1730.930456,-53.08424692188584
1734.006838,61.4397011596081
1737.079372,-65.539663832044
1740.148067,27.771769637405626
1743.212938,331.78991707813674
1746.273996,170.16943549454533
1749.331252,25.788410345660694
1752.384718,71.8231061021358
1755.434408,43.13074864459865
1758.480332,146.3443144952499
1761.522503,183.2096198650555
1764.560933,-26.27968213075171
1767.595634,-117.6027352545265
1770.626618,174.12778106769798
1773.653896,240.30669876340795
1776.677482,-45.84612558398691
1779.697388,53.486709323544275
1782.713625,285.80538461663537
1785.726205,224.26191675544374
1788.735141,150.70505107569596
1791.740445,35.44282850168716
1794.742129,9.14353635174237
1797.740206,185.58627859990293
1800.734687,159.15266717840882
1803.725585,77.69803787966218
1806.712912,23.527917351137827
1809.69668,-10.331091227033413
1812.676902,52.93978154258697
1815.65359,-105.30230552479962
1818.626756,-65.97786186826664
1821.596413,71.021407850803
1824.562573,-39.89246039128349
1827.525247,-24.915038017524633
1830.48445,-57.552434682889796
1833.440192,-34.249945772491856
1836.392487,31.0259699314176
1839.341347,9.524047945607268
1842.286784,46.78652247029543
1845.22881,36.43833378145735
1848.167439,37.32073451609976
1851.102682,29.010326799881433
1854.034553,-23.064147401115996
1856.963063,-21.2105886740467
1859.888226,129.75108282561357
1862.810053,183.5535401224635
1865.728557,29.242163271047644
1868.643751,26.38807203686712
1871.555648,-60.59581335000197
1874.46426,-79.19351028668252
1877.369599,176.26025655258292
1880.271679,24.455957573452707
1883.170512,-41.58444169359416
1886.06611,190.31866651277844
1888.958487,77.01424686285782
1891.847655,-23.443721284360173
1894.733626,29.661019002221252
1897.616414,1.8358550693007318
1900.496032,-71.0594575594597
1903.372491,14.29430611251734
1906.245805,91.31668189802637
1909.115987,108.04639461138733
1911.983049,125.59348179083305
1914.847004,-44.878641372354835
1917.707866,3.6791064907583024
1920.565646,87.37980247200255
1923.420359,4.9640725378593515
1926.272016,-53.32435439431113
1929.120631,-153.32287558637427
1931.966216,-10.151875053182476
1934.808786,69.49410114885298
1937.648351,42.73533561518312
1940.484927,122.27756153967644
1943.318525,-13.356941062975132
1946.149158,178.71649768780694
1948.97684,570.0267977004692
1951.801584,302.2284676750517
1954.623403,50.091510793508405
1957.44231,84.68600604807926
1960.258318,-55.71741128021244
1963.071439,-104.29837775140963
1965.881688,-2.295786377380825
1968.689078,64.6605088932145
1971.493621,-17.74880810388286
