Raman shift cm-1,4ATP_10fM_rep1_acc4_processed_intensity
-93.47115107,736.5848218082438
-87.69374369,238.0776283311829
-81.9253076,-33.28629593828697
-76.16582701,56.90818044113002
-70.41528615,163.25623010751346
-64.67366933,-17.659996678993444
-58.94096086,-93.2440788186512
-53.21714512,-73.80484568685786
-47.50220652,37.177476701225615
-41.79612954,82.31141502910788
-36.09889866,189.78139468204972
-30.41049843,176.70138000816866
-24.73091343,96.98208133116842
-19.0601283,77.34630423514257
-13.39812769,2.8698442316672015
-7.744896327,-58.89377361881781
-2.100418946,-60.3943224161151
3.535319659,130.83073135327393
9.162334658,-47.312373039270284
14.78064118,42.40063761125626
20.39025432,30.472510836632583
25.99118913,-7.1151030316685855
31.58346061,304.03790083668963
37.16708375,208.071411660947
42.74207347,77.16574608266234
48.30844468,-18.705680339697885
53.86621222,-22.838023548596382
59.41539093,-64.83034754397181
64.95599558,-82.33877493677532
70.48804091,18.086531342978482
76.01154164,191.00770358170107
81.52651243,-31.035484044268493
87.03296792,175.8728922597517
92.5309227,204.49540135438698
98.02039134,25.614917084084006
103.5013884,68.45496155132308
108.9739282,17.3276824073973
114.4380255,71.44649220898393
119.8936944,144.76127775347229
125.3409495,418.3800566594075
130.779805,15.066431771877228
136.2102753,-59.2585235232594
141.6323747,-90.0208497164315
147.0461174,168.26550486377306
152.4515176,53.56800345767224
157.8485895,-58.145225250460605
163.2373472,0.6694351085991741
168.6178049,-5.114848796748618
173.9899766,243.7160206156366
179.3538764,225.45587554255619
184.7095182,38.207067658385256
190.0569161,183.1340816107824
195.396084,236.61565847782992
200.7270358,22.6789824046773
206.0497854,-4.411013398547823
211.3643466,-76.94750124839834
216.6707333,159.87594851033907
221.9689593,-91.38993990755478
227.2590382,27.498665579764918
232.5409839,31.68649499820691
237.8148101,-33.485198941132694
243.0805303,69.22111985319776
248.3381582,96.97913079460466
253.5877075,97.43432966042695
258.8291917,185.11344372439447
264.0626244,390.5528707605528
269.288019,470.10076928661005
274.5053891,534.4126495535485
279.7147481,513.4387324614132
284.9161094,477.5307918699019
290.1094865,520.116719388274
295.2948927,465.38364823614165
300.4723414,405.12760385868125
305.6418459,67.65716920705307
310.8034194,-318.7265185623613
315.9570752,-72.83087109897765
321.1028267,77.20955489901895
326.2406869,76.00293088747608
331.370669,201.92225776556532
336.4927863,138.2925953616295
341.6070517,-32.525388396613295
346.7134786,49.28625311758934
351.8120798,57.87759638540791
356.9028684,-82.47608735634945
361.9858576,-6.0193282643681805
367.0610602,239.10130252195546
372.1284892,59.17884258379486
377.1881577,413.6423984441758
382.2400784,788.122817869685
387.2842644,1482.4255950653485
392.3207284,2175.2362685819453
397.3494833,1828.1195080139098
402.370542,1504.6004378510431
407.3839172,914.0263889317926
412.3896217,411.3950561074185
417.3876683,205.7570338176621
422.3780697,31.222903672994224
427.3608386,-83.591847318533
432.3359876,81.31286917290876
437.3035295,10.023018604004047
442.2634769,218.51593710183218
447.2158423,-2.360041850748633
452.1606383,-28.569394603897628
457.0978776,93.49921236429873
462.0275727,-92.66863228140352
466.9497361,169.6512608816647
471.8643802,-70.12215561751117
476.7715176,161.61385255923366
481.6711608,16.09000362025003
486.5633221,-26.394137786867503
491.448014,44.689256016568045
496.3252488,0.7825028049902669
501.195039,30.0653685090021
506.0573969,85.9183301801668
510.9123349,30.754356618762245
515.7598651,-303.2631958247495
520.6,35.31640064318254
525.4327518,83.59080619535703
530.2581327,82.17355444791536
535.076155,-43.62980787112873
539.8868309,22.561097817273698
544.6901726,62.24784939625221
549.4861922,90.8780386984223
554.2749019,408.7984450533992
559.0563139,-44.629854501589705
563.8304402,-152.92008526865726
568.597293,360.69938546633676
573.3568844,269.1750764752709
578.1092263,10.642486600579566
582.8543308,165.00855525193379
587.5922101,153.90254694264897
592.322876,71.73533619191267
597.0463405,-8.685033218618386
601.7626157,20.157339022187656
606.4717135,-39.72597129561427
611.1736458,-36.95965715197271
615.8684246,-21.60310989587873
620.5560617,37.69452056669806
625.2365691,-19.043735147732008
629.9099585,-24.17575608455389
634.5762419,290.68265430869303
639.2354312,24.524094820231525
643.887538,250.40543092309593
648.5325743,64.46625453975285
653.1705518,73.41704013610742
657.8014823,73.20498935639046
662.4253775,-263.1283950930229
667.0422493,-10.418139584091872
671.6521092,23.59791090673989
676.2549691,55.870340920250435
680.8508407,10.261420861786345
685.4397355,98.23171395418561
690.0216654,-4.111539915441854
694.5966419,-115.4389352844005
699.1646767,183.3345501087724
703.7257814,53.30725124575879
708.2799676,152.90861707488628
712.827247,211.1256895614576
717.367631,-24.1695828122824
721.9011314,74.29383274459023
726.4277595,-194.92561090581265
730.9475271,60.63717709942905
735.4604456,-15.930293349203426
739.9665264,210.54395206214687
744.4657813,79.7373576398234
748.9582215,102.02597902488047
753.4438587,-113.84071126585067
757.9227042,-67.80726711508856
762.3947696,91.80374757012405
766.8600662,-0.594472154625425
771.3186056,342.5166317805418
775.770399,53.859568716347454
780.215458,245.458837770632
784.6537939,-43.38395422868472
789.0854181,-94.75089024302036
793.510342,-11.18138350653716
797.9285769,225.71053093428768
802.3401342,227.30764367312602
806.7450253,161.17213733828467
811.1432614,107.82971363574748
815.5348538,15.28801431403901
819.9198139,-60.858693574871296
824.2981531,-13.715304713900288
828.6698824,110.33035678402888
833.0350133,-9.936749766277263
837.393557,-42.42638896032491
841.7455248,10.80569144909485
846.0909278,-52.388156556535094
850.4297774,-5.59784736154624
854.7620848,2.6420186685556857
859.0878611,-37.13730529084831
863.4071176,11.799602032608732
867.7198655,95.5952177374717
872.026116,261.8261261705365
876.3258802,359.1999787406008
880.6191693,213.47482277127472
884.9059946,345.7040789841985
889.186367,341.2660168030782
893.4602979,-32.87214217187494
897.7277982,-76.04284853323838
901.9888793,146.53464866092492
906.2435521,325.3422412039199
910.4918277,60.93183590928241
914.7337174,-49.00712986110495
918.9692321,-112.67579489310009
923.1983831,102.22993949075973
927.4211813,11.035927606796424
931.6376378,277.4986884991037
935.8477637,77.72500144552052
940.0515701,184.7852883861136
944.249068,35.99102654274542
948.4402684,-127.03571565601032
952.6251825,270.3957189294781
956.8038212,39.02764096119711
960.9761955,297.7116490652309
965.1423166,0.804474854272911
969.3021953,22.561003694800306
973.4558427,49.233694607218084
977.6032699,-59.735252182454275
981.7444877,-40.90985299009203
985.8795072,97.51996783431632
990.0083394,31.58649043816763
994.1309953,-51.116397410847185
998.2474857,36.13541567270259
1002.357822,-122.32533772458135
1006.462014,-43.495918582238964
1010.560075,-29.435209264184444
1014.652013,111.41863605529498
1018.737841,96.38061864598869
1022.81757,-16.999882634079857
1026.891209,-40.60207904907057
1030.958771,8.439401014774152
1035.020266,138.29352676764495
1039.075705,-43.15717552815329
1043.1251,8.601502002897384
1047.16846,89.47412121906567
1051.205797,17.07084380197127
1055.237121,3.640220843906235
1059.262444,-34.94808124324358
1063.281777,-184.214065303651
1067.295131,195.67927366778895
1071.302515,762.661594581355
1075.303942,913.7712312393326
1079.299422,1495.9196486011087
1083.288966,1295.0007221830429
1087.272585,674.2696386841264
1091.250289,216.0814734790259
1095.222091,67.48841765060874
1099.187999,33.160473684929535
1103.148026,103.63032839978993
1107.102183,56.80863523166904
1111.050479,11.185184253405794
1114.992927,54.90340502277328
1118.929536,-160.39545320487002
1122.860318,3.5767479760726166
1126.785283,-66.16245206266419
1130.704443,-68.1849437673572
1134.617808,214.4612880392719
1138.52539,244.75390288133033
1142.427198,180.8658624279493
1146.323244,235.4066767142089
1150.213538,51.437155944869716
1154.098093,303.8275140400324
1157.976917,18.055925568011517
1161.850023,-35.57149256911407
1165.717421,187.10432854856145
1169.579121,84.00516475827732
1173.435135,295.6501357435163
1177.285474,160.67186264787216
1181.130148,351.68665523344373
1184.969169,520.3240067211544
1188.802547,367.9748428422703
1192.630292,305.9187486848025
1196.452416,39.71015367096591
1200.26893,162.59088200664286
1204.079844,-74.96188152990334
1207.88517,-101.01105572650626
1211.684917,39.74831692715639
1215.479098,-6.093451458406562
1219.267722,463.8814509484094
1223.050801,-13.156490863968703
1226.828346,-52.793635005864004
1230.600366,185.16531897448965
1234.366874,60.3548045835415
1238.12788,56.65771205142639
1241.883395,63.231970908006176
1245.633429,221.0639435604652
1249.377994,221.1225210954089
1253.1171,-80.36879772137505
1256.850759,82.12046781096949
1260.578981,-37.71296722323719
1264.301776,42.90119434882317
1268.019157,43.74551792895363
1271.731133,-42.456097315036004
1275.437715,-125.96794272497448
1279.138915,36.722992286466365
1282.834743,313.21445615469133
1286.52521,-1.6253069042398458
1290.210328,11.75539469103421
1293.890106,40.852505663564
1297.564555,204.45075170945327
1301.233688,3.3955030374947874
1304.897514,261.88879948711025
1308.556044,165.86150143196124
1312.209289,235.79379893027465
1315.857261,-160.8950396062959
1319.499969,43.163602785834655
1323.137425,324.989838400321
1326.769641,111.81886950338732
1330.396626,374.6454361966914
1334.018391,14.15974328438461
1337.634948,60.459564643435854
1341.246307,-6.96659330329657
1344.85248,-28.49499046681882
1348.453477,-59.78490165663934
1352.049309,-59.441952759781636
1355.639987,-84.63096691631023
1359.225522,283.3955958854936
1362.805925,106.63229968858997
1366.381207,-50.08812949726235
1369.951379,46.850066957734825
1373.516452,-39.1551386824344
1377.076436,58.01754405927523
1380.631343,9.999451673982065
1384.181184,63.949262209651835
1387.725969,36.43195061545374
1391.26571,30.948293519176513
1394.800417,-38.212182064532286
1398.330102,173.1686374480617
1401.854776,161.0400700020364
1405.374448,69.10172387946423
1408.889132,-58.324697500767506
1412.398837,-230.78012397589777
1415.903574,-0.9593843785830813
1419.403355,147.66500103025268
1422.89819,23.594478967421956
1426.388091,111.53509861640487
1429.873069,185.6817034833528
1433.353134,21.343431620986927
1436.828298,68.81267627506506
1440.298571,82.95994518626371
1443.763965,-57.42201321487484
1447.224491,-97.43527815766609
1450.68016,-108.09012022479871
1454.130983,169.89771902521846
1457.576971,19.50396434414651
1461.018135,150.12973162244228
1464.454486,223.92524448676093
1467.886036,96.23683435814453
1471.312794,43.22577917498329
1474.734774,-166.34323371045997
1478.151985,268.56532558825324
1481.564439,16.729096269336985
1484.972146,89.34405150029103
1488.375119,-47.56932955133693
1491.773368,60.31486771573695
1495.166904,228.26714092519882
1498.555739,39.17807976870418
1501.939883,73.68377987993634
1505.319349,-124.49478351347491
1508.694146,-88.3242310670339
1512.064286,102.23642046226392
1515.429781,108.74951631631345
1518.790642,-71.6035403735352
1522.146879,163.37455862109908
1525.498505,-24.877742426507762
1528.845529,-185.88211150151167
1532.187965,109.28041572678647
1535.525822,14.07090938481069
1538.859112,147.48740396314247
1542.187846,291.77152105291793
1545.512036,67.54577575009525
1548.831693,329.90734766585405
1552.146829,249.16248015951322
1555.457453,-46.30128006734152
1558.763579,-79.50994444122645
1562.065216,93.09674211539803
1565.362377,318.0485908308259
1568.655073,370.35816786218146
1571.943315,326.62929073023827
1575.227114,257.6725786734532
1578.506482,496.8858932071721
1581.781431,739.6138111144809
1585.051971,717.710367272444
1588.318114,740.6536115211511
1591.579872,944.9125174249455
1594.837255,667.1891759146896
1598.090275,493.0944977474327
1601.338945,311.53898913511404
1604.583274,294.5177645960629
1607.823275,88.4218476990319
1611.058959,-91.42889303856211
1614.290338,20.116492153122877
1617.517422,-212.6551897569445
1620.740224,88.03815983432486
1623.958755,23.410933604759027
1627.173027,81.2271081287175
1630.38305,-79.98082518329446
1633.588838,101.30985824551792
1636.7904,-58.127063629484226
1639.987749,64.66459917558939
1643.180896,109.66087734158128
1646.369853,-137.82598435560945
1649.554632,163.82902785593302
1652.735244,2.818715673514241
1655.9117,20.255859356263336
1659.084013,0.2639989468432873
1662.252193,249.50381360833018
1665.416254,-76.68512994740033
1668.576205,16.62592137119166
1671.732059,160.26417737964124
1674.883828,101.02309278772502
1678.031523,-28.004660008939737
1681.175157,-34.72644906925362
1684.314739,-28.527389083175375
1687.450284,-15.503459114095135
1690.581801,95.15314815812205
1693.709304,-151.08193225842484
1696.832803,33.354545086317884
1699.952311,15.365563721897168
1703.067839,26.41842295616484
1706.179399,61.70539776108956
1709.287003,288.4098958295528
1712.390663,-21.441645940497402
1715.49039,-12.050394184556485
1718.586197,165.45744127156826
1721.678095,73.91989923662463
1724.766096,31.991121179245468
1727.850213,-108.42196090598016
1730.930456,53.22348103139461
1734.006838,-65.92994386162974
1737.079372,-12.229254364352812
1740.148067,-68.90759381652786
1743.212938,237.69373501621743
1746.273996,135.9156862311725
1749.331252,20.926521174728784
1752.384718,19.33197030892703
1755.434408,20.482629506115813
1758.480332,110.90698667175114
1761.522503,75.60092646288129
1764.560933,-101.63586683255193
1767.595634,-141.25605510002717
1770.626618,79.49526376653832
1773.653896,140.37704671767955
1776.677482,-51.99649278161391
1779.697388,-17.10521404692097
1782.713625,250.80684520521189
1785.726205,162.6343333742849
1788.735141,112.4755107224532
1791.740445,-81.13822579414513
1794.742129,-0.16548521992154974
1797.740206,91.4950319297188
1800.734687,255.7175539881901
1803.725585,142.37316445139118
1806.712912,52.4457502060976
1809.69668,31.80207961134495
1812.676902,-68.36062187376656
1815.65359,-55.15770007545586
1818.626756,-86.4675452908247
1821.596413,35.39682492334174
1824.562573,-42.50996325554071
1827.525247,63.67174791808099
1830.48445,14.008455681225124
1833.440192,45.633682398614155
1836.392487,-61.21922278418369
1839.341347,82.55565235113299
1842.286784,-72.1276817321477
1845.22881,-56.19998512828985
1848.167439,198.38234060147192
1851.102682,14.76967126382736
1854.034553,49.81723201711195
1856.963063,34.68640265278736
1859.888226,249.56794212553493
1862.810053,204.2066494747067
1865.728557,86.5738688313961
1868.643751,-13.487273352075878
1871.555648,-11.978673360337822
1874.46426,-189.5202133451578
1877.369599,203.46671545826027
1880.271679,160.18329210830478
1883.170512,35.460874433970844
1886.06611,221.8414278870547
1888.958487,82.49120470705715
1891.847655,-39.795078253601375
1894.733626,16.23502350501938
1897.616414,41.10258363100155
1900.496032,-97.41895316828794
1903.372491,-19.484209321081167
1906.245805,55.961681380963185
1909.115987,72.63754750253318
1911.983049,145.63948725333088
1914.847004,-73.48108214585693
1917.707866,113.24766832086664
1920.565646,95.19281974879532
1923.420359,-87.0790752131108
1926.272016,-67.59314590624844
1929.120631,-157.01321889865983
1931.966216,15.07578081193634
1934.808786,14.112653833842124
1937.648351,-3.2525570093670915
1940.484927,-21.67318003210672
1943.318525,106.16384893134033
1946.149158,200.83335687639058
1948.97684,526.9547614531704
1951.801584,112.73037168433285
1954.623403,50.8984870017643
1957.44231,155.7073388838166
1960.258318,-96.71276226650717
1963.071439,-124.53219118784308
1965.881688,-16.51483605005846
1968.689078,77.382244374129
1971.493621,10.545219675931058
