Raman shift cm-1,4ATP_100pM_rep2_acc1_processed_intensity
-93.47115107,525.960010045133
-87.69374369,81.3558249096281
-81.9253076,-93.86246505565356
-76.16582701,14.558981124552531
-70.41528615,118.04497900243088
-64.67366933,35.53239996442411
-58.94096086,-60.659877718628266
-53.21714512,-43.040650633199085
-47.50220652,28.836899334279146
-41.79612954,157.0465077256706
-36.09889866,265.86039488059134
-30.41049843,208.76670193822903
-24.73091343,128.93452367456098
-19.0601283,152.61335092426668
-13.39812769,81.6194996160745
-7.744896327,-53.19855978237187
-2.100418946,-27.753759265210704
3.535319659,36.68162544570936
9.162334658,16.48765181005487
14.78064118,-10.535077870241949
20.39025432,-21.070023908680866
25.99118913,57.37457561964671
31.58346061,193.0541620174839
37.16708375,183.82688049281128
42.74207347,81.5168599966554
48.30844468,42.230624134469394
53.86621222,-22.165274417689645
59.41539093,-137.78320449743688
64.95599558,-52.26600320184559
70.48804091,198.68296470781834
76.01154164,155.83720718752642
81.52651243,-31.227699217289214
87.03296792,139.0484741122146
92.5309227,297.1468533699232
98.02039134,131.83827218419566
103.5013884,69.83109948224136
108.9739282,106.11319241103655
114.4380255,68.87823152165569
119.8936944,217.1653059382013
125.3409495,343.7957504361359
130.779805,73.79046595237853
136.2102753,-171.0599806850815
141.6323747,-30.314370867252226
147.0461174,116.28290980401742
152.4515176,35.61964668130983
157.8485895,-57.969250326389016
163.2373472,-40.75411738043081
168.6178049,58.68964285771038
173.9899766,122.62880266506761
179.3538764,60.67317209366199
184.7095182,17.843211588176324
190.0569161,59.48961353388824
195.396084,49.65999004336714
200.7270358,-2.8625767004906066
206.0497854,-30.898108057690212
211.3643466,-43.611013165736054
216.6707333,-32.33883149039269
221.9689593,-35.436950568479425
227.2590382,-50.45564442452051
232.5409839,-3.8968592580704478
237.8148101,53.07885814017985
243.0805303,38.36769683704971
248.3381582,10.460013226267193
253.5877075,48.359672582984054
258.8291917,123.07665412585374
264.0626244,228.31275594188833
269.288019,370.6697846677901
274.5053891,408.9837311064354
279.7147481,313.9254586160946
284.9161094,248.22607499856326
290.1094865,236.79033969411768
295.2948927,230.95939634356512
300.4723414,164.23120035766595
305.6418459,-54.345894546888815
310.8034194,-188.70326754926484
315.9570752,-14.149739028927854
321.1028267,148.2936512388974
326.2406869,78.42989377389254
331.370669,3.199132354568384
336.4927863,5.678533340719682
341.6070517,46.339776556822926
346.7134786,164.2502333120457
351.8120798,194.04875010006378
356.9028684,59.254750532974356
361.9858576,26.537603328352787
367.0610602,116.60253399309846
372.1284892,199.0275834446516
377.1881577,540.462258045036
382.2400784,1502.9223256588298
387.2842644,2907.050950982475
392.3207284,3831.4036012275164
397.3494833,3613.685703992749
402.370542,2679.4482898591523
407.3839172,1650.5015412311204
412.3896217,809.4946930916769
417.3876683,323.5421493765215
422.3780697,80.55835882209401
427.3608386,-46.79046254678107
432.3359876,28.07768236768991
437.3035295,183.98930318766807
442.2634769,146.03602663464918
447.2158423,-23.739135034195293
452.1606383,-94.82942580671305
457.0978776,-75.23382595495724
462.0275727,-20.84568121154563
466.9497361,58.797871348381726
471.8643802,47.09775348352353
476.7715176,-34.757218539877734
481.6711608,-15.17877794477537
486.5633221,48.9505210318375
491.448014,7.34492374105386
496.3252488,-35.802835124600705
501.195039,65.5143060185267
506.0573969,151.4893671592509
510.9123349,19.929518779749017
515.7598651,-104.03214697472802
520.6,36.904776047611854
525.4327518,152.18477847655387
530.2581327,35.180682141050525
535.076155,34.66892165580776
539.8868309,172.5788615998255
544.6901726,147.98307199665507
549.4861922,171.84339176787472
554.2749019,227.75549422801646
559.0563139,-5.172952101160988
563.8304402,-36.79274322549085
568.597293,286.99506556645406
573.3568844,229.35662264502926
578.1092263,-49.802225114387625
582.8543308,12.167168461446405
587.5922101,81.74705198523358
592.322876,-15.405322701819676
597.0463405,6.643135466139929
601.7626157,23.89165080630442
606.4717135,-93.7645227946424
611.1736458,-99.29289278744928
615.8684246,15.200733874381523
620.5560617,30.677755828055155
625.2365691,7.240119268825005
629.9099585,71.44179632337455
634.5762419,151.53058432396358
639.2354312,184.02838699281023
643.887538,135.37252086237459
648.5325743,47.33268984785089
653.1705518,67.91732644816284
657.8014823,68.22069319424986
662.4253775,-84.67788830294174
667.0422493,-116.64850683273791
671.6521092,29.94647299434081
676.2549691,102.15883313306185
680.8508407,66.70070871906229
685.4397355,-25.288086446596893
690.0216654,-95.11936374405221
694.5966419,14.027038089166115
699.1646767,203.9071363261059
703.7257814,254.69119635165455
708.2799676,212.2900643784196
712.827247,193.29069073189018
717.367631,135.98850047868973
721.9011314,27.636572651024366
726.4277595,36.282335578100664
730.9475271,156.53770331915558
735.4604456,203.06529584849173
739.9665264,192.42100685476964
744.4657813,160.88218059474406
748.9582215,40.92537543806851
753.4438587,-45.80670218716238
757.9227042,-40.815530244125604
762.3947696,-27.633958391880896
766.8600662,125.46946378461448
771.3186056,321.9946742101654
775.770399,289.67845285359095
780.215458,193.5253161347712
784.6537939,78.02679936371074
789.0854181,-35.59575204862291
793.510342,219.9676387784354
797.9285769,553.2922415819804
802.3401342,471.90466232468145
806.7450253,350.8575943691919
811.1432614,363.27509703671967
815.5348538,184.06027342941957
819.9198139,32.85406918677308
824.2981531,173.899381164693
828.6698824,229.71151518858431
833.0350133,21.54101606778278
837.393557,-73.54556247031093
841.7455248,34.69627726670463
846.0909278,39.0681424956429
850.4297774,-37.97670587957607
854.7620848,-0.5567695755955739
859.0878611,3.672244635141709
863.4071176,-54.92154948622771
867.7198655,73.32889200843098
872.026116,274.0876566748411
876.3258802,259.55881241132334
880.6191693,171.89721393926484
884.9059946,245.69638248733742
889.186367,281.0014633740833
893.4602979,31.147481693474198
897.7277982,-161.53308454916058
901.9888793,56.46308012028199
906.2435521,244.96887683529332
910.4918277,30.920201431246447
914.7337174,-144.97737257740704
918.9692321,-28.505574764750733
923.1983831,71.60615049963741
927.4211813,70.49487586292159
931.6376378,63.91673052399133
935.8477637,36.067499787940704
940.0515701,18.017739920125848
944.249068,-9.084315198932586
948.4402684,-74.5995770925654
952.6251825,-70.85946158913006
956.8038212,64.63791519763924
960.9761955,207.09304947204583
965.1423166,209.32222813673485
969.3021953,129.599582894582
973.4558427,43.29948466776102
977.6032699,-45.80616391550936
981.7444877,-36.58549137835843
985.8795072,30.505295276119625
990.0083394,32.87037877433238
994.1309953,43.57439606546936
998.2474857,56.26880292757804
1002.357822,-1.284238719718843
1006.462014,-53.25146913930672
1010.560075,-60.97188381525248
1014.652013,-31.979797254820724
1018.737841,39.11019766676279
1022.81757,45.908604519283955
1026.891209,-40.986867974291144
1030.958771,-22.181732783339868
1035.020266,71.34903034126877
1039.075705,-5.349326622293768
1043.1251,-76.73428193060104
1047.16846,35.26525991894652
1051.205797,58.950121939050746
1055.237121,-48.31414218662215
1059.262444,-88.79750826607088
1063.281777,38.534282140169616
1067.295131,536.8357176884679
1071.302515,1380.434851376505
1075.303942,2161.4690737203455
1079.299422,2451.381663018118
1083.288966,1996.8745093207124
1087.272585,1112.8337185457806
1091.250289,457.8679075782192
1095.222091,175.94598164126174
1099.187999,26.11308428028707
1103.148026,-33.22822356584262
1107.102183,24.78128171248896
1111.050479,64.59003375614965
1114.992927,22.087449713292365
1118.929536,-8.502261596050628
1122.860318,-41.84992616541743
1126.785283,-84.2777000850881
1130.704443,23.775678014112984
1134.617808,255.3887247905113
1138.52539,411.5057169697471
1142.427198,414.3695612388695
1146.323244,304.0349777172681
1150.213538,225.9298107872512
1154.098093,168.11254850128654
1157.976917,35.92141102213699
1161.850023,45.86321545658886
1165.717421,239.71288088538748
1169.579121,362.47763365493984
1173.435135,394.20919577027956
1177.285474,450.3760323482973
1181.130148,616.497873151671
1184.969169,765.0106581683822
1188.802547,604.7032597904354
1192.630292,298.63207274250675
1196.452416,168.6900032910466
1200.26893,57.12965446905089
1204.079844,-112.82910506881531
1207.88517,-111.49603586941994
1211.684917,47.30652322950529
1215.479098,220.40710646479621
1219.267722,240.82051993785043
1223.050801,23.909321861967562
1226.828346,-90.40475731482024
1230.600366,51.24799511675039
1234.366874,122.80808504434668
1238.12788,36.76331131843014
1241.883395,42.16426998317145
1245.633429,180.839803254063
1249.377994,191.5113670968862
1253.1171,64.85535578768062
1256.850759,26.239461963010612
1260.578981,32.276207040902136
1264.301776,30.532831199750518
1268.019157,31.8556662153673
1271.731133,-67.10608700198432
1275.437715,-87.48143331331832
1279.138915,144.4099376373119
1282.834743,256.31411980511115
1286.52521,27.082069451427657
1290.210328,-148.11497192653906
1293.890106,-18.797997236372343
1297.564555,107.17929345050817
1301.233688,36.47974616940047
1304.897514,49.946396904301864
1308.556044,172.02138621674052
1312.209289,71.51963647616547
1315.857261,-82.45905972413243
1319.499969,52.866054595037724
1323.137425,232.71754561245876
1326.769641,213.57885826577586
1330.396626,132.13351716106314
1334.018391,64.78179860532757
1337.634948,16.44065113423068
1341.246307,-0.4829783990218752
1344.85248,-22.12217005590152
1348.453477,-70.38851947795447
1352.049309,-103.00677464879323
1355.639987,-18.496002658871262
1359.225522,113.67087231745883
1362.805925,122.34658928428559
1366.381207,66.19723106055883
1369.951379,23.94625086375825
1373.516452,-3.8293510243042874
1377.076436,47.20046482551472
1380.631343,118.46972882410529
1384.181184,104.36402099866864
1387.725969,52.342594029779214
1391.26571,24.629262099833603
1394.800417,51.431690073442056
1398.330102,128.0012087622679
1401.854776,172.71528158463252
1405.374448,104.36498057197812
1408.889132,-76.3414561785298
1412.398837,-152.34674218773
1415.903574,53.020106496506486
1419.403355,232.86725364711842
1422.89819,177.14999664435197
1426.388091,196.5032381003246
1429.873069,332.24186410913245
1433.353134,313.0539560474018
1436.828298,201.6207484164949
1440.298571,140.76349511872706
1443.763965,50.612705294082986
1447.224491,-68.40262512666689
1450.68016,-51.57435604003685
1454.130983,78.17442395852035
1457.576971,124.86557121264053
1461.018135,130.43663029067545
1464.454486,163.9717049806415
1467.886036,70.32778149736782
1471.312794,-56.778132324002016
1474.734774,58.52360624004567
1478.151985,261.0945429800311
1481.564439,215.11694011525634
1484.972146,-5.797058497391893
1488.375119,-56.94825631371361
1491.773368,119.92656218488736
1495.166904,178.75028922665476
1498.555739,42.74504856942378
1501.939883,-0.18410156023829183
1505.319349,16.767778605363418
1508.694146,-14.948210773417918
1512.064286,2.391549091172932
1515.429781,48.525152979238456
1518.790642,124.84824173099364
1522.146879,129.9074280277422
1525.498505,-75.80118046848763
1528.845529,-171.1134256756209
1532.187965,-36.082089724445375
1535.525822,39.63312231358814
1538.859112,71.05197736396335
1542.187846,76.57887711641206
1545.512036,68.39832010023822
1548.831693,205.9267692744546
1552.146829,235.79536032899972
1555.457453,11.154992165015173
1558.763579,-88.23637645314726
1562.065216,62.83975564735843
1565.362377,304.1712726429227
1568.655073,519.097954074609
1571.943315,554.9011801497174
1575.227114,549.6952217857119
1578.506482,822.6907367012353
1581.781431,1171.0951517434346
1585.051971,1263.427381570642
1588.318114,1260.7902169990123
1591.579872,1259.0397052304659
1594.837255,1036.9398950433142
1598.090275,679.8231462415736
1601.338945,514.9815535165673
1604.583274,409.31935406052065
1607.823275,128.28087594056257
1611.058959,-62.55191491840482
1614.290338,-63.86405198936292
1617.517422,-53.6207743239209
1620.740224,15.902768053453855
1623.958755,49.91540792864778
1627.173027,-8.932705033605671
1630.38305,20.30328518512006
1633.588838,13.104121148520235
1636.7904,-30.69816101922862
1639.987749,74.7121403979412
1643.180896,76.80984569047052
1646.369853,5.078195159148876
1649.554632,120.42465910326558
1652.735244,65.21289123587681
1655.9117,-124.30631189822005
1659.084013,37.50474945879952
1662.252193,171.83482321375027
1665.416254,-15.22712627439747
1668.576205,-26.592430363029013
1671.732059,118.98077178659383
1674.883828,50.77697390270518
1678.031523,-56.91802629833395
1681.175157,-47.01434304585902
1684.314739,-22.201781773265715
1687.450284,27.91061959604606
1690.581801,42.91322622210089
1693.709304,-26.33567033365388
1696.832803,-13.616012469974962
1699.952311,45.394783932884565
1703.067839,50.12780304760037
1706.179399,172.47832411992914
1709.287003,291.82851883535636
1712.390663,123.97934396679835
1715.49039,-31.461261461131656
1718.586197,103.35652762871655
1721.678095,178.6474997581031
1724.766096,-1.5900766147571233
1727.850213,-124.31486002437447
1730.930456,-39.05855162311063
1734.006838,36.041267108493614
1737.079372,9.755465224907699
1740.148067,43.75208521383394
1743.212938,118.45615598838404
1746.273996,74.25722731984557
1749.331252,-2.812975362237644
1752.384718,-11.992806161387133
1755.434408,8.271465120631774
1758.480332,69.11896495829309
1761.522503,69.64596457850388
1764.560933,-78.95593681364555
1767.595634,-102.43715223570021
1770.626618,120.55448022814416
1773.653896,192.6172651910621
1776.677482,5.007000708839378
1779.697388,-23.32724894301216
1782.713625,182.16952924553172
1785.726205,274.63787818676155
1788.735141,138.9315933560939
1791.740445,-15.257258480529394
1794.742129,37.04322458564205
1797.740206,212.84523327777498
1800.734687,225.8711027263634
1803.725585,75.2234556942656
1806.712912,0.9536540488027434
1809.69668,48.6669650701219
1812.676902,26.395765310209804
1815.65359,-85.48728730914289
1818.626756,-65.7010375388997
1821.596413,19.984675892825635
1824.562573,-28.75464954833365
1827.525247,-47.50745824781452
1830.48445,26.505452780963466
1833.440192,-1.7618423592610557
1836.392487,-17.845800483433262
1839.341347,77.19607071077881
1842.286784,33.32180367596236
1845.22881,-78.82541442979576
1848.167439,6.257848496248742
1851.102682,71.71914238087518
1854.034553,-25.545281869659227
1856.963063,4.47036228793858
1859.888226,143.95302209285384
1862.810053,136.94369320339382
1865.728557,76.78357791996822
1868.643751,15.86467641308729
1871.555648,-129.85755002202896
1874.46426,-124.95040317832172
1877.369599,58.112069338825705
1880.271679,70.80012915676639
1883.170512,22.732063818689113
1886.06611,108.40333302623183
1888.958487,72.25367351706203
1891.847655,-55.3761954867052
1894.733626,-33.00144318563117
1897.616414,3.4134302632137654
1900.496032,-38.812839626235174
1903.372491,-0.3383101225210652
1906.245805,149.83792079493873
1909.115987,215.08807087207842
1911.983049,80.09885720902776
1914.847004,1.5351503165458364
1917.707866,130.30683654269072
1920.565646,161.1893105025586
1923.420359,16.960889662585764
1926.272016,-54.103092313250826
1929.120631,-35.081302325076344
1931.966216,-25.57665732434556
1934.808786,-16.76745714194292
1937.648351,22.751083798345086
1940.484927,25.907451583841894
1943.318525,19.831439837528585
1946.149158,216.23312388723352
1948.97684,396.2300834442933
1951.801584,215.29671694759617
1954.623403,25.08275764413785
1957.44231,61.08308468910402
1960.258318,9.76121419234962
1963.071439,-94.02406207564809
1965.881688,1.401676759839063
1968.689078,109.24625301571918
1971.493621,3.8763673426067697
