Raman shift cm-1,4ATP_1nM_rep3_acc1_processed_intensity
-93.47115107,650.6424807970726
-87.69374369,167.47343407359057
-81.9253076,7.244391352868817
-76.16582701,139.0697884201675
-70.41528615,150.18386288548015
-64.67366933,-33.06780805710983
-58.94096086,-57.761571314482474
-53.21714512,3.622677708145474
-47.50220652,-10.805958501744904
-41.79612954,59.10449546654091
-36.09889866,200.39844990919033
-30.41049843,195.55322666190247
-24.73091343,50.758370785509186
-19.0601283,45.78468744109003
-13.39812769,56.87974843933708
-7.744896327,-95.16184915458767
-2.100418946,-46.139627123308244
3.535319659,111.89267960932179
9.162334658,61.77551063667417
14.78064118,-6.821764633227485
20.39025432,-42.50695962686635
25.99118913,19.206968312583697
31.58346061,145.90918378945884
37.16708375,96.37189813500535
42.74207347,33.93257526060013
48.30844468,35.7474937658544
53.86621222,35.166012179538335
59.41539093,-33.978436318440714
64.95599558,-59.060908992482766
70.48804091,210.66661846240515
76.01154164,155.5251049905322
81.52651243,-129.7160937394686
87.03296792,175.94281835351967
92.5309227,332.67950744349326
98.02039134,40.22583880179182
103.5013884,61.79071218032979
108.9739282,143.21679704114777
114.4380255,48.27721061352104
119.8936944,280.37147947588744
125.3409495,476.0270467144727
130.779805,107.04610857284372
136.2102753,-88.79034812667271
141.6323747,88.43857441370011
147.0461174,95.71752023643239
152.4515176,55.53576300850783
157.8485895,-12.511200460415628
163.2373472,-93.04321235746056
168.6178049,57.70714459491139
173.9899766,133.00111004755843
179.3538764,-6.851210522563289
184.7095182,42.8983517239324
190.0569161,168.34697920108897
195.396084,81.25629163738215
200.7270358,19.611926153903497
206.0497854,14.086144817678324
211.3643466,-19.373043627337132
216.6707333,-8.254359307175001
221.9689593,-0.5131105361380097
227.2590382,24.68576807179714
232.5409839,-5.961862962930844
237.8148101,-59.07856029734815
243.0805303,2.6246011201627226
248.3381582,32.02052839563645
253.5877075,40.95609231289485
258.8291917,117.49044773629957
264.0626244,157.9293345908457
269.288019,219.2576318712283
274.5053891,331.1535354265013
279.7147481,308.3382801389179
284.9161094,213.51228619598115
290.1094865,157.94034694686542
295.2948927,190.70222415650562
300.4723414,259.38767046998225
305.6418459,19.855381845255835
310.8034194,-84.08363581717765
315.9570752,278.0688704718741
321.1028267,417.9384801991989
326.2406869,394.4793768307399
331.370669,472.34724938037374
336.4927863,367.186475171508
341.6070517,247.80072063756307
346.7134786,383.54580173830806
351.8120798,404.58798462129806
356.9028684,247.30834498944057
361.9858576,368.2541191586032
367.0610602,350.4941266464912
372.1284892,205.95616305931784
377.1881577,410.94395173661763
382.2400784,562.5316866121615
387.2842644,887.7494439939665
392.3207284,1222.977482107904
397.3494833,1055.604655767246
402.370542,872.6880013871587
407.3839172,616.2037536183891
412.3896217,351.47799391614194
417.3876683,241.04205648436056
422.3780697,26.945422224537932
427.3608386,28.283825353211952
432.3359876,189.40988657211716
437.3035295,250.24225539217375
442.2634769,174.05074138614344
447.2158423,-40.62389144368359
452.1606383,-31.142207262614022
457.0978776,49.149407418984126
462.0275727,-14.82105360819455
466.9497361,25.648477788290286
471.8643802,34.107889646557176
476.7715176,-61.21769830049746
481.6711608,16.138987435723468
486.5633221,153.058237074285
491.448014,62.406232605094
496.3252488,-62.70602945637354
501.195039,12.859188911175131
506.0573969,165.18681956272775
510.9123349,102.76937332734371
515.7598651,-77.94306103803481
520.6,54.076143634003984
525.4327518,282.4736533514907
530.2581327,165.63325972355818
535.076155,39.1365799058151
539.8868309,191.1562811324664
544.6901726,206.20639292130954
549.4861922,244.29244945352036
554.2749019,421.29779189608615
559.0563139,100.74610708839765
563.8304402,-85.63765512571509
568.597293,341.4866773654252
573.3568844,326.3955651336372
578.1092263,-37.258032634766835
582.8543308,46.24326412252374
587.5922101,165.68706420152162
592.322876,39.785050890071886
597.0463405,8.905176046659335
601.7626157,18.915012541884167
606.4717135,-28.297153687366038
611.1736458,-57.37397401046802
615.8684246,9.23242835730288
620.5560617,103.05268455348666
625.2365691,28.11417817424706
629.9099585,52.65392087184298
634.5762419,150.28521626159989
639.2354312,96.33531880878218
643.887538,99.46974963394915
648.5325743,21.804434343296073
653.1705518,-37.83999733480052
657.8014823,26.456679041946938
662.4253775,-42.51831887514355
667.0422493,-7.7966335745961
671.6521092,80.19456903348254
676.2549691,-5.756822280605064
680.8508407,25.92935404588274
685.4397355,109.58107478039469
690.0216654,-0.03674685368159203
694.5966419,-15.825372911066488
699.1646767,102.56079021260882
703.7257814,105.70617012183283
708.2799676,134.12205360072974
712.827247,217.8418926241018
717.367631,178.55012862738488
721.9011314,29.099308752907078
726.4277595,-49.74312180373857
730.9475271,31.880950677316598
735.4604456,135.60581841804452
739.9665264,184.6287690544944
744.4657813,218.69175930173486
748.9582215,128.00996481896564
753.4438587,-12.94610604276658
757.9227042,7.972309057365507
762.3947696,-5.193606098913811
766.8600662,87.82983027977318
771.3186056,301.2035004560055
775.770399,243.73038602126528
780.215458,203.56870508563125
784.6537939,153.05699365159066
789.0854181,-41.09174909590297
793.510342,50.85695849377227
797.9285769,281.793608553089
802.3401342,256.3880150444419
806.7450253,131.83846767479486
811.1432614,92.58082644251829
815.5348538,-9.749680873378107
819.9198139,-80.95597670358728
824.2981531,19.35850410806471
828.6698824,49.98004035280439
833.0350133,0.3012578801361996
837.393557,-1.2629006413404347
841.7455248,29.44381714721268
846.0909278,61.92118792163131
850.4297774,2.154383649201421
854.7620848,-20.178433114524292
859.0878611,-9.047802863915607
863.4071176,-87.14403538781139
867.7198655,33.353491380590356
872.026116,322.8087969496167
876.3258802,385.5164325039931
880.6191693,267.9667440320924
884.9059946,294.9112553225545
889.186367,310.8468028818745
893.4602979,61.316858435774684
897.7277982,-48.734896939923345
901.9888793,172.82781114117867
906.2435521,266.407244035239
910.4918277,47.15022748766341
914.7337174,-85.78361347685433
918.9692321,6.8138196407136675
923.1983831,112.20887548875407
927.4211813,264.11072844032407
931.6376378,255.72173759981257
935.8477637,131.42198743907184
940.0515701,197.18431329910032
944.249068,126.24457938422569
948.4402684,-18.506245860151715
952.6251825,12.96013791313965
956.8038212,135.80407370783246
960.9761955,203.00946033387265
965.1423166,52.94314436277534
969.3021953,-9.196099830497097
973.4558427,11.82265606333489
977.6032699,-33.435470258433995
981.7444877,38.508391024533005
985.8795072,44.3308531297888
990.0083394,-42.82348186790102
994.1309953,-9.877144446095443
998.2474857,-3.6950629360054847
1002.357822,-72.89525558007156
1006.462014,-20.620563171253522
1010.560075,38.1405756609274
1014.652013,83.70996674247759
1018.737841,153.09409787733483
1022.81757,52.68493031870811
1026.891209,-32.845386324848974
1030.958771,57.50985820764451
1035.020266,133.37786728371304
1039.075705,38.44403483372853
1043.1251,33.542615606795366
1047.16846,252.33318102617937
1051.205797,142.96471738072051
1055.237121,-76.70374362748214
1059.262444,-40.335923286670976
1063.281777,-52.94814788639775
1067.295131,288.32017810829996
1071.302515,793.0005369733944
1075.303942,938.9174298570108
1079.299422,1135.8012503157447
1083.288966,1067.8710575815883
1087.272585,575.1720325287058
1091.250289,249.30571400199085
1095.222091,94.63450264618481
1099.187999,45.69243879742698
1103.148026,34.98446749509206
1107.102183,41.3748929686671
1111.050479,143.49820221171612
1114.992927,22.773752525339567
1118.929536,-85.70742639985326
1122.860318,16.494981865443563
1126.785283,-56.38779687440885
1130.704443,91.96265670503173
1134.617808,316.9156887821864
1138.52539,232.10048242215728
1142.427198,319.3541399279753
1146.323244,185.7074771010599
1150.213538,21.059306454811058
1154.098093,223.66765444554943
1157.976917,91.18476589393869
1161.850023,46.39804183977066
1165.717421,223.35662481663846
1169.579121,242.7185076197849
1173.435135,322.8609052879538
1177.285474,239.48056576664746
1181.130148,217.04153670048623
1184.969169,406.58416870241734
1188.802547,372.3849430860945
1192.630292,131.70092952895635
1196.452416,25.34928563112028
1200.26893,22.923622173489214
1204.079844,-77.08833319626457
1207.88517,-41.32960913068506
1211.684917,-12.350224985999773
1215.479098,137.0005091332215
1219.267722,402.2144307985521
1223.050801,128.28830734379216
1226.828346,-1.5103304722560722
1230.600366,181.6885414617911
1234.366874,106.24437646997974
1238.12788,63.91673591425406
1241.883395,39.72253694872977
1245.633429,171.63485679616227
1249.377994,243.39213139615688
1253.1171,-4.453590646991259
1256.850759,-20.045439114143427
1260.578981,64.50954454144153
1264.301776,125.03180470026012
1268.019157,158.8808036118608
1271.731133,-65.70457986043645
1275.437715,-65.91161397752334
1279.138915,213.69665019767598
1282.834743,200.69531078749478
1286.52521,-31.393710930319827
1290.210328,-72.75589821336854
1293.890106,46.32192050238244
1297.564555,62.475506149678644
1301.233688,59.26119697443359
1304.897514,112.07026146897351
1308.556044,149.81852098610884
1312.209289,60.879188023809434
1315.857261,-107.76036035417731
1319.499969,29.747427673179846
1323.137425,176.0056871135393
1326.769641,138.7740164570247
1330.396626,214.7517555508104
1334.018391,110.11608193938847
1337.634948,-10.154725078967967
1341.246307,35.4566866108551
1344.85248,-13.48581613800372
1348.453477,-35.42391930328551
1352.049309,-52.11816854932204
1355.639987,28.14672217543447
1359.225522,135.4674174977352
1362.805925,25.021674833129662
1366.381207,-0.21050290921796133
1369.951379,19.676679360315138
1373.516452,48.88844656413339
1377.076436,188.36462179973768
1380.631343,161.86046651382063
1384.181184,192.1256947441358
1387.725969,294.46952424513717
1391.26571,152.06549451776027
1394.800417,115.98363464137417
1398.330102,305.3027441542868
1401.854776,369.18414767749096
1405.374448,219.63307132075866
1408.889132,-14.950068507035212
1412.398837,-118.58423150177592
1415.903574,48.12862896074817
1419.403355,209.10549363678876
1422.89819,211.4836535930537
1426.388091,301.44173574072363
1429.873069,289.8400865719153
1433.353134,133.73388286389437
1436.828298,140.0324370382229
1440.298571,139.17330648529867
1443.763965,37.01439600807917
1447.224491,-51.668998009949505
1450.68016,-10.660938796492843
1454.130983,54.955755790919575
1457.576971,54.08966669639743
1461.018135,192.46323292156472
1464.454486,160.06523244502256
1467.886036,-42.421474300251106
1471.312794,-34.76057696276614
1474.734774,41.34195245858237
1478.151985,127.14974208773735
1481.564439,122.87837220685523
1484.972146,-2.3872312656312085
1488.375119,-40.696482804278254
1491.773368,82.2222691023104
1495.166904,164.1274668014636
1498.555739,26.249536127659415
1501.939883,11.317265423489658
1505.319349,44.664023889165975
1508.694146,-34.169024195659915
1512.064286,134.9039368323076
1515.429781,159.8678972667721
1518.790642,41.70291986586955
1522.146879,168.61993470711315
1525.498505,-25.9665695746321
1528.845529,-170.00851676915337
1532.187965,60.6424856061992
1535.525822,37.54088533998859
1538.859112,96.07452501944874
1542.187846,158.7025381975183
1545.512036,29.901429821756317
1548.831693,175.94978112468786
1552.146829,223.16953625225472
1555.457453,36.16616193171945
1558.763579,-36.643730316542204
1562.065216,34.38189805292984
1565.362377,221.78906741070747
1568.655073,397.5458274537933
1571.943315,392.6290373959991
1575.227114,264.95902169686946
1578.506482,414.2095068517861
1581.781431,631.4021611290225
1585.051971,552.1303168144418
1588.318114,604.6709758424352
1591.579872,711.3450518654101
1594.837255,536.5627130079183
1598.090275,317.96728231976545
1601.338945,291.95205739487113
1604.583274,275.3050233582553
1607.823275,3.688535237383377
1611.058959,-74.9408145048887
1614.290338,83.84385551482677
1617.517422,-27.946358497091495
1620.740224,-12.165752081768765
1623.958755,180.839626682856
1627.173027,59.710519509248755
1630.38305,7.1855799849991016
1633.588838,95.94454082142144
1636.7904,46.55398472803668
1639.987749,174.0568184757508
1643.180896,198.3563914369404
1646.369853,63.16239200550011
1649.554632,213.2516524938212
1652.735244,102.95704344722122
1655.9117,-113.28590557714766
1659.084013,168.61225229708185
1662.252193,239.58188882220037
1665.416254,-48.91411310462476
1668.576205,-0.5457994159235824
1671.732059,180.39356804599248
1674.883828,60.807703367523075
1678.031523,-39.652605520907976
1681.175157,40.15211189681853
1684.314739,10.491387883938081
1687.450284,-30.183137874798916
1690.581801,56.05941202684447
1693.709304,53.16944963082241
1696.832803,-29.601870479342775
1699.952311,-39.946322435881825
1703.067839,29.000971872979065
1706.179399,198.66194089227346
1709.287003,281.7384967425682
1712.390663,149.79158373869294
1715.49039,168.6657019776876
1718.586197,308.2742178057665
1721.678095,241.8586308774181
1724.766096,84.780317980887
1727.850213,-69.73647662944259
1730.930456,-33.091121074891745
1734.006838,107.9191016183403
1737.079372,-4.944513795893116
1740.148067,54.18743204522464
1743.212938,276.5021894202699
1746.273996,136.64862565108558
1749.331252,7.269463784324799
1752.384718,102.04338886812882
1755.434408,124.37768182355626
1758.480332,108.01969117338977
1761.522503,142.32590633861952
1764.560933,42.616119300884485
1767.595634,-90.64855226554998
1770.626618,54.05055070619678
1773.653896,114.5421889087284
1776.677482,-37.662515177457614
1779.697388,53.90256616040756
1782.713625,198.3450456916644
1785.726205,184.2874710771309
1788.735141,131.98381753733176
1791.740445,-10.068028388051015
1794.742129,34.72448455981259
1797.740206,251.87844409906216
1800.734687,225.74713824432712
1803.725585,139.75225856443294
1806.712912,123.10948478140097
1809.69668,43.78353075732838
1812.676902,-48.036942050445504
1815.65359,-104.78689563887039
1818.626756,-39.47475118427798
1821.596413,41.467109950972265
1824.562573,26.00107620912438
1827.525247,36.60679050975706
1830.48445,14.983402014991809
1833.440192,-62.96255450199439
1836.392487,-35.77259551892577
1839.341347,41.57671178856115
1842.286784,44.31798930286627
1845.22881,35.76958729441459
1848.167439,52.5557579539588
1851.102682,84.14737916137325
1854.034553,12.312851481868051
1856.963063,-53.43433137140866
1859.888226,176.52100093438173
1862.810053,207.55895289838148
1865.728557,-35.61890215274608
1868.643751,18.563684376089093
1871.555648,-19.459822479575642
1874.46426,-85.57266218408834
1877.369599,118.76283169778753
1880.271679,38.25792877743818
1883.170512,-6.557389521945703
1886.06611,172.62534351173042
1888.958487,37.858219236625864
1891.847655,-72.06206927903652
1894.733626,60.687883388806334
1897.616414,35.22304001964062
1900.496032,-64.3673255362856
1903.372491,14.808320893626139
1906.245805,60.14430181326389
1909.115987,42.3443211156117
1911.983049,20.89853642885628
1914.847004,-75.69551551321999
1917.707866,27.91859292121793
1920.565646,147.8907511542928
1923.420359,31.569559755921045
1926.272016,-47.49439534218665
1929.120631,-71.9491563265922
1931.966216,3.261197849133623
1934.808786,26.599537902102682
1937.648351,-24.861690947482977
1940.484927,94.80865915927133
1943.318525,60.57306320415424
1946.149158,211.57283536221445
1948.97684,569.8658649454585
1951.801584,330.6125656270008
1954.623403,103.35125329857668
1957.44231,161.41627797114666
1960.258318,-0.047782248237297154
1963.071439,-43.89595854059492
1965.881688,114.41615447923672
1968.689078,163.26061167145684
1971.493621,25.31707105862523
