Raman shift cm-1,blank_rep1_acc1_processed_intensity
-93.52472366,842.9168546497718
-87.74731628,60.24363658939911
-81.97888019,-74.21238211110776
-76.2193996,52.862258952272676
-70.46885874,9.499339268339996
-64.72724191,-84.39630560197647
-58.99453344,-114.93395998536351
-53.2707177,60.31591454407555
-47.55577911,96.55161189973123
-41.84970212,-0.4649992658907678
-36.15247124,351.5075825377661
-30.46407101,512.9976064771116
-24.78448602,233.60068094345917
-19.11370089,221.44234145911182
-13.45170028,95.65457746741436
-7.798468914,-219.78469240588845
-2.153991534,-25.291651262030385
3.481747071,127.6619061328451
9.10876207,10.570878108801196
14.72706859,125.02636775615059
20.33668173,-44.450187868796334
25.93761654,-107.89222624126788
31.52988803,241.82863966189728
37.11351116,110.21079992368337
42.68850089,-29.149919171404918
48.25487209,119.73723002323047
53.81263964,14.313286826618537
59.36181834,-182.00662900102805
64.90242299,-181.87373464317523
70.43446832,103.17772720500601
75.95796905,98.87686439359871
81.47293984,-162.47232175750642
86.97939533,127.94406483233782
92.47735012,269.9992700209887
97.96681875,-11.085513288452312
103.4478158,81.18856941992902
108.9203557,85.95228633556226
114.3844529,-89.63835477017955
119.8401218,282.274110522785
125.2873769,606.7456153899939
130.7262324,204.50186135976986
136.1567027,-165.20244068938757
141.5788021,48.91936242160012
146.9925448,259.37217109010896
152.397945,168.33140606287924
157.7950169,42.19792504501404
163.1837747,-8.66227818588656
168.5642323,229.69599738522257
173.936404,361.977683649884
179.3003038,24.989481899614503
184.6559456,38.51418837630891
190.0033435,378.60836579042245
195.3425114,310.22016157381626
200.6734632,42.169405832975116
205.9962128,-103.87570968242983
211.310774,-32.88681081790406
216.6171607,77.5452054831429
221.9153867,-24.63564408080373
227.2054656,-16.051912287169515
232.4874113,39.33182489457553
237.7612375,-11.949866225172652
243.0269577,105.20793333675849
248.2845856,70.64868565339928
253.5341349,-81.90885691115695
258.7756191,-13.691327004736152
264.0090518,40.85370985958517
269.2344464,168.08858145187867
274.4518165,213.33595088615508
279.6611755,-5.742524091963741
284.8625368,-99.79506685407587
290.0559139,-73.45169979975617
295.2413201,457.22215993282083
300.4187688,1575.393173240052
305.5882733,2481.6445449787825
310.7498468,3289.8938490283003
315.9035027,3910.117889260004
321.0492541,4009.975170649483
326.1871143,3990.4007989468014
331.3170964,3972.5051801808336
336.4392137,3966.70577081808
341.5534792,3821.029815568574
346.659906,3663.2815249447317
351.7585072,3586.1819311850827
356.8492959,3315.2832018225818
361.932285,3267.8585070868385
367.0074876,3227.3933958239722
372.0749167,3002.803692681813
377.1345851,2880.9058623261453
382.1865058,2516.7529002426486
387.2306918,2281.1109272941467
392.2671558,2192.190328262291
397.2959107,1889.379118470808
402.3169694,1787.4048165362965
407.3303446,1701.8162960133086
412.3360492,1403.1281258276285
417.3340958,1117.223554683053
422.3244971,994.6516650890576
427.307266,1023.5927929311001
432.2824151,1084.1592574314532
437.2499569,1193.8158519177578
442.2099043,906.3855507008539
447.1622697,435.96149351004397
452.1070657,472.0190016192828
457.044305,340.15009190328783
461.9740001,102.57084893965657
466.8961635,76.80340403276296
471.8108076,-130.04787092109018
476.717945,-15.469299149683593
481.6175882,149.41506046896757
486.5097495,85.5872187781265
491.3944414,124.33215736152624
496.2716763,-76.74649118161915
501.1414665,32.314789741062214
506.0038244,333.46180660042955
510.8587623,3.1096946055590706
515.7062925,-139.26648490724892
520.5464274,31.643231088639823
525.3791792,89.50796215330001
530.2045601,17.77009391531101
535.0225824,-189.39611270465502
539.8332583,20.06271146730569
544.6366,14.380090465226658
549.4326196,0.36324293581310485
554.2213293,518.6452993257567
559.0027413,99.66253114630672
563.7768676,-162.77314397583314
568.5437204,516.472065351807
573.3033118,348.58445245887697
578.0556537,10.500574632409553
582.8007583,262.2045946998401
587.5386375,225.87654561670752
592.2693034,0.861544833165226
596.9927679,71.35958890436495
601.7090431,216.2633571166557
606.4181409,31.606202558212317
611.1200732,-153.4937053797007
615.814852,114.04182214732555
620.5024891,201.09358505580713
625.1829965,60.16824571524785
629.8563859,377.11520439693686
634.5226693,392.19354315907503
639.1818586,38.36600734357489
643.8339654,4.496858458340284
648.4790017,-37.07656064922344
653.1169792,54.30643822301772
657.7479097,41.36993649341139
662.3718049,-225.8500468571965
666.9886767,-167.59221647104232
671.5985366,32.38638936824759
676.2013965,89.1721373596888
680.7972681,14.229943801704849
685.386163,3.8633552444116503
689.9680928,-8.361785674388784
694.5430693,25.339215074657886
699.1111041,197.3609139743255
703.6722088,113.87800476039774
708.226395,74.76839239341211
712.7736744,205.05723485235308
717.3140584,171.52926801912645
721.8475588,4.087964498603242
726.3741869,-137.37300936281304
730.8939545,19.404553914738244
735.406873,268.48224959192225
739.9129539,251.911158651606
744.4122087,199.1741181442369
748.9046489,95.89225508065033
753.3902861,-98.4521890285032
757.8691316,-22.702080184410192
762.341197,21.242150354096793
766.8064936,223.2143935673572
771.265033,609.1937558966301
775.7168264,388.18705474592036
780.1618854,234.65951688505913
784.6002213,189.3302161624623
789.0318455,-108.28376502082324
793.4567694,124.8623617485672
797.8750043,282.3911474124351
802.2865616,-16.537662741759164
806.6914527,30.04619904064748
811.0896888,167.12183391856445
815.4812812,45.47263384483233
819.8662414,-81.31081369008501
824.2445805,3.258096929546241
828.6163098,163.87843271135597
832.9814407,-1.9788349239314016
837.3399844,-119.4504933259469
841.6919522,88.9368533682781
846.0373552,56.908851543985236
850.3762048,-28.113182793274888
854.7085122,208.94280780580306
859.0342885,206.28344131196513
863.353545,-2.469924777035004
867.6662929,75.08102856291461
871.9725434,388.4640587060169
876.2723076,590.1877922974113
880.5655967,327.6208516865842
884.852422,358.0513220302969
889.1327944,576.5907156818498
893.4067253,16.147527620773353
897.6742257,-161.36361127621447
901.9353067,252.92804851566567
906.1899795,250.24984960554997
910.4382551,56.68718364886339
914.6801448,-105.37857853983965
918.9156596,-31.169508642935625
923.1448105,30.8187137465535
927.3676087,113.75155839672594
931.5840652,280.04825829895356
935.7941911,40.431699398641996
939.9979975,74.09340650616119
944.1954954,71.75145614341483
948.3866958,-256.6815821485169
952.5716099,-89.37464619335076
956.7502486,73.27532086082704
960.9226229,76.04387849130245
965.088744,86.03398788374383
969.2486227,16.39169723450331
973.4022701,19.1274657443075
977.5496973,-47.97174188346439
981.6909151,-36.600836746412796
985.8259346,18.276601836858433
989.9547668,-14.576453587620946
994.0774227,93.15326027794893
998.1939132,23.67701066372973
1002.304249,-112.0781057304802
1006.408442,-61.44444070071135
1010.506502,-165.06717252067835
1014.598441,108.82095080214123
1018.684269,427.5337888260053
1022.763997,121.94557700529862
1026.837637,-59.256728964473496
1030.905199,-12.029919619284797
1034.966694,127.85794530147685
1039.022133,70.952704371654
1043.071527,-141.86899869237763
1047.114887,86.52300094414551
1051.152224,78.46820957542437
1055.183549,-43.347820350840685
1059.208872,41.930080946700734
1063.228205,-256.31925721931697
1067.241558,-175.06446102067093
1071.248943,120.73005208707207
1075.250369,60.39025648389304
1079.245849,278.7103613459365
1083.235393,221.97505388590832
1087.219012,2.5454573644199883
1091.196717,269.6070661100217
1095.168518,263.89687337483014
1099.134427,57.60756138416042
1103.094454,20.290139849569613
1107.04861,17.804610882002834
1110.996907,217.76054707512384
1114.939354,158.73003863843405
1118.875963,84.48728018861416
1122.806745,333.64779672561656
1126.731711,-7.896656912639912
1130.650871,-118.57292950310288
1134.564236,339.69670458350663
1138.471817,268.79105186940353
1142.373625,252.8643225657107
1146.269671,247.91906726783785
1150.159966,197.95148721273813
1154.04452,306.49476858180105
1157.923344,14.025853412109171
1161.79645,40.11919200877534
1165.663848,271.92552914396276
1169.525549,342.40152664629704
1173.381563,400.08143937230295
1177.231902,15.991717982009487
1181.076576,-70.46271085490139
1184.915596,243.44599456174242
1188.748974,279.60520133027774
1192.576719,69.0935576236894
1196.398844,61.22967253317934
1200.215357,194.79181508191166
1204.026272,-81.83427009281655
1207.831597,-69.36759697236923
1211.631345,13.155566375319701
1215.425525,200.8675716510836
1219.21415,799.3076824994226
1222.997229,307.5543440610692
1226.774773,-132.1630653173773
1230.546794,267.76579125833166
1234.313302,123.28211863722284
1238.074307,-34.24254345967208
1241.829822,125.04650466607168
1245.579857,262.7669538739093
1249.324421,97.86376702389359
1253.063528,-178.6663057364059
1256.797186,2.1902728839250614
1260.525408,70.4640696916031
1264.248204,16.555369272527173
1267.965584,82.5443688701746
1271.67756,-134.13709406965813
1275.384142,-187.68525129868272
1279.085342,128.58148906895366
1282.781171,268.73803038248764
1286.471638,49.653713373227795
1290.156755,-121.79867340070015
1293.836533,92.82881652685856
1297.510983,192.87486311410396
1301.180115,18.857175192924643
1304.843941,-16.031988561113344
1308.502471,115.9736553179773
1312.155716,82.17097670854218
1315.803688,-156.6490644879476
1319.446396,27.063433550681253
1323.083853,275.7328876771367
1326.716068,251.73623253200728
1330.343053,359.912419171345
1333.964818,268.7752808006616
1337.581375,200.98718448177968
1341.192735,174.09965179432885
1344.798907,-34.807310980307804
1348.399904,-66.85054295225896
1351.995736,-118.68908761775297
1355.586415,53.30500945027054
1359.17195,326.02673472326194
1362.752353,97.98973161677178
1366.327635,-17.995238560256205
1369.897807,170.62012793656933
1373.462879,302.9325571458526
1377.022864,336.19694066432527
1380.577771,123.16197576488904
1384.127611,-6.36275862632133
1387.672397,69.912739471546
1391.212137,-12.519307508301312
1394.746845,-103.01880218285162
1398.27653,33.85719292807215
1401.801203,242.43180899084152
1405.320876,231.51857123644294
1408.835559,19.437512381521877
1412.345264,-185.05446285313747
1415.850001,7.475774372718028
1419.349782,347.188467315169
1422.844618,68.28154811079045
1426.334519,4.204716878576761
1429.819496,269.1649559897295
1433.299561,19.444084776936972
1436.774725,45.36751840089893
1440.244998,265.1967756835947
1443.710393,33.298531680527915
1447.170919,-127.80315758732434
1450.626588,-6.572620312498913
1454.07741,155.47869018716344
1457.523398,259.1084943304554
1460.964562,268.4083919773235
1464.400914,192.77175777812297
1467.832463,117.79571147381608
1471.259222,-71.761677039056
1474.681201,-111.17491938349951
1478.098412,113.71377245594914
1481.510866,126.77251024135393
1484.918574,-21.144029824425814
1488.321546,-108.93994030224141
1491.719795,117.11158733498436
1495.113332,385.1047395934236
1498.502166,213.24936794676796
1501.886311,-36.42628411514568
1505.265776,-135.821165149909
1508.640573,-19.386831945142713
1512.010714,155.54703935254517
1515.376209,60.87289689827654
1518.737069,74.32737958567569
1522.093306,193.35803952160146
1525.444932,-93.38162523827822
1528.791957,8.908376677616957
1532.134392,379.35285759125316
1535.472249,79.43438989475436
1538.805539,220.18240065407468
1542.134274,358.52579870119087
1545.458464,96.9491618870391
1548.778121,632.24917262965
1552.093256,602.9122144119012
1555.403881,-124.57984881620531
1558.710006,-174.6897186857712
1562.011644,5.9607694513847065
1565.308805,166.0287999286919
1568.6015,242.1544890895181
1571.889742,100.42102158077991
1575.173542,-9.07623625611734
1578.45291,39.0720909531652
1581.727858,94.0959172036601
1584.998398,56.00049614033004
1588.264541,-8.198666110270125
1591.526299,-77.10638548260096
1594.783682,-53.516303041854286
1598.036703,-125.64221477003974
1601.285372,-3.839622751642466
1604.529701,332.4423968249864
1607.769702,109.3847105477822
1611.005386,74.70786965423734
1614.236765,363.28286715993397
1617.463849,113.51465294529746
1620.686651,-27.829352547320873
1623.905183,43.924566526966686
1627.119454,-126.96448716433707
1630.329478,-116.78301982301696
1633.535265,47.048111989626854
1636.736827,-1.5296140159783815
1639.934176,58.06215337901361
1643.127324,64.46784811158194
1646.316281,-41.78444251811628
1649.50106,252.15869338346297
1652.681671,111.37970040541725
1655.858128,-330.11716217188007
1659.03044,103.54083340056638
1662.198621,358.24449992892687
1665.362681,-12.043347208584123
1668.522632,27.419917968198355
1671.678487,267.69609523601144
1674.830256,259.3028332131962
1677.977951,63.39649396844099
1681.121584,15.701841484642559
1684.261167,162.48710630077244
1687.396711,53.75990989284271
1690.528229,-45.81971841359857
1693.655731,-74.10378808193522
1696.779231,-78.30999417890148
1699.898738,105.99641993884524
1703.014266,-15.281343594384502
1706.125826,-37.107335988269675
1709.23343,223.27234211592514
1712.33709,86.90273007477262
1715.436818,21.7944361931361
1718.532624,208.47810405489605
1721.624522,232.17415184523975
1724.712524,170.56717471072068
1727.79664,-8.182582940340296
1730.876884,-116.72309509026687
1733.953266,35.54988393045582
1737.025799,-29.206013784696417
1740.094495,16.338617209780907
1743.159366,366.59744174424605
1746.220423,106.80040930644743
1749.277679,-143.5635883654852
1752.331146,107.98677638970571
1755.380835,55.34115281497719
1758.42676,3.4225670064249982
1761.468931,111.58256032161697
1764.50736,-82.94970572200167
1767.542061,-144.9508127898951
1770.573045,208.4800685119164
1773.600324,262.1319545233934
1776.62391,-30.64281908138716
1779.643815,69.38479327631855
1782.660052,333.50459285835365
1785.672632,347.45244140138453
1788.681568,279.067159108524
1791.686873,35.04634287964083
1794.688557,-60.062705204986
1797.686633,183.96546157096176
1800.681115,232.2078152310609
1803.672013,157.4813263272502
1806.65934,52.87945637720478
1809.643108,-22.47485280114638
1812.62333,15.580330935377749
1815.600018,-35.74572244006589
1818.573184,49.256140487655664
1821.542841,50.235388597296144
1824.509,-118.94963575503166
1827.471675,-61.808222123810154
1830.430877,20.93713974708545
1833.38662,-8.65880146071451
1836.338914,6.565863272080783
1839.287774,127.76069613123094
1842.233211,34.453456719239504
1845.175238,-135.76254659133585
1848.113866,69.57632691288379
1851.04911,180.08426837630128
1853.98098,-11.861506960148105
1856.909491,55.59015616581313
1859.834653,390.03889647468594
1862.75648,333.97410592942765
1865.674985,3.3109108687714257
1868.590179,-39.09419121434432
1871.502076,-77.501897780543
1874.410687,-88.75213013148553
1877.316027,107.61707610490816
1880.218107,42.75677056385092
1883.116939,12.78325037770804
1886.012538,212.2820925512716
1888.904914,52.73428780816462
1891.794082,-47.29212075889624
1894.680054,242.90755536653307
1897.562842,198.6003050947606
1900.442459,-88.02483628328636
1903.318918,21.141628682880814
1906.192232,270.42457334460534
1909.062414,311.7754658455965
1911.929476,222.5884543558075
1914.793432,174.23639767174197
1917.654293,263.3338336809435
1920.512074,125.16577477522806
1923.366786,-106.49788848134617
1926.218443,4.259197949696073
1929.067058,16.195498241565986
1931.912644,-100.57056422607391
1934.755213,-29.620970503289875
1937.594779,96.68618266012248
1940.431354,104.68525318204033
1943.264952,-40.3045347367963
1946.095586,310.6738542342243
1948.923268,696.6615948433259
1951.748012,253.3904885372276
1954.569831,83.36393595697106
1957.388737,169.61649993919104
1960.204745,-118.99132253766162
1963.017867,-117.27266797082902
1965.828116,123.71653589436642
1968.635505,180.41605946886887
1971.440049,-2.9126745830458987
