Raman shift cm-1,4ATP_1uM_rep1_acc1_processed_intensity
-93.47115107,0.760585078408271
-87.69374369,89.94084369833061
-81.9253076,5.108991821181201
-76.16582701,-26.269211703915023
-70.41528615,32.08981570200296
-64.67366933,24.253489915274642
-58.94096086,-9.909915329471445
-53.21714512,-35.25556019265247
-47.50220652,-0.32742246920944673
-41.79612954,-17.29706508724726
-36.09889866,-10.824394629222258
-30.41049843,39.886791637814994
-24.73091343,58.468374830780114
-19.0601283,23.91354993534788
-13.39812769,-5.716502037681398
-7.744896327,64.12014604710043
-2.100418946,-34.767120688016206
3.535319659,-8.053699086467155
9.162334658,34.69958605779922
14.78064118,-63.214378576932965
20.39025432,17.376041276887726
25.99118913,10.279183247581726
31.58346061,44.86170842890174
37.16708375,28.06838972557109
42.74207347,-18.895635159059786
48.30844468,13.751605689334408
53.86621222,-49.40605358179737
59.41539093,8.40046051015334
64.95599558,-22.925614661052034
70.48804091,-51.23596080809736
76.01154164,35.537451892394145
81.52651243,24.086399613753535
87.03296792,16.887962494001766
92.5309227,13.845504981750066
98.02039134,31.230439388352018
103.5013884,-19.948049854154966
108.9739282,-42.684525019613986
114.4380255,-3.05407507034377
119.8936944,3.932423075796355
125.3409495,31.36304265273485
130.779805,-7.19633692321983
136.2102753,-4.226592861621997
141.6323747,-16.913448873818847
147.0461174,-21.053156611849747
152.4515176,28.699126827180745
157.8485895,-4.068163780527413
163.2373472,-11.538322956255282
168.6178049,6.696244701301001
173.9899766,1.537141105992923
179.3538764,58.662813938713825
184.7095182,148.5441378119643
190.0569161,79.20634239820123
195.396084,8.848904064874532
200.7270358,18.55338851625184
206.0497854,-18.863226875950005
211.3643466,5.625755118382522
216.6707333,27.16097692292564
221.9689593,-35.12194951996395
227.2590382,-0.45134967485619804
232.5409839,86.602079195922
237.8148101,19.405863242104054
243.0805303,1.0639154243002835
248.3381582,22.300663569068416
253.5877075,-22.031908959333997
258.8291917,34.04752746714303
264.0626244,17.011850645984623
269.288019,-25.381799601637894
274.5053891,-28.07984347190081
279.7147481,-21.576012881432483
284.9161094,250.08542454563093
290.1094865,1067.8300950380672
295.2948927,3825.9425984695235
300.4723414,10181.148189742797
305.6418459,19504.826290274075
310.8034194,27541.303339828835
315.9570752,31093.827650618012
321.1028267,32084.068524462415
326.2406869,32475.246400931093
331.370669,33185.938145355205
336.4927863,34227.227751754624
341.6070517,34991.290478929615
346.7134786,35951.337878384475
351.8120798,36592.862523097436
356.9028684,36748.96908395771
361.9858576,36071.2059129515
367.0610602,35553.8517909815
372.1284892,36477.6946154742
377.1881577,38738.36345469438
382.2400784,43897.386564033346
387.2842644,48041.21313118768
392.3207284,48427.88246001167
397.3494833,47162.50665742813
402.370542,43423.5292498828
407.3839172,39116.235700561454
412.3896217,35732.842340625866
417.3876683,33135.692350020654
422.3780697,31252.320043070806
427.3608386,29570.88097712796
432.3359876,28454.811390916017
437.3035295,27618.917881192076
442.2634769,27128.088170108702
447.2158423,26531.458304732765
452.1606383,26128.294213057405
457.0978776,25968.832213480586
462.0275727,25807.95834140412
466.9497361,26035.330005567484
471.8643802,27040.957127190737
476.7715176,29356.832419008522
481.6711608,31864.464623373933
486.5633221,32955.205225625796
491.448014,31478.860438710275
496.3252488,28685.638689382977
501.195039,26475.39237035393
506.0573969,24812.97735530455
510.9123349,23792.395115059782
515.7598651,23231.46485392167
520.6,22628.51917430369
525.4327518,22136.617217664247
530.2581327,22064.711989729723
535.076155,22676.75447663475
539.8868309,23116.975917331045
544.6901726,21828.893285956896
549.4861922,19974.52303496014
554.2749019,19061.43239069322
559.0563139,18657.283102999012
563.8304402,18176.7239846004
568.597293,17740.272310926495
573.3568844,17711.82048495218
578.1092263,17490.972097985796
582.8543308,17327.08147308506
587.5922101,17166.794198435175
592.322876,16697.605512985498
597.0463405,16637.05174859619
601.7626157,16489.60150776826
606.4717135,16065.048130895568
611.1736458,15664.899899720513
615.8684246,15451.710764010075
620.5560617,15364.977259269133
625.2365691,15167.84512852229
629.9099585,14718.126381294649
634.5762419,14206.123500142709
639.2354312,14182.837824619608
643.887538,13626.2400144775
648.5325743,13021.548983886087
653.1705518,12956.79294154475
657.8014823,12455.99451353508
662.4253775,12010.840687250668
667.0422493,11785.812598984892
671.6521092,11593.195602094038
676.2549691,11263.864237459073
680.8508407,10910.21383094763
685.4397355,10844.366141937779
690.0216654,10829.097613278267
694.5966419,10825.815240592983
699.1646767,11381.155997389771
703.7257814,12133.034828978907
708.2799676,12982.868614500952
712.827247,13956.45748541662
717.367631,13253.98976865509
721.9011314,11310.918328152024
726.4277595,9658.246358686207
730.9475271,8613.100319368597
735.4604456,7977.415335007701
739.9665264,7606.771892490074
744.4657813,7475.308186652809
748.9582215,6975.082760944788
753.4438587,6544.824347962423
757.9227042,6185.813456676123
762.3947696,5724.695769947275
766.8600662,5421.2445958999015
771.3186056,5123.2052653230185
775.770399,4911.953808220263
780.215458,4511.398839153109
784.6537939,4423.547158124711
789.0854181,4671.463163057946
793.510342,4347.492538668232
797.9285769,4266.3360091489285
802.3401342,4345.607205883909
806.7450253,3741.607689022243
811.1432614,3179.0492933056594
815.5348538,2879.272310136839
819.9198139,2542.7819092532245
824.2981531,2155.6976031433132
828.6698824,1609.1306929435323
833.0350133,953.9004195410726
837.393557,627.5380168960182
841.7455248,405.03657874642704
846.0909278,264.66207486741587
850.4297774,263.7862241575931
854.7620848,14.515244687374434
859.0878611,-3.0125148620481923
863.4071176,11.740660072035098
867.7198655,123.63257232810065
872.026116,244.7557853251692
876.3258802,111.91153183482493
880.6191693,329.45048894993124
884.9059946,239.33485514482618
889.186367,-26.89474307376622
893.4602979,-28.129919694259115
897.7277982,43.940026290473725
901.9888793,390.1715526779826
906.2435521,639.4036762103051
910.4918277,1003.9294384538025
914.7337174,1461.508224487673
918.9692321,1668.8691588530091
923.1983831,1687.596710879413
927.4211813,1329.680448404084
931.6376378,1224.4330522347336
935.8477637,1280.3147863154863
940.0515701,1259.5879088636248
944.249068,1499.2283454481885
948.4402684,1302.7796039088562
952.6251825,1242.4274803354374
956.8038212,1561.515204094444
960.9761955,1483.062757205129
965.1423166,1509.8720121696788
969.3021953,1483.9763660235012
973.4558427,1325.3421319479512
977.6032699,1237.2890918921184
981.7444877,1094.1098327881527
985.8795072,1202.3335838547173
990.0083394,1019.8472155426643
994.1309953,975.3157614715028
998.2474857,1891.6067455632256
1002.357822,2939.2675166861045
1006.462014,3373.4355528127335
1010.560075,2186.4592871320037
1014.652013,529.6769248620967
1018.737841,108.76075879216569
1022.81757,-2.974088865138583
1026.891209,147.9890915509568
1030.958771,228.1462114947044
1035.020266,352.8870232053723
1039.075705,585.8947673449566
1043.1251,860.6638850452746
1047.16846,1627.767777058919
1051.205797,2881.905658356397
1055.237121,6282.7578673351
1059.262444,12079.548491403373
1063.281777,21946.440238654883
1067.295131,31562.93528376007
1071.302515,34633.32595459985
1075.303942,33306.31798154959
1079.299422,25976.489891564743
1083.288966,15771.126547777569
1087.272585,8177.500789184904
1091.250289,3940.7084907975723
1095.222091,2651.303611771337
1099.187999,1780.453929467436
1103.148026,2078.376547213652
1107.102183,2389.1177740752505
1111.050479,3024.3278976466954
1114.992927,4814.323391355099
1118.929536,7730.637883251622
1122.860318,12521.333582821493
1126.785283,20568.972670567673
1130.704443,31439.55276781806
1134.617808,35163.79104727245
1138.52539,35540.44964760202
1142.427198,34965.08017211162
1146.323244,24795.84080363693
1150.213538,14627.063109050456
1154.098093,9517.508563002939
1157.976917,6098.822595779065
1161.850023,4692.551780837715
1165.717421,3581.221002150528
1169.579121,3249.8914237587614
1173.435135,3613.933184475858
1177.285474,4177.575033345673
1181.130148,5305.455394275533
1184.969169,6359.8450727563595
1188.802547,6925.234186063596
1192.630292,6241.628784049485
1196.452416,4356.364967013771
1200.26893,2630.7253928545465
1204.079844,1300.729850901978
1207.88517,686.995878828112
1211.684917,343.6860079392163
1215.479098,-2.2813017658966146
1219.267722,284.6953746509273
1223.050801,219.63301235093786
1226.828346,128.82339754332781
1230.600366,248.80811258751208
1234.366874,262.5656248597153
1238.12788,549.2755038127096
1241.883395,451.63809779840835
1245.633429,239.27777814488388
1249.377994,365.2408084170998
1253.1171,378.7701275893469
1256.850759,155.55737495082133
1260.578981,-42.29950461392523
1264.301776,-14.864781654568624
1268.019157,9.968377201835636
1271.731133,46.10279257383773
1275.437715,166.27307833096964
1279.138915,318.4773994939324
1282.834743,469.452088727839
1286.52521,654.5872161339591
1290.210328,911.243685294778
1293.890106,1541.1783380009742
1297.564555,2612.14216216303
1301.233688,3312.0685643162465
1304.897514,3606.636883602274
1308.556044,3156.4600973191496
1312.209289,2052.663705442399
1315.857261,1359.410237711272
1319.499969,1078.377730623947
1323.137425,999.8677152690352
1326.769641,821.4389655989119
1330.396626,922.4239009028037
1334.018391,1258.7191765930202
1337.634948,1399.316483956673
1341.246307,1823.935574847919
1344.85248,2381.313320028151
1348.453477,2864.9422447184584
1352.049309,3439.972005372244
1355.639987,4033.1414437723433
1359.225522,4546.592747556091
1362.805925,4859.3911451404365
1366.381207,5419.8225034521565
1369.951379,6662.763286732638
1373.516452,8391.543259171993
1377.076436,11569.506469501872
1380.631343,16099.680243933943
1384.181184,20123.138296047324
1387.725969,21913.98747795539
1391.26571,19488.737891676446
1394.800417,13605.806870756387
1398.330102,8325.061644920823
1401.854776,5432.2243967161085
1405.374448,4246.695494219886
1408.889132,4770.396264266172
1412.398837,6775.924932925931
1415.903574,10939.727924377847
1419.403355,17228.84557373267
1422.89819,23549.51073040821
1426.388091,27283.927738306244
1429.873069,26970.094128248507
1433.353134,23567.394956799588
1436.828298,18332.3988029548
1440.298571,13303.120248589565
1443.763965,9571.93014495577
1447.224491,6706.467064186234
1450.68016,4764.5824844794815
1454.130983,3579.4215064991995
1457.576971,2925.3450104903104
1461.018135,2748.0900489137057
1464.454486,2810.80069907008
1467.886036,2908.596262515488
1471.312794,2906.4402540892897
1474.734774,2200.1547720190874
1478.151985,1350.8855251293614
1481.564439,1050.9055265771028
1484.972146,692.8725420584752
1488.375119,283.9632014070391
1491.773368,133.400561902699
1495.166904,30.332837590447955
1498.555739,-66.93847988012702
1501.939883,-23.959958439178436
1505.319349,9.412529423361264
1508.694146,40.41653630975287
1512.064286,100.13478955921971
1515.429781,193.60875761816564
1518.790642,210.04382464982848
1522.146879,290.35668231536704
1525.498505,376.6060460469404
1528.845529,394.93025305112116
1532.187965,685.7568758064558
1535.525822,873.1417538437829
1538.859112,1183.4246933058116
1542.187846,1521.8724571854757
1545.512036,1845.266376951829
1548.831693,2446.9642405318295
1552.146829,3105.039697939996
1555.457453,4065.8237809328275
1558.763579,5203.085765034092
1562.065216,6680.546189383976
1565.362377,8066.31729938802
1568.655073,9175.238600140287
1571.943315,10122.781123402932
1575.227114,10074.099944577492
1578.506482,9271.344944856648
1581.781431,8279.008964066938
1585.051971,7398.975490777024
1588.318114,6538.538752506126
1591.579872,5022.163602796971
1594.837255,3225.4616592043526
1598.090275,2025.1119514839038
1601.338945,1281.1883609638157
1604.583274,833.036006452355
1607.823275,470.10509361168306
1611.058959,393.72915784083716
1614.290338,450.12389624108755
1617.517422,122.67946044161499
1620.740224,227.90225453852372
1623.958755,270.3498860597206
1627.173027,17.171935630455664
1630.38305,37.37260149249448
1633.588838,26.43097156144006
1636.7904,5.945440286300482
1639.987749,30.988147129943002
1643.180896,47.62328989488208
1646.369853,-41.80457645350913
1649.554632,44.99851497872186
1652.735244,-30.528205189293573
1655.9117,-123.24275346688827
1659.084013,25.2747597409396
1662.252193,-74.65118667679988
1665.416254,-4.629862673021378
1668.576205,83.53463288930634
1671.732059,111.01393567716696
1674.883828,104.86654770355369
1678.031523,4.108620980399174
1681.175157,25.53716224775968
1684.314739,-36.45173270997877
1687.450284,5.993316784866494
1690.581801,39.52083905469469
1693.709304,-37.14961639036207
1696.832803,69.06346641661055
1699.952311,164.36743097713605
1703.067839,126.36304284807343
1706.179399,114.17044808577268
1709.287003,46.25105692607699
1712.390663,42.59206912027983
1715.49039,135.74063883845525
1718.586197,19.27340254658874
1721.678095,-61.79030523793032
1724.766096,2.4246333503395014
1727.850213,-9.156508288488432
1730.930456,-32.39036685274396
1734.006838,15.886912243836004
1737.079372,16.09187311747583
1740.148067,-30.221534139805062
1743.212938,12.31606031025009
1746.273996,37.97741430930534
1749.331252,64.74276699686557
1752.384718,76.1887438781348
1755.434408,22.96464652063611
1758.480332,45.49444732844506
1761.522503,89.60785443116123
1764.560933,38.922905582846816
1767.595634,-78.76261621739906
1770.626618,-47.594149549562616
1773.653896,5.691428314095617
1776.677482,-92.17419911550945
1779.697388,22.422685178177296
1782.713625,137.66298929217083
1785.726205,39.97354314723168
1788.735141,99.16180296569513
1791.740445,64.49722576237676
1794.742129,-9.75503175015125
1797.740206,83.5594066177707
1800.734687,27.08282845101585
1803.725585,20.75308448267084
1806.712912,30.118067736034632
1809.69668,-6.927026757884221
1812.676902,9.264175073006495
1815.65359,-28.560275096772244
1818.626756,13.16285632817964
1821.596413,-2.939082095030191
1824.562573,-23.68641337915659
1827.525247,20.575890872429305
1830.48445,4.304920298245722
1833.440192,2.722786694286885
1836.392487,-57.749651335887975
1839.341347,-0.5747999298803697
1842.286784,92.62212277146313
1845.22881,67.66816350760634
1848.167439,133.9879873106751
1851.102682,46.35383771761883
1854.034553,29.666187565793166
1856.963063,96.56088650025852
1859.888226,-12.432345568210511
1862.810053,80.08941546055185
1865.728557,99.74028062195308
1868.643751,76.27779813679247
1871.555648,61.914958097770324
1874.46426,-52.688245357494154
1877.369599,5.5464394474760255
1880.271679,-0.5204359030478045
1883.170512,-15.062285149477653
1886.06611,98.60048894766264
1888.958487,47.790037861190726
1891.847655,-59.51261189807709
1894.733626,43.24009099893969
1897.616414,19.612976910085795
1900.496032,-31.33671886681676
1903.372491,-19.592941298139245
1906.245805,14.899320354409207
1909.115987,117.35958772177032
1911.983049,15.46102997833123
1914.847004,99.17658162458052
1917.707866,130.8002300400067
1920.565646,-0.14944372033138364
1923.420359,13.3337994059702
1926.272016,-3.2695592678966
1929.120631,14.302768979378483
1931.966216,20.111340938818117
1934.808786,-21.05878226633461
1937.648351,-65.34584447451824
1940.484927,8.846672692958084
1943.318525,37.45451562534468
1946.149158,-8.345698231121244
1948.97684,9.10903031622246
1951.801584,2.8398342163511145
1954.623403,-1.7706875868111638
1957.44231,79.42976223895442
1960.258318,98.70922618524324
1963.071439,7.252700199796276
1965.881688,71.62760097936433
1968.689078,89.08200028208054
1971.493621,-11.29957310884025
