Raman shift cm-1,4ATP_1uM_rep2_acc1_processed_intensity
-93.47115107,17.247941454488036
-87.69374369,59.941569052863606
-81.9253076,-19.407138563732637
-76.16582701,-16.07918083276832
-70.41528615,53.12263075247236
-64.67366933,19.626728095855253
-58.94096086,-8.421598012322365
-53.21714512,10.176217604128153
-47.50220652,-4.77127010969247
-41.79612954,17.937400052326193
-36.09889866,64.90755823202794
-30.41049843,39.57263265062783
-24.73091343,-10.254387756253275
-19.0601283,-19.064470517547136
-13.39812769,-5.0185450650231385
-7.744896327,-7.077851021332514
-2.100418946,8.444041945912328
3.535319659,56.10613235258208
9.162334658,49.5554226696594
14.78064118,15.592702108806002
20.39025432,12.433262851194174
25.99118913,5.897831850258037
31.58346061,19.86465393757778
37.16708375,13.77229875142884
42.74207347,-41.84621726099101
48.30844468,-28.24468743193477
53.86621222,15.74771645137492
59.41539093,-3.986241416790145
64.95599558,-7.640327418454624
70.48804091,13.29825465022403
76.01154164,1.5095845121647544
81.52651243,-14.078840896695368
87.03296792,-5.589542840806937
92.5309227,20.10676764825686
98.02039134,16.23255993174604
103.5013884,-25.046802836669766
108.9739282,-9.803732322967734
114.4380255,40.43689990638551
119.8936944,15.419779714322937
125.3409495,-10.735022007805739
130.779805,28.426189987622678
136.2102753,30.263022275510394
141.6323747,-4.06564830375134
147.0461174,-16.175207152199217
152.4515176,-30.574539187200486
157.8485895,-10.206059685455156
163.2373472,18.84489842499324
168.6178049,-19.822463778569556
173.9899766,0.49161679961715055
179.3538764,113.67044345807217
184.7095182,126.38541467833997
190.0569161,50.310091951615
195.396084,31.403789912932094
200.7270358,15.115639134802745
206.0497854,-36.80519308239934
211.3643466,-16.22098219560612
216.6707333,30.549488535434705
221.9689593,-0.8949442096159181
227.2590382,-18.464793028394006
232.5409839,8.459045031109511
237.8148101,10.51515154846447
243.0805303,9.414812538258918
248.3381582,2.518647261613335
253.5877075,-2.3193572472766792
258.8291917,13.713045522143066
264.0626244,-10.878728211094488
269.288019,-31.26509185202395
274.5053891,-5.015477812715716
279.7147481,11.81135782731583
284.9161094,61.75668718944793
290.1094865,72.09031303243007
295.2948927,1.1600351652441603
300.4723414,65.0141394698264
305.6418459,204.07178894556165
310.8034194,322.52589044955533
315.9570752,560.2923112707035
321.1028267,711.3173758249425
326.2406869,671.6660143337583
331.370669,735.8232693509282
336.4927863,837.9524221462576
341.6070517,823.1043766940439
346.7134786,872.6714503424239
351.8120798,984.4292471974986
356.9028684,1022.0458454253388
361.9858576,1075.2924807573138
367.0610602,1190.353952816235
372.1284892,1405.102020224941
377.1881577,2217.7825595050117
382.2400784,4015.6496871404847
387.2842644,5960.884533104596
392.3207284,6643.719291119464
397.3494833,5727.683876599322
402.370542,4120.906588223388
407.3839172,2785.0508615800736
412.3896217,1875.8803216757499
417.3876683,1194.5573783651591
422.3780697,751.8680620025195
427.3608386,514.1239446172491
432.3359876,340.98807031121294
437.3035295,196.72081395479924
442.2634769,132.83941704088667
447.2158423,116.15576941772252
452.1606383,27.248283700708186
457.0978776,-40.50097919541119
462.0275727,23.166355826541093
466.9497361,59.75759480310407
471.8643802,149.88374669074892
476.7715176,536.5608273138571
481.6711608,931.8961313198955
486.5633221,983.3207433363763
491.448014,838.3480417185974
496.3252488,597.9482591431919
501.195039,265.7003218324428
506.0573969,137.88334175754528
510.9123349,222.68527990786703
515.7598651,197.73794450844264
520.6,168.9538039219557
525.4327518,214.21682728706952
530.2581327,177.5424734827015
535.076155,271.5849084962014
539.8868309,455.84608090686925
544.6901726,350.90117515060405
549.4861922,171.8978643385606
554.2749019,175.87776653346762
559.0563139,133.73411859915404
563.8304402,14.203888223915042
568.597293,-8.587452195583737
573.3568844,20.895152738546063
578.1092263,-5.522565738435006
582.8543308,-32.64246731251296
587.5922101,-5.936622107406288
592.322876,-7.66954627330888
597.0463405,-30.883412768837623
601.7626157,-0.48683176005024453
606.4717135,23.20012255494104
611.1736458,1.360536864593982
615.8684246,26.27333051876098
620.5560617,115.26925935395562
625.2365691,148.76603098302596
629.9099585,138.39439724653593
634.5762419,189.40227851584535
639.2354312,233.54059173202484
643.887538,201.19861606046072
648.5325743,144.22007526420842
653.1705518,84.89449798719436
657.8014823,13.915581380792219
662.4253775,-18.779916400660486
667.0422493,57.19809530240113
671.6521092,135.28257611548145
676.2549691,85.0566003902927
680.8508407,17.596524695739106
685.4397355,-5.233035618419798
690.0216654,-6.98756251839103
694.5966419,133.46478777873884
699.1646767,352.47219783157357
703.7257814,441.3131690084366
708.2799676,530.1734127171119
712.827247,689.8038875047346
717.367631,614.3208740127751
721.9011314,328.7134682439422
726.4277595,162.49385305763818
730.9475271,76.88868590297841
735.4604456,-8.960415542903537
739.9665264,-5.049288353633605
744.4657813,12.363143634944521
748.9582215,-1.028574465191122
753.4438587,0.8813564532794067
757.9227042,-6.239454074355246
762.3947696,20.551671602407374
766.8600662,79.05429870155828
771.3186056,79.17812517772424
775.770399,93.3873361089754
780.215458,180.5131572566533
784.6537939,203.57630378662282
789.0854181,172.90832832379516
793.510342,262.3851636703744
797.9285769,431.6946570195664
802.3401342,532.0876457220635
806.7450253,558.3020414443856
811.1432614,506.42669397287614
815.5348538,359.34595181401323
819.9198139,291.524957694432
824.2981531,371.7116362427664
828.6698824,334.5289430375037
833.0350133,155.82993745041506
837.393557,81.41692272500043
841.7455248,65.5386271246845
846.0909278,21.55333003892588
850.4297774,17.550533305298817
854.7620848,-18.296334530448753
859.0878611,-73.42184524194556
863.4071176,13.994346137782706
867.7198655,118.92415462399377
872.026116,52.20357252096329
876.3258802,-22.036177278608903
880.6191693,17.253545301692128
884.9059946,41.91950365401368
889.186367,26.049790351464424
893.4602979,-16.476777922759084
897.7277982,-63.675121027892146
901.9888793,14.370270857195578
906.2435521,99.16716047269489
910.4918277,31.41679840379868
914.7337174,17.10053287955111
918.9692321,108.02117133884349
923.1983831,130.053370796109
927.4211813,102.7311305134408
931.6376378,54.45306771017965
935.8477637,3.0969747657118205
940.0515701,12.437454202260255
944.249068,8.031042930429749
948.4402684,-25.567204518870312
952.6251825,-12.87234112799274
956.8038212,20.41928967627166
960.9761955,60.725929096682535
965.1423166,68.44041858822811
969.3021953,11.31760719277861
973.4558427,-7.738148976744355
977.6032699,20.20859032637736
981.7444877,24.93563830431708
985.8795072,11.57256739428351
990.0083394,26.4125508514079
994.1309953,131.6188488313577
998.2474857,320.58224112864775
1002.357822,579.8308641238884
1006.462014,725.1431522023172
1010.560075,466.8483624435597
1014.652013,91.68990226516007
1018.737841,-20.254525368521627
1022.81757,-46.06898937490388
1026.891209,-11.860248168796147
1030.958771,149.54662487758276
1035.020266,201.24334171682193
1039.075705,211.3627771368922
1043.1251,377.331976662951
1047.16846,553.6225620070215
1051.205797,757.7611835132695
1055.237121,1221.1654072072295
1059.262444,2142.7129697221662
1063.281777,3806.9748845991858
1067.295131,6067.2416837057835
1071.302515,7991.819803180148
1075.303942,8528.708763326904
1079.299422,7299.021367033038
1083.288966,4984.387260873099
1087.272585,2746.7431511149894
1091.250289,1303.9448491547278
1095.222091,743.4686220748571
1099.187999,632.0388832798521
1103.148026,543.8216785052912
1107.102183,525.89540194528
1111.050479,641.3923161413505
1114.992927,828.5298410769641
1118.929536,1205.0722056340041
1122.860318,1847.0776873885484
1126.785283,2882.5414453119633
1130.704443,4651.580118340558
1134.617808,6770.074610577731
1138.52539,7845.801518945878
1142.427198,7018.8096974051305
1146.323244,5008.787443525082
1150.213538,3161.763691023067
1154.098093,2063.427655658939
1157.976917,1549.251119286733
1161.850023,1353.3720501938117
1165.717421,1281.2516469967882
1169.579121,1300.4305774094696
1173.435135,1385.995013862685
1177.285474,1434.0198160601694
1181.130148,1509.4094452719607
1184.969169,1576.0303662486594
1188.802547,1428.6066283797254
1192.630292,1095.1753708029435
1196.452416,707.2335993650397
1200.26893,346.07613528315966
1204.079844,135.67277220574303
1207.88517,80.15768480625695
1211.684917,31.229445104136346
1215.479098,-20.85874116387248
1219.267722,6.305338962346042
1223.050801,20.55298787625
1226.828346,-6.905848621552451
1230.600366,49.1528684530352
1234.366874,121.5258248195836
1238.12788,137.88160164583948
1241.883395,179.32611174066278
1245.633429,193.6323124264439
1249.377994,157.27246430716576
1253.1171,154.41608201254857
1256.850759,127.03026404903217
1260.578981,62.84954258539043
1264.301776,43.7638222660986
1268.019157,6.8640472243933806
1271.731133,-57.66670989945304
1275.437715,-35.56351991769971
1279.138915,20.189952254830985
1282.834743,16.197466968633144
1286.52521,17.136510580099664
1290.210328,72.20672588945247
1293.890106,181.0964743416608
1297.564555,337.6619379097615
1301.233688,469.23625310508953
1304.897514,531.3684525934019
1308.556044,483.3629205771724
1312.209289,254.12495501328124
1315.857261,23.16800474589028
1319.499969,9.334227413104799
1323.137425,75.05832271633635
1326.769641,57.39364759469146
1330.396626,-5.790039030553899
1334.018391,-31.516246009919143
1337.634948,2.664396651424312
1341.246307,49.36714275956474
1344.85248,86.69846208453333
1348.453477,118.53479289789908
1352.049309,187.71020850820153
1355.639987,278.0215953788703
1359.225522,288.7305397184909
1362.805925,329.21848432716706
1366.381207,478.24340591493564
1369.951379,555.8852322352103
1373.516452,642.7214426427084
1377.076436,1028.8422341639493
1380.631343,1713.8227531372297
1384.181184,2515.122176133599
1387.725969,3074.232794776818
1391.26571,2879.3378543194895
1394.800417,1976.8203046034544
1398.330102,1025.5658570259798
1401.854776,423.124211399966
1405.374448,123.18453953905788
1408.889132,24.532263671670307
1412.398837,174.9649690064948
1415.903574,758.277122288489
1419.403355,1749.7589703243286
1422.89819,2850.463493632138
1426.388091,3752.5286652355944
1429.873069,4188.616329841351
1433.353134,4055.1111901314216
1436.828298,3458.8230498718476
1440.298571,2585.3957855603535
1443.763965,1725.1188338031614
1447.224491,1126.2450285775076
1450.68016,738.4253989864912
1454.130983,431.7429663483297
1457.576971,249.17505879446827
1461.018135,217.52518029569666
1464.454486,268.7636175450227
1467.886036,336.72842332542393
1471.312794,349.42660447445894
1474.734774,268.2579056697525
1478.151985,158.24209895077175
1481.564439,116.24756685190718
1484.972146,96.65073963541577
1488.375119,63.98420103146991
1491.773368,107.52567505579633
1495.166904,105.37287661645047
1498.555739,-19.36305395454296
1501.939883,-33.918674538591354
1505.319349,19.344999292538915
1508.694146,-9.897526115683906
1512.064286,24.967120416011696
1515.429781,91.50585878045939
1518.790642,72.05154778362217
1522.146879,67.47010850447779
1525.498505,101.79739556719923
1528.845529,155.13731803561035
1532.187965,240.78993593752827
1535.525822,325.20921526349264
1538.859112,421.04001192373613
1542.187846,525.9520898121899
1545.512036,644.4263311195025
1548.831693,801.1949138293119
1552.146829,899.7730980913959
1555.457453,968.9754282965223
1558.763579,1184.8375661068667
1562.065216,1469.2669961136571
1565.362377,1729.0119727075262
1568.655073,2050.966193629857
1571.943315,2298.5994782114503
1575.227114,2355.6002670303155
1578.506482,2342.7823389382274
1581.781431,2238.339795097616
1585.051971,2120.8051549261977
1588.318114,2096.805510882082
1591.579872,1889.6263811458439
1594.837255,1393.7577901566995
1598.090275,879.6231385498635
1601.338945,533.2825531404113
1604.583274,274.5968792426052
1607.823275,29.694305819699252
1611.058959,23.04254739990151
1614.290338,146.8859754334234
1617.517422,14.702165116785011
1620.740224,-91.38308992082463
1623.958755,66.81496033614303
1627.173027,110.26018911171752
1630.38305,-1.4480532559317112
1633.588838,-8.828026989209405
1636.7904,19.59418983605417
1639.987749,5.951374230468019
1643.180896,15.185614973923094
1646.369853,22.466620172692572
1649.554632,27.88000213338333
1652.735244,50.86775450398095
1655.9117,37.93486538764462
1659.084013,5.756204255891859
1662.252193,-3.897564326803142
1665.416254,-22.059710628610468
1668.576205,-35.868624774744376
1671.732059,-15.749473185013883
1674.883828,-10.357549442144709
1678.031523,2.5889198170433687
1681.175157,56.43521144986324
1684.314739,50.8163139233009
1687.450284,14.802834119755754
1690.581801,61.15234309155615
1693.709304,99.08884836740243
1696.832803,49.7502045260003
1699.952311,25.280678182502854
1703.067839,86.97448468458059
1706.179399,91.7332843090341
1709.287003,-2.640586848912479
1712.390663,4.059873778700268
1715.49039,80.81903268361934
1718.586197,24.23918450462848
1721.678095,-40.57890948576775
1724.766096,-9.72483757215921
1727.850213,-11.399614848891243
1730.930456,-10.039670898495679
1734.006838,23.28308614732424
1737.079372,-3.866960777258867
1740.148067,-2.6417316927224306
1743.212938,74.33946665553972
1746.273996,81.31066566186392
1749.331252,28.849850717974835
1752.384718,8.129279642935375
1755.434408,-1.2199737880319326
1758.480332,52.59489742600155
1761.522503,133.49619560685426
1764.560933,68.57226935347477
1767.595634,-28.315755305515246
1770.626618,16.52675917683563
1773.653896,67.17009228348107
1776.677482,17.357513446352165
1779.697388,-24.08792037166146
1782.713625,4.291601717947845
1785.726205,15.746977571253922
1788.735141,-16.985879206099597
1791.740445,-31.537566459557024
1794.742129,-6.385367479655695
1797.740206,46.61907448745342
1800.734687,49.48736632518478
1803.725585,-1.1910342292940967
1806.712912,23.776003047980545
1809.69668,70.5757155354602
1812.676902,19.703345677832424
1815.65359,-16.466466617486425
1818.626756,28.924750966515404
1821.596413,27.96613275465419
1824.562573,-19.83738707102475
1827.525247,-8.392837735593783
1830.48445,5.990572471842196
1833.440192,-11.984810974452243
1836.392487,5.871986275857482
1839.341347,3.372300439863955
1842.286784,-20.7477691301603
1845.22881,49.71975658615144
1848.167439,97.71094525543022
1851.102682,5.671260338865885
1854.034553,-15.164285304844057
1856.963063,71.2563861509082
1859.888226,47.5975227357442
1862.810053,12.785010917648798
1865.728557,79.83261910637201
1868.643751,56.405926098143894
1871.555648,-33.367718276855484
1874.46426,6.753326692970187
1877.369599,87.55551261107715
1880.271679,58.94865240771799
1883.170512,5.819603170955906
1886.06611,11.975071483572194
1888.958487,17.23976985983144
1891.847655,7.456224602386543
1894.733626,-2.601329243201288
1897.616414,-18.721520807542824
1900.496032,4.184363303847315
1903.372491,39.938619529361006
1906.245805,68.65975736368614
1909.115987,128.0029781577706
1911.983049,94.70371187547083
1914.847004,-3.2289730970245927
1917.707866,52.730924055238305
1920.565646,129.24305548551388
1923.420359,63.83623605655987
1926.272016,1.5847958287603667
1929.120631,5.052042911871993
1931.966216,18.355983441914045
1934.808786,-6.177755867082768
1937.648351,-47.503596724429954
1940.484927,-8.270740931289602
1943.318525,41.80940515034905
1946.149158,25.461354544506705
1948.97684,49.08126069307766
1951.801584,74.26394874236789
1954.623403,21.246727014559028
1957.44231,15.812485326807336
1960.258318,41.75787697172724
1963.071439,-12.088976415523415
1965.881688,-13.01696436744205
1968.689078,50.70483342424958
1971.493621,-0.481174140532854
