Raman shift cm-1,4ATP_100nM_rep3_acc3_processed_intensity
-93.47115107,9.887131910434988
-87.69374369,23.007917261230126
-81.9253076,-24.995180217885093
-76.16582701,36.11271178861098
-70.41528615,100.56064640438659
-64.67366933,-50.02822605364985
-58.94096086,-36.42503725401741
-53.21714512,22.17765629606241
-47.50220652,12.582427704084665
-41.79612954,63.72242826652618
-36.09889866,-13.026493637798097
-30.41049843,91.05589891753701
-24.73091343,62.83608603293973
-19.0601283,-10.457239294979985
-13.39812769,85.02588233806176
-7.744896327,-23.314419510579285
-2.100418946,40.342087831059246
3.535319659,46.78296817226328
9.162334658,-39.23985056192174
14.78064118,38.37376926842961
20.39025432,-25.45018595634798
25.99118913,0.0472902958533723
31.58346061,73.11051884935819
37.16708375,38.651865394415324
42.74207347,17.276444399281388
48.30844468,-29.11330769444163
53.86621222,11.840861714379457
59.41539093,-24.436562443639787
64.95599558,-80.22248432003602
70.48804091,35.55993918834827
76.01154164,41.11328650951373
81.52651243,-53.64270416348404
87.03296792,-5.110123042304622
92.5309227,80.85508273972619
98.02039134,28.31047817389799
103.5013884,-13.916544645076442
108.9739282,12.825776159383167
114.4380255,5.4849256061679625
119.8936944,29.235911463237812
125.3409495,55.96035846008408
130.779805,-22.633689376699863
136.2102753,-60.53789680737975
141.6323747,72.86813539232264
147.0461174,60.012991975041814
152.4515176,-14.220207169452465
157.8485895,48.27053759619082
163.2373472,7.997010765799246
168.6178049,43.04090080251899
173.9899766,185.709585590325
179.3538764,237.72274856201
184.7095182,287.4661952224211
190.0569161,294.0698478165525
195.396084,264.09420130862895
200.7270358,317.05256452808885
206.0497854,337.2352300102241
211.3643466,397.40396569680433
216.6707333,469.24846769475573
221.9689593,525.7448977414989
227.2590382,551.2499105717775
232.5409839,578.0354285736635
237.8148101,726.8944685837637
243.0805303,741.9251074606564
248.3381582,775.2200303815978
253.5877075,897.3008892189324
258.8291917,1026.3783130877516
264.0626244,1044.6721027572867
269.288019,1010.7944681119825
274.5053891,1133.6782493641635
279.7147481,1143.7730439146414
284.9161094,1239.0120162542166
290.1094865,1332.4537203578038
295.2948927,1053.2075610832887
300.4723414,729.348976749392
305.6418459,422.4328812372297
310.8034194,93.02751023006351
315.9570752,-25.576944610727438
321.1028267,0.05634893489158088
326.2406869,-51.954133928675205
331.370669,39.989250735240546
336.4927863,103.17618066049087
341.6070517,9.923705071263914
346.7134786,156.52963325404977
351.8120798,211.73744604054505
356.9028684,229.2882274228354
361.9858576,225.85046373124592
367.0610602,236.84100404015646
372.1284892,436.5805731562166
377.1881577,644.9024795095964
382.2400784,1340.555283147005
387.2842644,2342.607307882581
392.3207284,2907.63337621261
397.3494833,2702.2637186883
402.370542,2029.9116286109977
407.3839172,1360.8219149567317
412.3896217,760.7220085003108
417.3876683,443.8677104019823
422.3780697,284.001257086488
427.3608386,201.0568883180313
432.3359876,130.26841961547575
437.3035295,-24.88899908079788
442.2634769,-0.13217161471393268
447.2158423,21.51849446102367
452.1606383,10.909197089010966
457.0978776,0.560943400087865
462.0275727,-19.920038430212514
466.9497361,3.9072813707667127
471.8643802,2.9546127068045793
476.7715176,55.85589665480976
481.6711608,127.09121742399486
486.5633221,88.85970540826544
491.448014,39.89623654500854
496.3252488,95.07197310296964
501.195039,10.85390927207752
506.0573969,-30.52574698888128
510.9123349,18.35334574000229
515.7598651,-58.33211535035183
520.6,-32.10539825337593
525.4327518,36.82881405051744
530.2581327,33.6061469980375
535.076155,95.23347439330757
539.8868309,100.85146709804647
544.6901726,159.34469952969135
549.4861922,188.8711228266216
554.2749019,96.9881014976065
559.0563139,96.972098467616
563.8304402,-2.0536723393090286
568.597293,101.99121925076246
573.3568844,111.63159474297849
578.1092263,-26.073044557818974
582.8543308,30.07160408741398
587.5922101,39.95006538965732
592.322876,16.731816830360664
597.0463405,-61.19232063386336
601.7626157,99.59577164171748
606.4717135,99.66700209947227
611.1736458,83.34912723255152
615.8684246,180.4878744429597
620.5560617,97.35724105025062
625.2365691,73.57859370312833
629.9099585,-49.57587983892088
634.5762419,12.208630037246335
639.2354312,119.65710444135054
643.887538,127.03561716167172
648.5325743,124.18410365490436
653.1705518,110.04286974786207
657.8014823,34.51039229115721
662.4253775,-74.79594514274169
667.0422493,9.184248948475876
671.6521092,25.928704168790908
676.2549691,45.10114024680016
680.8508407,19.49109178209217
685.4397355,20.476141155818198
690.0216654,101.61289410799881
694.5966419,-50.900318528346276
699.1646767,37.01039340813434
703.7257814,168.55927002198018
708.2799676,4.299711891967885
712.827247,84.8075140195515
717.367631,132.08759655648782
721.9011314,-35.89381667036017
726.4277595,-6.039216409925878
730.9475271,44.53540522088689
735.4604456,-17.21355796266818
739.9665264,72.96021287757395
744.4657813,31.891367689592688
748.9582215,-58.44984068983933
753.4438587,-2.130663588704948
757.9227042,-30.39561348633695
762.3947696,-26.315667504555304
766.8600662,98.33598836861805
771.3186056,123.3240969371494
775.770399,-12.835113070563288
780.215458,41.79897661523
784.6537939,13.596956031223101
789.0854181,14.463930197402398
793.510342,113.55132556807828
797.9285769,178.61961806183356
802.3401342,286.921540037367
806.7450253,248.02129921663564
811.1432614,87.63223607208356
815.5348538,-36.179336720472485
819.9198139,36.20596270950432
824.2981531,45.0951388126887
828.6698824,37.971202346682986
833.0350133,-29.068493090864852
837.393557,3.5868667116686836
841.7455248,92.54467198007413
846.0909278,33.49401709120515
850.4297774,-17.387442682553353
854.7620848,-45.95563095141347
859.0878611,-35.5936089983999
863.4071176,-35.37497275147618
867.7198655,4.170219021765625
872.026116,-13.211657630967608
876.3258802,8.123075300943672
880.6191693,7.238661021973123
884.9059946,45.43783217656191
889.186367,15.04610690242557
893.4602979,-49.8277331624019
897.7277982,38.83469333448923
901.9888793,90.69619100432874
906.2435521,102.01043108226051
910.4918277,-7.40507764670167
914.7337174,-1.9767473176088473
918.9692321,74.51138484286157
923.1983831,84.49024488661327
927.4211813,162.49381420015408
931.6376378,81.3280377264929
935.8477637,-16.069986809259348
940.0515701,172.28463965359367
944.249068,117.02704561653616
948.4402684,-5.140043608269806
952.6251825,147.05931086712772
956.8038212,100.77202312165619
960.9761955,100.10489623728265
965.1423166,138.845287922841
969.3021953,145.47920282146924
973.4558427,201.75427347820695
977.6032699,101.89526344579355
981.7444877,31.066752949014926
985.8795072,98.55912784400724
990.0083394,44.46170122053306
994.1309953,-8.594418387030643
998.2474857,95.40966940523928
1002.357822,77.07894791972484
1006.462014,80.43949377162694
1010.560075,44.45121390915147
1014.652013,-6.316698686238418
1018.737841,-60.80168891367306
1022.81757,-83.3206315225759
1026.891209,20.670797213922214
1030.958771,38.8099094540594
1035.020266,40.975503538936664
1039.075705,-55.14126438210668
1043.1251,-55.87762501481991
1047.16846,34.08030799718092
1051.205797,7.314388313344789
1055.237121,30.658986912218943
1059.262444,168.1968462521151
1063.281777,319.2883961350387
1067.295131,695.8517692292968
1071.302515,1194.2299238812543
1075.303942,1655.5947951860005
1079.299422,1836.42781925193
1083.288966,1406.0524680577787
1087.272585,725.3546339505282
1091.250289,145.07392460741656
1095.222091,11.025601748368322
1099.187999,19.74739277141983
1103.148026,36.44028527625777
1107.102183,9.43986096807093
1111.050479,-64.28855207094003
1114.992927,-41.589569906649544
1118.929536,-44.72398030296616
1122.860318,13.481746239360003
1126.785283,34.60597392055591
1130.704443,215.56580901382983
1134.617808,441.901952549126
1138.52539,516.7388390495421
1142.427198,446.3931334253608
1146.323244,237.80390298061118
1150.213538,95.34432597267036
1154.098093,5.359640995518305
1157.976917,-4.956270111563583
1161.850023,42.153967876532775
1165.717421,-18.82721254764222
1169.579121,21.743747246856373
1173.435135,132.7261056536586
1177.285474,170.44320452097165
1181.130148,268.9748083041793
1184.969169,281.8530779382213
1188.802547,178.8844670106149
1192.630292,40.00854478109596
1196.452416,66.69879077871488
1200.26893,41.12796070817091
1204.079844,-75.64706305301294
1207.88517,43.90053196335703
1211.684917,-22.117385259307103
1215.479098,-87.6060618066695
1219.267722,-22.345260964984433
1223.050801,35.95442962176563
1226.828346,20.03651891065351
1230.600366,-47.496121775011595
1234.366874,94.26553503180095
1238.12788,113.5737142285022
1241.883395,172.0377947921797
1245.633429,126.3845288901305
1249.377994,44.8948847934178
1253.1171,192.7983629090723
1256.850759,170.868499803434
1260.578981,93.41940176421772
1264.301776,191.39550701405216
1268.019157,142.0771952585497
1271.731133,31.558583785435104
1275.437715,117.86003688819183
1279.138915,3.9902107669330746
1282.834743,17.494112482687683
1286.52521,63.2185442383138
1290.210328,-23.140051012574013
1293.890106,-12.629815227304825
1297.564555,25.79735678319536
1301.233688,104.59988209024542
1304.897514,137.77625072977375
1308.556044,180.20453022384532
1312.209289,64.81764924302342
1315.857261,-70.45610782887994
1319.499969,33.38908971744375
1323.137425,151.77634563956167
1326.769641,100.57667423020334
1330.396626,-2.4203445317268795
1334.018391,59.59172924681913
1337.634948,99.67861347567413
1341.246307,-35.21340028314911
1344.85248,3.8978592016297764
1348.453477,30.980917543108752
1352.049309,-15.793116815145115
1355.639987,-6.990250327298535
1359.225522,-38.266024206778084
1362.805925,12.503573591731232
1366.381207,28.430399388513763
1369.951379,6.219291572224947
1373.516452,12.322513733845057
1377.076436,15.691211937757693
1380.631343,22.40494809618496
1384.181184,102.68626943553186
1387.725969,185.4180906519586
1391.26571,211.89839132410322
1394.800417,102.5492576565426
1398.330102,36.23768517891846
1401.854776,23.848690325158067
1405.374448,-26.216633643096955
1408.889132,-5.932952138871947
1412.398837,-86.51376294997158
1415.903574,-40.70193978385892
1419.403355,40.88043197648578
1422.89819,168.59362539247647
1426.388091,283.70355354170573
1429.873069,332.5529148944787
1433.353134,330.4361060457718
1436.828298,172.74749683829637
1440.298571,186.4151021783703
1443.763965,44.5222279345001
1447.224491,1.0043835512169785
1450.68016,59.8676427135646
1454.130983,-52.82892030450787
1457.576971,45.3609303237571
1461.018135,42.39363667062203
1464.454486,-12.630714588771976
1467.886036,-26.098184819000526
1471.312794,-34.39250578244275
1474.734774,57.031501274369894
1478.151985,24.57831138053848
1481.564439,-36.05637511298326
1484.972146,-2.135910198563389
1488.375119,31.125726586903617
1491.773368,8.618749914443129
1495.166904,1.581370666253906
1498.555739,-3.1099800159614395
1501.939883,94.39925874233698
1505.319349,100.11038428651737
1508.694146,5.612658241738876
1512.064286,106.34856968093733
1515.429781,79.34147653573059
1518.790642,42.29197291154112
1522.146879,70.29984044131552
1525.498505,-10.056440947749419
1528.845529,-77.29642296869024
1532.187965,88.69284696086555
1535.525822,95.94750863759202
1538.859112,14.750289146915794
1542.187846,92.79020928155238
1545.512036,-15.186387122263309
1548.831693,69.84257212472905
1552.146829,38.0400652088956
1555.457453,9.416105274062307
1558.763579,206.81694238635453
1562.065216,244.0550992081777
1565.362377,304.951800043544
1568.655073,430.98177656213625
1571.943315,544.2766448368376
1575.227114,568.23225773092
1578.506482,641.6442369614776
1581.781431,890.4361477807273
1585.051971,891.9483225574578
1588.318114,908.9084995260165
1591.579872,984.1633271763685
1594.837255,652.1089054937879
1598.090275,478.1209755487106
1601.338945,229.49089561796453
1604.583274,162.44909334652795
1607.823275,26.89503823121019
1611.058959,-92.3190601289813
1614.290338,234.13482239466484
1617.517422,42.391194404088324
1620.740224,-28.335361127260036
1623.958755,120.10297084261924
1627.173027,101.51347320439184
1630.38305,-8.980274712469836
1633.588838,31.775300515189556
1636.7904,85.00607917026173
1639.987749,3.411012697852726
1643.180896,58.222706816976554
1646.369853,21.167767078742486
1649.554632,16.777431104722567
1652.735244,22.513121912988694
1655.9117,10.147639395703393
1659.084013,31.776087979344226
1662.252193,-2.024681184968891
1665.416254,-47.95952214087503
1668.576205,-26.7786643549997
1671.732059,-6.097207170524122
1674.883828,-18.417190619144687
1678.031523,20.118365713398436
1681.175157,-16.68085336620374
1684.314739,-86.82607178248975
1687.450284,40.3093159645376
1690.581801,46.65705332375826
1693.709304,-25.015670020181176
1696.832803,13.019337958688544
1699.952311,-8.195804272914614
1703.067839,30.29777061447198
1706.179399,69.17262126426778
1709.287003,31.158502601206774
1712.390663,32.73754325801981
1715.49039,18.603860872644628
1718.586197,-31.100966154781204
1721.678095,9.559678934208982
1724.766096,-8.913113504827912
1727.850213,-23.886461773931863
1730.930456,-74.54940986726857
1734.006838,-65.84957383758143
1737.079372,24.96256558088432
1740.148067,-3.047558585035203
1743.212938,22.83340976833894
1746.273996,40.35822277644904
1749.331252,37.05344744161404
1752.384718,57.943147279515365
1755.434408,16.0966646187629
1758.480332,32.893154419884205
1761.522503,169.33710704901546
1764.560933,21.189138591479576
1767.595634,-100.57713553195047
1770.626618,-0.5729454197397672
1773.653896,18.281292681141956
1776.677482,3.9625439351380116
1779.697388,11.314870620577523
1782.713625,-15.251360029227783
1785.726205,-38.32196501408105
1788.735141,45.8484683309792
1791.740445,-22.006161754700038
1794.742129,-34.742791926890135
1797.740206,1.1006780505170326
1800.734687,37.062206800806706
1803.725585,62.11187782485225
1806.712912,11.500722899161545
1809.69668,30.869806181590356
1812.676902,-17.849716735897083
1815.65359,-2.97736760613439
1818.626756,-5.516668653745789
1821.596413,-4.85966499429362
1824.562573,26.387148199087846
1827.525247,13.012917866915407
1830.48445,11.386358164318619
1833.440192,-55.174470723413066
1836.392487,19.15002880414488
1839.341347,82.28787224687623
1842.286784,0.729853755711801
1845.22881,-5.220281931644738
1848.167439,-13.038859970692243
1851.102682,-1.4881381036435357
1854.034553,78.9534415158557
1856.963063,80.60978780455483
1859.888226,83.76018153093425
1862.810053,195.70283470164327
1865.728557,100.69854483874911
1868.643751,-2.2964550571909115
1871.555648,-1.6396442389580983
1874.46426,-3.7550267484129236
1877.369599,81.133628342577
1880.271679,59.45601964997097
1883.170512,73.15101827355446
1886.06611,38.03329435544673
1888.958487,33.89919898368678
1891.847655,-22.22627609033114
1894.733626,-44.84721407433124
1897.616414,105.71635535539103
1900.496032,-17.048534085589598
1903.372491,-22.67426674491478
1906.245805,54.54614930450235
1909.115987,27.715045307178745
1911.983049,24.12793848095681
1914.847004,-6.724147764188302
1917.707866,20.62177814437918
1920.565646,-9.812562411542528
1923.420359,12.181513949838092
1926.272016,46.74913523358132
1929.120631,-75.84129956143481
1931.966216,-18.609902113462546
1934.808786,92.874782715504
1937.648351,25.72102811484183
1940.484927,-2.3128729393191714
1943.318525,-7.796476072599003
1946.149158,82.07082058729523
1948.97684,75.15727767761395
1951.801584,4.689288696873275
1954.623403,30.026328868819423
1957.44231,72.43430779664821
1960.258318,45.02969694701392
1963.071439,-69.30490408982222
1965.881688,-16.923985505292062
1968.689078,19.17342956333651
1971.493621,97.30587625735026
