Raman shift cm-1,4ATP_100fM_rep1_acc4_processed_intensity
-93.47115107,-8.22588322515864
-87.69374369,4.90829439858544
-81.9253076,0.21673203633918092
-76.16582701,39.95265415177744
-70.41528615,73.82022630746428
-64.67366933,7.965538757991737
-58.94096086,-53.44663852890244
-53.21714512,-21.158193998803085
-47.50220652,12.135210188123665
-41.79612954,20.31831323871313
-36.09889866,36.11686524882964
-30.41049843,21.923954640107127
-24.73091343,21.77097540223167
-19.0601283,88.3757438703841
-13.39812769,127.39639380270773
-7.744896327,114.54119291264897
-2.100418946,119.34375794166567
3.535319659,112.71836983916921
9.162334658,98.5118717220638
14.78064118,149.33090079410306
20.39025432,231.7540934794431
25.99118913,290.0348348322111
31.58346061,331.0126602139153
37.16708375,352.02683437937594
42.74207347,361.36273093646014
48.30844468,376.3908893253749
53.86621222,389.8581538502274
59.41539093,426.6937680413944
64.95599558,509.14015325622654
70.48804091,576.7960480840416
76.01154164,599.456649988794
81.52651243,644.5308958942553
87.03296792,730.3141108418074
92.5309227,795.9912585241452
98.02039134,831.1765307368394
103.5013884,888.6430678564041
108.9739282,986.241641679834
114.4380255,1076.2202446737865
119.8936944,1122.7028877447751
125.3409495,1149.955463638609
130.779805,1202.7341821828593
136.2102753,1296.9608648199678
141.6323747,1384.9290257883818
147.0461174,1418.8682121321815
152.4515176,1452.1084888256473
157.8485895,1539.2387469160617
163.2373472,1636.1467182494478
168.6178049,1723.5438364498368
173.9899766,1831.1281002810188
179.3538764,1931.933212981376
184.7095182,2001.928627786679
190.0569161,2051.359735797574
195.396084,2065.78564514351
200.7270358,2077.5778359956685
206.0497854,2137.1055541382
211.3643466,2208.6018801958608
216.6707333,2271.930642144112
221.9689593,2347.422139239536
227.2590382,2408.442232189601
232.5409839,2456.291851054282
237.8148101,2527.5834372911827
243.0805303,2594.084357726847
248.3381582,2646.4876409826243
253.5877075,2736.601884647788
258.8291917,2831.1151547192467
264.0626244,2857.6657754936664
269.288019,2861.0240327392125
274.5053891,2901.564666043351
279.7147481,2940.1947465438766
284.9161094,2932.1679104623504
290.1094865,2858.0328289900285
295.2948927,2614.553238311034
300.4723414,2036.5958391601168
305.6418459,1191.40690420175
310.8034194,500.3935136852591
315.9570752,248.01293050691595
321.1028267,250.92615213765583
326.2406869,251.84821930522105
331.370669,183.15021320763069
336.4927863,68.09828973876292
341.6070517,-10.482219796441154
346.7134786,-14.84806834702951
351.8120798,-3.1899376472586596
356.9028684,11.289619675777338
361.9858576,59.20789777618768
367.0610602,107.86280724263335
372.1284892,117.89935047177539
377.1881577,148.67189573463563
382.2400784,284.99005356722813
387.2842644,497.00690441721883
392.3207284,656.6335668993511
397.3494833,660.984916221962
402.370542,518.781946633682
407.3839172,338.93076073022655
412.3896217,209.5573909128448
417.3876683,121.56591121908096
422.3780697,48.714097111186575
427.3608386,2.0956094339292672
432.3359876,-5.094870946667052
437.3035295,21.110704027850087
442.2634769,49.432327118221345
447.2158423,62.979015053080936
452.1606383,82.26834922777752
457.0978776,105.84570764019882
462.0275727,106.10411741463246
466.9497361,85.76253505404213
471.8643802,81.91426610530479
476.7715176,114.63827466683597
481.6711608,147.71556007487317
486.5633221,130.3365103066024
491.448014,70.68996224270104
496.3252488,14.38219939792626
501.195039,-16.87987845645566
506.0573969,-17.52854205697671
510.9123349,-1.3987196431369906
515.7598651,10.65321692942161
520.6,37.39381900608235
525.4327518,82.59693351036017
530.2581327,120.57362370162204
535.076155,161.86803543134857
539.8868309,192.94645789481717
544.6901726,156.2544111270925
549.4861922,87.87072808990523
554.2749019,86.02888507286474
559.0563139,129.97132501903837
563.8304402,144.15098644182225
568.597293,136.2600629966812
573.3568844,107.1447963135166
578.1092263,34.76996759307854
582.8543308,-17.43907278172246
587.5922101,17.243767362674323
592.322876,80.61731871325418
597.0463405,74.06425944550924
601.7626157,18.342106019826304
606.4717135,16.9465636482546
611.1736458,84.21431741139074
615.8684246,133.3088371891319
620.5560617,97.48597912163538
625.2365691,-2.806042808809366
629.9099585,-57.656452911376206
634.5762419,16.531325801968173
639.2354312,123.51032485049326
643.887538,124.01007273466386
648.5325743,80.92428094753328
653.1705518,94.37723988761883
657.8014823,93.8399238938684
662.4253775,54.742738185743924
667.0422493,66.80991886297394
671.6521092,90.84318133223492
676.2549691,45.264395985810616
680.8508407,2.334570422497256
685.4397355,7.727311155287653
690.0216654,-0.5756060393141773
694.5966419,-8.294621612500858
699.1646767,19.07703519733518
703.7257814,20.046040708511338
708.2799676,-9.578358266786612
712.827247,-2.4325386853168176
717.367631,11.591684891337179
721.9011314,-11.404120984337094
726.4277595,-22.081858298210275
730.9475271,6.149574659137521
735.4604456,39.41930749250059
739.9665264,38.35019065111744
744.4657813,4.172129199726184
748.9582215,-13.931545639014729
753.4438587,-10.68679303132738
757.9227042,6.229269651383099
762.3947696,57.2298191377716
766.8600662,86.73251732827643
771.3186056,58.52795493020896
775.770399,46.21873975100705
780.215458,63.002258750541536
784.6537939,44.94996182975396
789.0854181,3.842248791855212
793.510342,20.912502659456493
797.9285769,105.27169315163562
802.3401342,158.0547256037686
806.7450253,136.62354892794647
811.1432614,103.79995348400666
815.5348538,88.70404822203724
819.9198139,95.46589911815282
824.2981531,135.13691454223263
828.6698824,162.58147633621482
833.0350133,148.31633129506326
837.393557,129.3572869459424
841.7455248,120.89120741572461
846.0909278,104.69855576029843
850.4297774,67.0470546878593
854.7620848,7.883714543556689
859.0878611,-24.786459316645924
863.4071176,39.73052976705627
867.7198655,175.70035240723416
872.026116,245.9449514643106
876.3258802,193.22432445647172
880.6191693,139.6371743673303
884.9059946,157.25653206896175
889.186367,139.89980815213352
893.4602979,70.27041531439052
897.7277982,83.38134771246422
901.9888793,153.14726437502276
906.2435521,127.37413512218556
910.4918277,34.72678887066848
914.7337174,-6.727139488380054
918.9692321,7.9508830683365215
923.1983831,48.798379358733484
927.4211813,95.97762641982779
931.6376378,111.90739052879591
935.8477637,98.14928332653238
940.0515701,76.13690303236655
944.249068,39.363780634345055
948.4402684,5.297456473605288
952.6251825,10.73552532779848
956.8038212,48.22051445758579
960.9761955,71.56016674888994
965.1423166,59.473253890770025
969.3021953,52.183659168321185
973.4558427,74.91353273807128
977.6032699,90.22890038173604
981.7444877,85.91799855190496
985.8795072,79.73675084187781
990.0083394,53.10390214567451
994.1309953,2.4311706334710586
998.2474857,-26.387075666524034
1002.357822,-15.405995388545293
1006.462014,-0.8094681693369257
1010.560075,0.5748138479596232
1014.652013,9.807047275362311
1018.737841,17.535754959045974
1022.81757,5.520166609906954
1026.891209,1.2306505048135576
1030.958771,6.261014920191193
1035.020266,-10.266288590068918
1039.075705,-12.480435897087544
1043.1251,42.810542903265485
1047.16846,90.8825232357236
1051.205797,63.8709983606921
1055.237121,13.270182000195478
1059.262444,10.40092165245597
1063.281777,51.57979430179991
1067.295131,108.39033469372315
1071.302515,175.96781655233846
1075.303942,260.75458554524874
1079.299422,348.4329271172266
1083.288966,380.5979936450871
1087.272585,280.5309715587393
1091.250289,87.75659597729093
1095.222091,-9.275210947104739
1099.187999,48.323993889088044
1103.148026,84.83746411908245
1107.102183,21.497233298213516
1111.050479,-26.366755547509904
1114.992927,-19.620296278209985
1118.929536,-7.7880635570180345
1122.860318,12.099602489992366
1126.785283,35.93663587837115
1130.704443,47.0594352553607
1134.617808,69.09651741432376
1138.52539,82.70176822143345
1142.427198,44.7880529357656
1146.323244,4.601766630290566
1150.213538,20.77845286396352
1154.098093,56.125371710008565
1157.976917,83.98874254232082
1161.850023,124.81963206588752
1165.717421,135.3649363471727
1169.579121,89.06171952867354
1173.435135,69.74353036670912
1177.285474,105.62057506270867
1181.130148,126.23991242853671
1184.969169,119.5998229514306
1188.802547,115.54158648961675
1192.630292,100.13037671831351
1196.452416,58.13502401518512
1200.26893,4.235032213706161
1204.079844,-25.72450085027807
1207.88517,-4.689888834314634
1211.684917,27.016611872613
1215.479098,17.81755706631646
1219.267722,-5.396038703771141
1223.050801,-8.141870482421137
1226.828346,6.093957991073904
1230.600366,35.56377100554416
1234.366874,47.69628536537862
1238.12788,29.137723913946452
1241.883395,55.26469586881944
1245.633429,127.55120869961877
1249.377994,129.3644132841411
1253.1171,54.4742128961176
1256.850759,11.811417063217027
1260.578981,16.59954301453446
1264.301776,12.848911336841905
1268.019157,2.2939896845015753
1271.731133,-4.582423041369331
1275.437715,-21.709925921439837
1279.138915,-18.063131691155032
1282.834743,26.122383701006974
1286.52521,41.45663539400425
1290.210328,0.7447493285569387
1293.890106,-15.094100532282454
1297.564555,18.601321136416512
1301.233688,63.27987904809698
1304.897514,112.28105193301579
1308.556044,111.3216674841701
1312.209289,34.49688795448518
1315.857261,7.204062235891733
1319.499969,79.5778768837158
1323.137425,130.22882866494942
1326.769641,111.04127195425721
1330.396626,88.22268935518835
1334.018391,74.05273493269227
1337.634948,32.63047267710072
1341.246307,-14.843093750717438
1344.85248,-17.504765226225146
1348.453477,10.677860253555064
1352.049309,10.976174247551832
1355.639987,-10.09000125714368
1359.225522,14.309652396838498
1362.805925,70.33534798567268
1366.381207,64.24946574391319
1369.951379,5.528816043365566
1373.516452,-1.9644776421588066
1377.076436,37.959729241999796
1380.631343,36.18976658711621
1384.181184,1.4889725274626509
1387.725969,14.753666208185399
1391.26571,72.5376545008227
1394.800417,104.60377257130092
1398.330102,108.9436588966058
1401.854776,117.20717889169426
1405.374448,93.06705256065354
1408.889132,18.463608690388984
1412.398837,-32.836465583866605
1415.903574,-7.623669296617422
1419.403355,45.09654922424196
1422.89819,53.953632314251806
1426.388091,43.190613533637226
1429.873069,87.73119564927515
1433.353134,148.36152963794277
1436.828298,117.89242202049856
1440.298571,31.154100711040392
1443.763965,0.8768504935910713
1447.224491,9.500400842015633
1450.68016,-5.796661957791855
1454.130983,-8.67491121665158
1457.576971,33.72975833578539
1461.018135,62.11410240368856
1464.454486,26.84335148749726
1467.886036,-14.654933356178194
1471.312794,3.3998448355662525
1474.734774,28.97171654440872
1478.151985,13.469720818272737
1481.564439,3.479376577887809
1484.972146,4.135174284520534
1488.375119,5.853725007449732
1491.773368,56.1758343145914
1495.166904,102.02289044368582
1498.555739,58.08262272414481
1501.939883,1.0700405714434496
1505.319349,3.0505172990803544
1508.694146,31.38141138304434
1512.064286,69.27310032892439
1515.429781,88.92970296140504
1518.790642,66.85081564553909
1522.146879,41.883069906651805
1525.498505,16.057997846131947
1528.845529,-25.82674162838435
1532.187965,-24.604609873118534
1535.525822,33.69518816273475
1538.859112,60.742984213935635
1542.187846,34.36453023340646
1545.512036,19.166067321283787
1548.831693,16.018968497125737
1552.146829,-6.077541064879027
1555.457453,-15.853026490730697
1558.763579,19.98337118697442
1562.065216,97.48957762068241
1565.362377,169.59887675098773
1568.655073,166.33936997504398
1571.943315,132.50276763454323
1575.227114,171.01232805664594
1578.506482,236.95179637606276
1581.781431,258.08872480871236
1585.051971,285.4911420135958
1588.318114,350.3697154171827
1591.579872,393.73998540891563
1594.837255,368.76143615884314
1598.090275,301.6360696205092
1601.338945,216.11532244362763
1604.583274,75.10837363786631
1607.823275,-41.980839269058755
1611.058959,9.078715160461064
1614.290338,89.41273038783746
1617.517422,36.289729188348794
1620.740224,2.7050062794799903
1623.958755,40.47556693294507
1627.173027,18.92081115158251
1630.38305,-2.108155091338265
1633.588838,51.60007500600202
1636.7904,87.03754572006943
1639.987749,49.72167936766835
1643.180896,-7.800473909169888
1646.369853,6.731303405701432
1649.554632,94.62286039910015
1652.735244,133.359917770241
1655.9117,93.01620643443327
1659.084013,47.231976014941516
1662.252193,20.844548125446558
1665.416254,27.86668743694748
1668.576205,46.726737069329836
1671.732059,14.329035513257445
1674.883828,-28.019527425380048
1678.031523,-17.583618201143118
1681.175157,4.34349935707132
1684.314739,19.43796353172992
1687.450284,49.31670224106017
1690.581801,63.019625260689715
1693.709304,54.794230265283815
1696.832803,62.37339488398914
1699.952311,82.00390697588422
1703.067839,102.91447335294109
1706.179399,116.83127512480986
1709.287003,106.35394002417743
1712.390663,98.64773848092479
1715.49039,102.84281692557218
1718.586197,83.998802936912
1721.678095,57.2018260679442
1724.766096,36.95220494285057
1727.850213,-1.4244658845586144
1730.930456,-13.478008979895208
1734.006838,54.596627900515145
1737.079372,126.23944669988734
1740.148067,127.69547234347749
1743.212938,118.21047682023928
1746.273996,146.6588621131221
1749.331252,177.65242697343314
1752.384718,179.35316821010798
1755.434408,165.656722599567
1758.480332,181.07921535110285
1761.522503,206.65339535684979
1764.560933,164.47494924900008
1767.595634,96.32365913535907
1770.626618,96.79060158597562
1773.653896,121.57908737495742
1776.677482,101.53179429442386
1779.697388,55.375555313849176
1782.713625,17.159663227342698
1785.726205,4.334447771589938
1788.735141,-0.3630721350656323
1791.740445,-18.12436705219291
1794.742129,-7.102645703473369
1797.740206,45.1701319093425
1800.734687,68.59057235918898
1803.725585,51.453904467052574
1806.712912,44.93170628111274
1809.69668,36.809294834059365
1812.676902,7.806412660855713
1815.65359,-7.047389023585922
1818.626756,-1.9363926798155084
1821.596413,4.534980898863527
1824.562573,15.358989514902966
1827.525247,18.213132399651712
1830.48445,0.14213110356183023
1833.440192,-9.862504412232642
1836.392487,-1.3547324157062821
1839.341347,-9.549259244488752
1842.286784,-18.88328447141003
1845.22881,15.252484658140112
1848.167439,47.69888609032437
1851.102682,19.463894342970782
1854.034553,-20.62067694481167
1856.963063,-4.505248445340248
1859.888226,45.18235044464214
1862.810053,71.73151497652823
1865.728557,59.801632316306204
1868.643751,21.456943330634118
1871.555648,-16.618925405566088
1874.46426,-21.164575752296187
1877.369599,12.776421171558164
1880.271679,60.424789366479985
1883.170512,84.16142093251437
1886.06611,54.77675943765421
1888.958487,11.10412177856322
1891.847655,16.041447988862796
1894.733626,33.04116147922089
1897.616414,5.3322147762047845
1900.496032,-28.387365151699456
1903.372491,-21.8269003438808
1906.245805,21.124631914988434
1909.115987,67.73278311238819
1911.983049,74.43440815168502
1914.847004,59.21422747537093
1917.707866,72.09630440217653
1920.565646,82.4382051926669
1923.420359,36.888897661536625
1926.272016,-18.01571399151754
1929.120631,5.283287719094389
1931.966216,69.05338174833857
1934.808786,62.848482830196915
1937.648351,12.177555703541755
1940.484927,13.359776386833296
1943.318525,73.66931834948652
1946.149158,135.30861586091075
1948.97684,121.71928981004805
1951.801584,50.86380330653549
1954.623403,35.546920860413124
1957.44231,53.58661735605598
1960.258318,11.948961982065029
1963.071439,-28.917118554575122
1965.881688,7.914607171688374
1968.689078,63.552073244607385
1971.493621,78.0719876200128
