Raman shift cm-1,4ATP_1fM_rep3_acc2_processed_intensity
-93.47115107,4.351921549653026
-87.69374369,-10.393078872893696
-81.9253076,-39.78513929243459
-76.16582701,47.36968566286504
-70.41528615,84.04389096702201
-64.67366933,34.47258796358514
-58.94096086,-6.307798471867784
-53.21714512,-12.007743564207942
-47.50220652,79.70239716367433
-41.79612954,219.55935307594677
-36.09889866,10.456951915259879
-30.41049843,109.04036535838719
-24.73091343,112.71265332397212
-19.0601283,-24.72759460140668
-13.39812769,73.13408791456322
-7.744896327,-11.198356445789841
-2.100418946,-48.83559336913254
3.535319659,-9.068284547160147
9.162334658,0.18022257122629526
14.78064118,-18.85989656666561
20.39025432,40.908903933989905
25.99118913,16.40303051045919
31.58346061,44.96840199766393
37.16708375,77.53912686870638
42.74207347,19.026625149324445
48.30844468,-24.3566692661459
53.86621222,-36.23920488728322
59.41539093,-24.86140618443119
64.95599558,14.362425414963582
70.48804091,42.86334832971215
76.01154164,34.45644405162534
81.52651243,-71.6468739833042
87.03296792,-23.50252954119378
92.5309227,51.492994081652114
98.02039134,-49.223342041349724
103.5013884,35.747033755547136
108.9739282,113.40224119795016
114.4380255,174.32339259163223
119.8936944,25.015737441388865
125.3409495,192.6201683759707
130.779805,179.7770178802059
136.2102753,182.2160220906262
141.6323747,245.83301031970018
147.0461174,306.86275964935317
152.4515176,430.1473736187768
157.8485895,404.5900972973893
163.2373472,454.4443490308299
168.6178049,557.4774235892901
173.9899766,669.6854462675549
179.3538764,728.9927064002218
184.7095182,697.2856344132558
190.0569161,811.5848290034437
195.396084,858.2650452532371
200.7270358,833.1781158596143
206.0497854,983.4910477153387
211.3643466,896.2827368688779
216.6707333,1101.1030251740349
221.9689593,1145.5040436740412
227.2590382,1201.688591104255
232.5409839,1337.5554109690675
237.8148101,1376.764122884566
243.0805303,1424.8886366935476
248.3381582,1527.921320857681
253.5877075,1639.8190601864758
258.8291917,1637.424412535565
264.0626244,1783.4349539464088
269.288019,1755.0984885217076
274.5053891,1940.4450931116041
279.7147481,1970.1761023495314
284.9161094,1886.049823693781
290.1094865,1902.1880001133477
295.2948927,1758.2032579549405
300.4723414,1322.6729843549215
305.6418459,636.0654729577043
310.8034194,113.58161918105856
315.9570752,41.60369796661098
321.1028267,77.73852730624691
326.2406869,18.110491320860376
331.370669,1.6295806490893767
336.4927863,-9.827561926242467
341.6070517,-64.28943790767559
346.7134786,4.443035263251982
351.8120798,-2.060457873392103
356.9028684,-52.88666439143888
361.9858576,20.858715964029088
367.0610602,99.19358758962957
372.1284892,122.4710052642921
377.1881577,153.19075155270073
382.2400784,400.1226353321068
387.2842644,622.3669944120817
392.3207284,815.0118045932369
397.3494833,615.8594018066814
402.370542,544.6678770752194
407.3839172,253.81618310860026
412.3896217,83.12463463479324
417.3876683,140.6865590401428
422.3780697,109.03850210090484
427.3608386,7.563649668045738
432.3359876,-15.150117889241312
437.3035295,21.09072920297083
442.2634769,46.429454500455414
447.2158423,6.769223056462257
452.1606383,-33.347402787122995
457.0978776,-39.24328149112173
462.0275727,40.737474678318605
466.9497361,71.85103040068634
471.8643802,65.92530285525325
476.7715176,45.63551840254185
481.6711608,13.930430768941477
486.5633221,-13.26678734252647
491.448014,11.79137224063258
496.3252488,-42.79166392411739
501.195039,-19.04260785761825
506.0573969,-3.3650936190024083
510.9123349,13.74970930349321
515.7598651,-10.290085171125241
520.6,-81.16680636211345
525.4327518,128.73234283430017
530.2581327,3.2501550092375258
535.076155,26.143931416584852
539.8868309,33.696153565579834
544.6901726,14.965663135589917
549.4861922,103.53679473238356
554.2749019,109.8657061509651
559.0563139,81.02958609457971
563.8304402,45.68912317701546
568.597293,52.38220214997218
573.3568844,100.52313149882693
578.1092263,-57.27402029390227
582.8543308,-45.8286768131248
587.5922101,130.14121611321053
592.322876,95.85389064434877
597.0463405,-10.26313176821062
601.7626157,48.085960180903754
606.4717135,2.2437330883862785
611.1736458,111.0075321112553
615.8684246,88.24038690383267
620.5560617,40.964814669391984
625.2365691,-50.09524222796874
629.9099585,-106.18457636656566
634.5762419,-9.715791441434213
639.2354312,81.8832898712889
643.887538,79.0303859202019
648.5325743,13.371858786921159
653.1705518,29.20028841616527
657.8014823,37.80196245807156
662.4253775,22.394573890818137
667.0422493,-0.663948600693054
671.6521092,38.106107565228264
676.2549691,43.658857605428025
680.8508407,-31.852762534881574
685.4397355,-15.426317394580572
690.0216654,-2.874418007161332
694.5966419,-23.503274707100758
699.1646767,-31.440577983260905
703.7257814,16.850741184379054
708.2799676,79.00071095035813
712.827247,75.131101894927
717.367631,16.503973012181667
721.9011314,72.88254437794976
726.4277595,-65.72487130546924
730.9475271,20.603139087787895
735.4604456,6.464303785802233
739.9665264,10.828584242495047
744.4657813,23.41600543161735
748.9582215,24.16913820793915
753.4438587,37.823205741565815
757.9227042,-100.83473170325803
762.3947696,24.697274335517776
766.8600662,-9.008422318430753
771.3186056,74.0140191477595
775.770399,-92.46470544165986
780.215458,53.35514155918311
784.6537939,1.513282955064641
789.0854181,-16.820841716481514
793.510342,46.6175886312581
797.9285769,12.77665165830868
802.3401342,43.07974154369359
806.7450253,-0.5491847225050037
811.1432614,-45.000827671628485
815.5348538,16.52037033945882
819.9198139,126.32037487439361
824.2981531,81.31723169822916
828.6698824,44.599730918259674
833.0350133,87.30276188532983
837.393557,10.86581158874838
841.7455248,-24.661255636406153
846.0909278,37.89953422669887
850.4297774,-27.246617480970535
854.7620848,-108.00031953976081
859.0878611,-47.31677224037859
863.4071176,26.068059559814586
867.7198655,40.70568270728692
872.026116,137.53368499157602
876.3258802,98.78022468004197
880.6191693,16.549708015879613
884.9059946,63.802153947251206
889.186367,43.45524715716641
893.4602979,-3.7659130900106033
897.7277982,6.545125421201249
901.9888793,35.71083117185105
906.2435521,47.654914693911266
910.4918277,-77.47607867261394
914.7337174,-59.857622501337836
918.9692321,-6.519123320032871
923.1983831,-7.992918812364129
927.4211813,67.69347827492948
931.6376378,76.09277861709101
935.8477637,49.17519931070907
940.0515701,91.78486066209081
944.249068,24.227081232951804
948.4402684,-20.635976541687917
952.6251825,-33.56506668021014
956.8038212,-3.363400244119786
960.9761955,127.37599889612714
965.1423166,-4.341738169387238
969.3021953,-8.940689168073508
973.4558427,47.79980323594667
977.6032699,11.655267665022894
981.7444877,16.624918092541094
985.8795072,109.28882674344125
990.0083394,10.162523488160872
994.1309953,6.921174077328693
998.2474857,-27.084666034346057
1002.357822,-27.70508841657905
1006.462014,19.805072632459876
1010.560075,15.080796953737359
1014.652013,0.11221457152449688
1018.737841,-26.60856478689862
1022.81757,-40.0264698783468
1026.891209,-49.14394144364216
1030.958771,-11.375299225434922
1035.020266,47.81114569309181
1039.075705,43.71997176079691
1043.1251,-26.815243719007196
1047.16846,112.72532238081726
1051.205797,36.92393679619212
1055.237121,13.8161412823583
1059.262444,-0.04914690379374598
1063.281777,74.02911047700938
1067.295131,100.72967372652695
1071.302515,232.87197953332137
1075.303942,401.722969206582
1079.299422,474.9462754973487
1083.288966,379.8578529637108
1087.272585,99.8891877785304
1091.250289,-1.2723088390171888
1095.222091,-26.984263842743207
1099.187999,-16.429071060186622
1103.148026,9.200138029970812
1107.102183,21.389011423748745
1111.050479,-48.23072753382037
1114.992927,23.362263099913953
1118.929536,5.923452785125757
1122.860318,12.834985007924221
1126.785283,-10.799361085640959
1130.704443,-11.760809912674512
1134.617808,54.01332093938894
1138.52539,154.75928379890004
1142.427198,75.05761334736962
1146.323244,-35.48925579725307
1150.213538,-31.215588990941118
1154.098093,25.402593469261653
1157.976917,9.318188599899129
1161.850023,80.98991484243577
1165.717421,134.90569286701523
1169.579121,-42.60232866320002
1173.435135,89.68786698329738
1177.285474,69.44794595455647
1181.130148,23.43046488399359
1184.969169,54.5812873419182
1188.802547,96.96459753906294
1192.630292,-7.768719637326875
1196.452416,-2.6685060490688244
1200.26893,53.00573546760809
1204.079844,-50.20801355691897
1207.88517,-55.61160322600509
1211.684917,12.899478949898251
1215.479098,25.40191053368699
1219.267722,12.344180464454691
1223.050801,-48.29977865175957
1226.828346,-34.00469048019902
1230.600366,-22.417284521777507
1234.366874,125.79681719877463
1238.12788,42.07484001006681
1241.883395,47.493226961125146
1245.633429,94.57015980372137
1249.377994,44.59543454834422
1253.1171,-49.437644772878784
1256.850759,33.13935113571141
1260.578981,23.274283646488964
1264.301776,84.49638365042881
1268.019157,23.841479099401994
1271.731133,-95.25163526810246
1275.437715,13.396894884713419
1279.138915,15.051711896540862
1282.834743,90.22769855771347
1286.52521,32.41038380139169
1290.210328,-40.02126486355348
1293.890106,-41.48381758956958
1297.564555,-11.031846023360032
1301.233688,2.194690722108323
1304.897514,156.4886692776993
1308.556044,107.98494605601772
1312.209289,-33.828943298321946
1315.857261,76.42913521505561
1319.499969,29.228318084360293
1323.137425,95.34723358957028
1326.769641,42.99562914082635
1330.396626,22.756373880954392
1334.018391,43.76234018654212
1337.634948,-27.488869250521844
1341.246307,49.31244392091059
1344.85248,-40.131762010832645
1348.453477,1.090008203016879
1352.049309,-9.040379184564848
1355.639987,-34.8417203472851
1359.225522,-65.03788854313537
1362.805925,9.814975367110868
1366.381207,98.83046065813674
1369.951379,49.082379803544626
1373.516452,-10.996395409482524
1377.076436,40.30906979873103
1380.631343,-54.72892532422725
1384.181184,123.44145998225729
1387.725969,33.94381800009783
1391.26571,7.548895318340323
1394.800417,21.55983757153563
1398.330102,49.65191098568373
1401.854776,100.85840135882655
1405.374448,-8.765763018770569
1408.889132,-65.7999214434837
1412.398837,-97.83213360870703
1415.903574,-13.293481976208136
1419.403355,47.484228281271285
1422.89819,111.70373158130873
1426.388091,11.538451528963241
1429.873069,46.600439992162016
1433.353134,23.845662855302695
1436.828298,45.16686853494791
1440.298571,42.319547135490424
1443.763965,-64.27229787593048
1447.224491,-48.453438992692355
1450.68016,-36.23434479949165
1454.130983,41.593518951270966
1457.576971,-35.09436238651908
1461.018135,-17.997142026241868
1464.454486,-8.185920248511579
1467.886036,111.1913610474943
1471.312794,21.077523590880148
1474.734774,0.9932260200451388
1478.151985,16.45524462308732
1481.564439,18.223541987771966
1484.972146,-2.0844627384701298
1488.375119,16.143358452842204
1491.773368,16.568383347545293
1495.166904,104.39187841278968
1498.555739,93.89929629732063
1501.939883,-31.862681170014234
1505.319349,13.40338140552646
1508.694146,20.96855634827095
1512.064286,94.3606515913804
1515.429781,102.59102726127932
1518.790642,65.00009422189851
1522.146879,-38.681676371264686
1525.498505,-5.82701611663337
1528.845529,-51.25158008373701
1532.187965,2.923499932917192
1535.525822,19.314044940293833
1538.859112,83.71919975841467
1542.187846,-21.495641619421164
1545.512036,39.65398391932494
1548.831693,0.3464414471180852
1552.146829,44.47082838666008
1555.457453,-48.742419842046054
1558.763579,40.0747998727276
1562.065216,111.29318021982888
1565.362377,89.74907622537215
1568.655073,254.6658905744229
1571.943315,281.82600266027697
1575.227114,224.7194706285807
1578.506482,288.33666648839454
1581.781431,289.98999476079126
1585.051971,278.3443404667613
1588.318114,325.7173155831905
1591.579872,374.82424518880384
1594.837255,323.07268766900125
1598.090275,328.93798572518875
1601.338945,268.55476184500964
1604.583274,140.29974349892564
1607.823275,29.870537046549828
1611.058959,30.819059328511592
1614.290338,258.18591520766574
1617.517422,-161.50646048274723
1620.740224,-8.615413896615465
1623.958755,68.66631467967134
1627.173027,109.95712763807937
1630.38305,-13.512289040534007
1633.588838,50.49697342251354
1636.7904,50.68505312988535
1639.987749,-6.4102546189143474
1643.180896,90.31529201805897
1646.369853,32.52503931854639
1649.554632,137.768149147778
1652.735244,14.205667424311223
1655.9117,14.87413395383981
1659.084013,-36.62459768291154
1662.252193,-34.70981062776851
1665.416254,6.199904991909364
1668.576205,36.95265863356486
1671.732059,19.957685203005266
1674.883828,-12.984157077663847
1678.031523,17.8412914622989
1681.175157,-65.12622838815932
1684.314739,46.60360243757354
1687.450284,-24.991674186380504
1690.581801,84.07667258658853
1693.709304,94.63958948142624
1696.832803,-7.993091801578949
1699.952311,124.4792618672166
1703.067839,138.75205575843967
1706.179399,163.1126907080593
1709.287003,113.35006889642645
1712.390663,105.75871086770069
1715.49039,25.488336966629397
1718.586197,-7.439232120264663
1721.678095,54.186627838329755
1724.766096,-6.589170605817692
1727.850213,-69.64285485392185
1730.930456,-15.071182124289734
1734.006838,-76.94256177138094
1737.079372,21.426682435389477
1740.148067,-3.1220551145338575
1743.212938,65.03830346525348
1746.273996,35.24249282123607
1749.331252,45.99600532966424
1752.384718,1.222566867713553
1755.434408,9.809330195596537
1758.480332,16.07300470104618
1761.522503,43.7882705208529
1764.560933,17.342353114519888
1767.595634,-61.70893596980251
1770.626618,-8.243403939816902
1773.653896,17.373025148054676
1776.677482,7.875342564609424
1779.697388,-13.49992129401412
1782.713625,-97.42541008631798
1785.726205,15.540282520555122
1788.735141,20.393310800794435
1791.740445,14.6745477523365
1794.742129,11.732041969836752
1797.740206,85.68772412884807
1800.734687,125.78896414979398
1803.725585,43.852427556249765
1806.712912,99.17508934686356
1809.69668,-8.734401246905154
1812.676902,-56.30832495569143
1815.65359,27.027006214983462
1818.626756,-41.782318418156436
1821.596413,32.20935860722872
1824.562573,-17.887568916671274
1827.525247,14.164745097052473
1830.48445,40.714906529949715
1833.440192,-29.947416428502542
1836.392487,110.6107088072947
1839.341347,21.261953784522753
1842.286784,-11.245557286427616
1845.22881,-35.076370162468024
1848.167439,47.86425547421301
1851.102682,72.86911718360568
1854.034553,-36.82997764073534
1856.963063,-6.814210594561178
1859.888226,35.15780122224994
1862.810053,2.1491183307152557
1865.728557,2.8393072115969717
1868.643751,-12.929295207762681
1871.555648,-12.201356288086266
1874.46426,19.578332974961373
1877.369599,29.25687931601398
1880.271679,-51.83931994445095
1883.170512,7.153069227031143
1886.06611,1.4627285094680502
1888.958487,50.26826817601565
1891.847655,-67.85487933482851
1894.733626,3.071639130851274
1897.616414,-26.363949645316502
1900.496032,-5.034591012487208
1903.372491,12.40312171971129
1906.245805,4.239313650007926
1909.115987,45.39223735932385
1911.983049,6.367400636655134
1914.847004,-61.17548694580512
1917.707866,52.27572800311316
1920.565646,46.04014022086359
1923.420359,4.663917567396634
1926.272016,-10.053213645686917
1929.120631,-16.963950330888757
1931.966216,-20.093531312540268
1934.808786,-51.42527876339281
1937.648351,16.6972781265027
1940.484927,-56.18976100463609
1943.318525,-28.70195428101448
1946.149158,47.620564274097134
1948.97684,43.6675551267275
1951.801584,45.25025355901363
1954.623403,102.19787856482809
1957.44231,39.02686312793317
1960.258318,9.78188952501565
1963.071439,-117.65496732033526
1965.881688,33.349407801926006
1968.689078,10.652965217110381
1971.493621,-6.957126971627154
