Raman shift cm-1,4ATP_10uM_rep2_acc4_processed_intensity
-93.47115107,2.6227032270492785
-87.69374369,46.47380225342657
-81.9253076,-17.81893727247234
-76.16582701,9.125412537414672
-70.41528615,70.51091346287505
-64.67366933,29.640459028146708
-58.94096086,-11.490238183684598
-53.21714512,-7.936089641769357
-47.50220652,9.770175934759795
-41.79612954,7.565987745609109
-36.09889866,-13.6914259356086
-30.41049843,4.329163838668141
-24.73091343,20.927388345345413
-19.0601283,13.538569750965948
-13.39812769,24.163199120574397
-7.744896327,8.309360794799744
-2.100418946,-14.084611282814093
3.535319659,-4.637714035527588
9.162334658,-19.183017416499816
14.78064118,-29.540170835949482
20.39025432,6.655346155529434
25.99118913,48.16633148914116
31.58346061,50.2549531328063
37.16708375,15.235370298982122
42.74207347,11.785432641108534
48.30844468,19.36323164487884
53.86621222,-19.936322899960008
59.41539093,-30.983041862358338
64.95599558,15.474266481817029
70.48804091,67.72185962299038
76.01154164,66.05948020412583
81.52651243,-3.197387511179709
87.03296792,-7.396410179493394
92.5309227,62.743586469445916
98.02039134,55.63343442161589
103.5013884,6.6471703340077735
108.9739282,17.580082917524063
114.4380255,48.07825258417083
119.8936944,40.68124893113375
125.3409495,15.53420118889844
130.779805,4.248944327812128
136.2102753,-21.442142343738084
141.6323747,-40.697371886971325
147.0461174,1.9435912442323726
152.4515176,30.55722694120545
157.8485895,5.2277698542984865
163.2373472,-7.039580605491047
168.6178049,6.2210487214035055
173.9899766,51.427190238285675
179.3538764,96.4532324868473
184.7095182,101.47622529650344
190.0569161,91.14588313473824
195.396084,48.05535203944149
200.7270358,18.424601558087744
206.0497854,44.18515216594395
211.3643466,36.026265672703914
216.6707333,17.172571423538756
221.9689593,63.98786397091837
227.2590382,117.68060089050869
232.5409839,124.5665540295262
237.8148101,104.79685902310032
243.0805303,88.73878279846934
248.3381582,120.12767779381169
253.5877075,195.8907979873569
258.8291917,210.30544543812567
264.0626244,195.78275589832134
269.288019,287.66303144751856
274.5053891,363.5241025024911
279.7147481,336.08640842799883
284.9161094,353.8336671387034
290.1094865,359.7027020762147
295.2948927,250.86994655654712
300.4723414,138.03344876116657
305.6418459,23.204426636954388
310.8034194,-40.60938011303192
315.9570752,85.20441361444281
321.1028267,230.48606033026144
326.2406869,355.04981521560813
331.370669,626.5585609495397
336.4927863,830.9668871694398
341.6070517,872.1448133157633
346.7134786,1049.6026335312195
351.8120798,1333.681294240004
356.9028684,1446.820592628333
361.9858576,1479.0147766879188
367.0610602,1704.1027379615496
372.1284892,2254.597452995134
377.1881577,3881.9024966222382
382.2400784,7626.085744026472
387.2842644,12139.532855969728
392.3207284,14078.46474107121
397.3494833,12319.858493442816
402.370542,8775.26471630834
407.3839172,5511.109750759191
412.3896217,3330.1147569910563
417.3876683,2049.897017627216
422.3780697,1211.284367562426
427.3608386,726.6657885324404
432.3359876,576.8879697144589
437.3035295,488.4433599871095
442.2634769,377.573433853887
447.2158423,331.0876013710884
452.1606383,223.43470286825803
457.0978776,44.70365093952053
462.0275727,-12.920508380556015
466.9497361,4.550762033441173
471.8643802,21.59737960389874
476.7715176,158.4853755162783
481.6711608,379.6890894043314
486.5633221,468.7165159469436
491.448014,414.0475865321591
496.3252488,344.90661626240933
501.195039,281.2410362601921
506.0573969,300.4543669244656
510.9123349,381.8475490735036
515.7598651,359.4908985637389
520.6,333.32592674335876
525.4327518,356.78057389436594
530.2581327,332.6057499292441
535.076155,398.85341778484667
539.8868309,474.7114365976572
544.6901726,337.0981283833078
549.4861922,234.02707513403263
554.2749019,224.95172219610293
559.0563139,75.99078784238696
563.8304402,-8.030458060561521
568.597293,67.39740375163878
573.3568844,61.223762421467065
578.1092263,4.938332078262867
582.8543308,-5.5965518063908135
587.5922101,-10.393585198262606
592.322876,-7.341016987745704
597.0463405,-2.153625330804285
601.7626157,7.257913759787083
606.4717135,41.46935733633968
611.1736458,36.452265183344146
615.8684246,-8.579942231888761
620.5560617,9.904195782804226
625.2365691,62.088576310084825
629.9099585,178.15677017722723
634.5762419,437.98287220724416
639.2354312,573.9487630618921
643.887538,425.280072232426
648.5325743,249.62688493698965
653.1705518,154.00156144334233
657.8014823,63.47284277106492
662.4253775,16.38671533233702
667.0422493,10.839694936774904
671.6521092,-0.27725175478212805
676.2549691,-8.815834063661669
680.8508407,-5.919867426556834
685.4397355,34.22346693533794
690.0216654,73.13039951208346
694.5966419,146.70103368357059
699.1646767,407.9743328437486
703.7257814,619.4349601141736
708.2799676,526.8018453378937
712.827247,406.2698331606837
717.367631,339.3027388824731
721.9011314,158.08209272565392
726.4277595,22.18177017300645
730.9475271,7.570904333657182
735.4604456,-11.751703284553987
739.9665264,-7.237453800210957
744.4657813,34.661754468152765
748.9582215,60.703714043936756
753.4438587,43.82211252380326
757.9227042,-12.4747363649403
762.3947696,0.23278951668380898
766.8600662,89.50047132925941
771.3186056,133.24892898622932
775.770399,163.9353284607092
780.215458,228.6792433303081
784.6537939,291.44833209094236
789.0854181,413.97817604154994
793.510342,671.9292414495939
797.9285769,1019.7930790274318
802.3401342,1249.6001461358103
806.7450253,1213.2361931437617
811.1432614,1065.7544340156169
815.5348538,914.2235587897593
819.9198139,759.6133344975051
824.2981531,677.1163660995769
828.6698824,532.992615693555
833.0350133,296.07480394133944
837.393557,206.9776570418612
841.7455248,168.9275623312121
846.0909278,55.7083273585678
850.4297774,20.574593901131724
854.7620848,9.050867303042242
859.0878611,-33.924371824336504
863.4071176,41.504980472257614
867.7198655,210.8887939604598
872.026116,278.13720061916314
876.3258802,211.01468041919728
880.6191693,209.89969950832415
884.9059946,297.76035901301407
889.186367,317.4719025006267
893.4602979,355.73672505196095
897.7277982,476.30336547615514
901.9888793,557.437498480044
906.2435521,607.1869447714777
910.4918277,684.4851836093285
914.7337174,792.6343914561189
918.9692321,926.1673422217556
923.1983831,1056.4749849124541
927.4211813,1144.2727393656032
931.6376378,1140.3289358276215
935.8477637,1107.3656880899377
940.0515701,1161.8202133632337
944.249068,1234.667039424402
948.4402684,1287.498870470132
952.6251825,1422.8991996308887
956.8038212,1559.9718242935069
960.9761955,1577.747205210782
965.1423166,1571.9179371943617
969.3021953,1599.4804297745793
973.4558427,1618.6081895718353
977.6032699,1610.8455342386856
981.7444877,1530.017325812152
985.8795072,1404.4267890189735
990.0083394,1345.3553466469318
994.1309953,1401.344887129761
998.2474857,1658.1042533155312
1002.357822,2084.3083701114506
1006.462014,2162.607967343927
1010.560075,1535.2773223048123
1014.652013,721.3024606535114
1018.737841,289.55313754054663
1022.81757,167.81054800730067
1026.891209,137.50278105943568
1030.958771,138.99873095438028
1035.020266,103.48685431181292
1039.075705,13.000929869813206
1043.1251,63.39203505434682
1047.16846,260.07443598624496
1051.205797,362.8221517818195
1055.237121,574.3910229484788
1059.262444,1271.960177073066
1063.281777,2620.3427171841968
1067.295131,5098.334327303644
1071.302515,8883.357206256813
1075.303942,12528.23520679648
1079.299422,13472.643514528481
1083.288966,10556.509783958918
1087.272585,5854.688678665136
1091.250289,2449.861465229983
1095.222091,987.4714796364262
1099.187999,414.00385022386894
1103.148026,163.96045561799303
1107.102183,69.10176741690572
1111.050479,-15.04610105801953
1114.992927,5.981902052607609
1118.929536,178.41870374248862
1122.860318,378.7170275463262
1126.785283,825.6352008929629
1130.704443,1866.6870999870503
1134.617808,3240.353656696463
1138.52539,4234.386857565852
1142.427198,4187.466506244518
1146.323244,3081.4909117082093
1150.213538,1839.4419976967977
1154.098093,1157.7906069244502
1157.976917,864.9085452233307
1161.850023,829.5607274442923
1165.717421,1029.3445662935353
1169.579121,1265.9848502247257
1173.435135,1591.3125135603432
1177.285474,2098.913957607191
1181.130148,2465.7888451158924
1184.969169,2294.177748065153
1188.802547,1668.1216276812236
1192.630292,1026.7893630131193
1196.452416,568.4913251491396
1200.26893,251.52090616653675
1204.079844,94.25667450907804
1207.88517,49.32844371822578
1211.684917,9.678651987481665
1215.479098,-21.199817576285664
1219.267722,4.908559142396843
1223.050801,46.737229418618014
1226.828346,18.60155590295213
1230.600366,69.34578460219637
1234.366874,282.1901042698243
1238.12788,345.8229054353806
1241.883395,311.76862558435465
1245.633429,450.9591989863684
1249.377994,467.03353651723523
1253.1171,260.18238244438834
1256.850759,150.2839182167769
1260.578981,124.7492246040324
1264.301776,119.40836665293796
1268.019157,127.16658281941835
1271.731133,21.62215349115577
1275.437715,-42.42373097362061
1279.138915,80.25827535603773
1282.834743,180.61047458401703
1286.52521,178.88022572179392
1290.210328,169.96301629805933
1293.890106,155.25343502749368
1297.564555,188.17388219183206
1301.233688,356.65147327313247
1304.897514,495.8203743653295
1308.556044,397.4596902140335
1312.209289,220.81556653074438
1315.857261,152.65576054136744
1319.499969,125.15279105683183
1323.137425,139.57900170516524
1326.769641,178.66550356528793
1330.396626,106.60650974716884
1334.018391,-1.386375153788741
1337.634948,-9.399161764149184
1341.246307,5.550312700430588
1344.85248,18.94895746648635
1348.453477,94.53007964518855
1352.049309,143.41565565289585
1355.639987,139.52461939137888
1359.225522,202.30873766878346
1362.805925,313.91175660224974
1366.381207,374.1719569335651
1369.951379,391.0053545197578
1373.516452,467.8729035362621
1377.076436,660.5380757559376
1380.631343,1014.1209620353238
1384.181184,1588.9957502376503
1387.725969,2069.3400773203534
1391.26571,1981.7210961442413
1394.800417,1403.5825547070442
1398.330102,761.4117639929333
1401.854776,324.86967065982236
1405.374448,107.03364227404319
1408.889132,-13.392071333966891
1412.398837,7.052085233164487
1415.903574,268.85565675926824
1419.403355,739.6994293308518
1422.89819,1464.0456968348376
1426.388091,2275.50633388788
1429.873069,2716.902653803561
1433.353134,2646.323373410674
1436.828298,2169.580713202544
1440.298571,1482.7607795810152
1443.763965,906.8246131326683
1447.224491,530.0773122307356
1450.68016,311.11405740487
1454.130983,215.4651918356056
1457.576971,104.86647486389907
1461.018135,19.05993775675998
1464.454486,93.90067314610468
1467.886036,233.73600907808435
1471.312794,277.6406600861085
1474.734774,243.74332691010324
1478.151985,268.25418338429677
1481.564439,352.50394656444945
1484.972146,417.157157460503
1488.375119,464.53252908943796
1491.773368,411.4083150016609
1495.166904,226.83885429202917
1498.555739,88.07565816406523
1501.939883,21.307545314990833
1505.319349,-46.859523319454404
1508.694146,-25.523344518246233
1512.064286,59.84396769761129
1515.429781,68.68819797798041
1518.790642,49.32912551825699
1522.146879,45.32044464953234
1525.498505,14.744984370099985
1528.845529,15.397382173112852
1532.187965,76.04563150248958
1535.525822,147.93091112910935
1538.859112,218.37290937804738
1542.187846,281.2617054825676
1545.512036,362.40575172265375
1548.831693,506.9443127577145
1552.146829,636.1515778687831
1555.457453,730.8955038593272
1558.763579,975.3760718489757
1562.065216,1350.1399298991244
1565.362377,1707.9448590395655
1568.655073,2176.9577093916837
1571.943315,2739.663851087816
1575.227114,3154.963794555146
1578.506482,3541.1119913784737
1581.781431,4115.008121693271
1585.051971,4772.06660519499
1588.318114,5276.1519973797485
1591.579872,5236.344610247933
1594.837255,4300.65675977727
1598.090275,2845.0423340099387
1601.338945,1656.9710432499594
1604.583274,854.5944351812166
1607.823275,320.7393856885772
1611.058959,288.0740784280564
1614.290338,383.21363479586716
1617.517422,168.90278127499943
1620.740224,106.78672840731036
1623.958755,241.64236697703566
1627.173027,144.13275813606685
1630.38305,15.815640792172047
1633.588838,56.36976496242326
1636.7904,87.10912794410248
1639.987749,59.395204217917325
1643.180896,15.55933781645777
1646.369853,2.1197858690313183
1649.554632,43.61037952781112
1652.735244,56.48289149577806
1655.9117,46.9222738181884
1659.084013,51.85493302443936
1662.252193,7.650030325569276
1665.416254,-38.87600271479979
1668.576205,3.941569115553577
1671.732059,79.91515461664713
1674.883828,73.27093868579239
1678.031523,-0.8440422586162661
1681.175157,-20.326607076598073
1684.314739,15.881378705828766
1687.450284,70.17342352224124
1690.581801,148.7613938790618
1693.709304,154.66576677772377
1696.832803,98.11461902560775
1699.952311,126.3059881612327
1703.067839,175.72266073752485
1706.179399,153.85820208331765
1709.287003,137.55206618954685
1712.390663,120.48231632226256
1715.49039,51.869341989466
1718.586197,-0.3491550008958697
1721.678095,2.7623035540040135
1724.766096,-0.5720082759957634
1727.850213,-21.67477176614519
1730.930456,-2.31609105696441
1734.006838,36.21917889918021
1737.079372,18.11678355290561
1740.148067,-15.92601940906922
1743.212938,21.108092606800554
1746.273996,79.71259755474614
1749.331252,78.56214271379447
1752.384718,42.068032116098976
1755.434408,34.50666168812764
1758.480332,54.71013301033965
1761.522503,41.881211595406526
1764.560933,11.138084793006666
1767.595634,6.163051316390007
1770.626618,-3.0458532254710775
1773.653896,-22.648813016340284
1776.677482,-12.870126142259261
1779.697388,21.777417984828055
1782.713625,17.458392171658012
1785.726205,-12.369494574105033
1788.735141,0.4601573940022221
1791.740445,5.228758574743198
1794.742129,-14.271939294299802
1797.740206,23.855023550914858
1800.734687,89.33600115672571
1803.725585,102.42347293002969
1806.712912,67.78610030811889
1809.69668,34.60679327667904
1812.676902,10.864126453019878
1815.65359,-26.115775936468545
1818.626756,-13.771637247013025
1821.596413,43.96996579241384
1824.562573,55.72528268165104
1827.525247,72.36324164699212
1830.48445,77.19862201849485
1833.440192,5.126663900792529
1836.392487,-6.016654821084558
1839.341347,65.21504056313171
1842.286784,78.44680637013056
1845.22881,50.167340241121806
1848.167439,48.423127787224026
1851.102682,41.460417112349276
1854.034553,2.0981033913188973
1856.963063,-13.087628657870939
1859.888226,21.953436389333515
1862.810053,34.46611945175708
1865.728557,20.15540020421565
1868.643751,14.170399022298955
1871.555648,-14.775950555112443
1874.46426,-29.31704892252801
1877.369599,-3.2798836599493857
1880.271679,8.941123427825431
1883.170512,8.758413545098232
1886.06611,4.046210566763326
1888.958487,6.596774719626833
1891.847655,20.4049247209612
1894.733626,-11.299779008142664
1897.616414,-40.92272014230684
1900.496032,-4.0525728632255
1903.372491,18.989979846823204
1906.245805,39.06801235431301
1909.115987,91.6042129031198
1911.983049,51.8977204053857
1914.847004,-17.022228871769812
1917.707866,42.93327024286561
1920.565646,74.91292282014837
1923.420359,5.823800194077341
1926.272016,0.23258287464117444
1929.120631,19.126111901437255
1931.966216,9.538287311725163
1934.808786,34.614296435600686
1937.648351,16.342429817595793
1940.484927,-17.268544098161215
1943.318525,56.749026644455725
1946.149158,124.31411933134493
1948.97684,99.72350924585609
1951.801584,74.82649370798143
1954.623403,62.88028670489877
1957.44231,8.966821565573262
1960.258318,-46.810630336992645
1963.071439,-26.100845738843457
1965.881688,16.95768379079485
1968.689078,14.82214016371411
1971.493621,17.30158401827844
