Raman shift cm-1,4ATP_100uM_rep2_acc4_processed_intensity
-93.47115107,-4.474500811596229
-87.69374369,18.7630156682496
-81.9253076,-0.18310860359380499
-76.16582701,-22.038472248795358
-70.41528615,8.207692972166598
-64.67366933,54.2631266740255
-58.94096086,27.08417796141694
-53.21714512,-24.948323924021622
-47.50220652,8.050907582678377
-41.79612954,36.29094615357968
-36.09889866,-2.2966983955423643
-30.41049843,10.897242660044867
-24.73091343,40.91455622467669
-19.0601283,9.061128488143481
-13.39812769,-4.4285643601375
-7.744896327,4.170340744350483
-2.100418946,-3.1505275767810303
3.535319659,-0.08158381244425073
9.162334658,4.859129121098704
14.78064118,2.1756972816931466
20.39025432,-1.896767402933392
25.99118913,6.273211817458332
31.58346061,42.23158448260688
37.16708375,51.23819947163952
42.74207347,1.2792146456101818
48.30844468,-27.6356669727179
53.86621222,-8.513516196325327
59.41539093,-7.802956172887889
64.95599558,-9.02585476296133
70.48804091,18.359704874732188
76.01154164,13.263797665166976
81.52651243,17.794507062784305
87.03296792,111.86011673105156
92.5309227,173.5610819727657
98.02039134,143.27118966711396
103.5013884,173.28658475279042
108.9739282,246.04369625584263
114.4380255,227.05631845453172
119.8936944,213.99894913387698
125.3409495,277.5675080896053
130.779805,304.88122201639203
136.2102753,309.2285705866078
141.6323747,363.91129845536784
147.0461174,412.4556759074077
152.4515176,419.17460306605324
157.8485895,442.2416998623165
163.2373472,514.9809910206299
168.6178049,589.2245777080046
173.9899766,626.2471663992145
179.3538764,655.1688788454787
184.7095182,711.2827139693987
190.0569161,791.2761895548686
195.396084,847.8884424547417
200.7270358,848.7872949680435
206.0497854,845.2036134418038
211.3643466,905.2602228573085
216.6707333,1001.2403819303581
221.9689593,1050.5250027058291
227.2590382,1055.7361812398276
232.5409839,1086.0097719287778
237.8148101,1145.1469229299028
243.0805303,1191.215350661947
248.3381582,1247.4242460226071
253.5877075,1332.5495392638218
258.8291917,1385.1699117841904
264.0626244,1407.4308756777286
269.288019,1448.3699984258315
274.5053891,1476.2688066852352
279.7147481,1488.5108954843267
284.9161094,1525.069042388677
290.1094865,1507.2914167262486
295.2948927,1282.4202953810168
300.4723414,837.0927825617956
305.6418459,355.66996730258495
310.8034194,58.62617717981547
315.9570752,-13.904518135536396
321.1028267,3.4091855187949864
326.2406869,70.68760357932989
331.370669,194.38410732766664
336.4927863,231.07632608067377
341.6070517,196.32380652915688
346.7134786,291.2136611600242
351.8120798,430.3980866023936
356.9028684,428.93496217525603
361.9858576,456.30279263334864
367.0610602,703.7286274483704
372.1284892,1135.3013289277621
377.1881577,2135.9858614734035
382.2400784,4357.699453260736
387.2842644,7003.895458249092
392.3207284,7926.103387956337
397.3494833,6508.375275969133
402.370542,4344.633311932948
407.3839172,2693.713856433754
412.3896217,1593.6166306003522
417.3876683,944.6917753973826
422.3780697,643.438608419458
427.3608386,440.20427806939773
432.3359876,307.9772403095419
437.3035295,327.05867552811253
442.2634769,360.94594516942806
447.2158423,276.2555019570532
452.1606383,151.45426501201908
457.0978776,52.37295621669346
462.0275727,6.026798911551211
466.9497361,73.80896540378495
471.8643802,179.55961464475055
476.7715176,243.78091340964727
481.6711608,314.94756107257376
486.5633221,365.87523094249707
491.448014,343.4436789303994
496.3252488,295.1334094125804
501.195039,300.7567467480669
506.0573969,376.90400126629623
510.9123349,405.96889871035376
515.7598651,324.1930395510104
520.6,275.2141253828755
525.4327518,328.59728837231086
530.2581327,363.161044043297
535.076155,339.01514657657236
539.8868309,318.4052857543601
544.6901726,272.76497639682884
549.4861922,202.02209552378903
554.2749019,193.81979407485926
559.0563139,185.20806946331385
563.8304402,105.60697971648372
568.597293,73.17850806508713
573.3568844,98.74624421228461
578.1092263,62.192367869371346
582.8543308,-3.692518836184263
587.5922101,-3.28582578497047
592.322876,42.5420308715256
597.0463405,52.878019653279644
601.7626157,7.187866938936644
606.4717135,-19.088300944862056
611.1736458,1.871295008848116
615.8684246,3.520918921993638
620.5560617,4.04225573833326
625.2365691,73.9234765005546
629.9099585,218.60081848159598
634.5762419,435.04454709142675
639.2354312,614.5754971459463
643.887538,563.3077193626141
648.5325743,323.0124805217158
653.1705518,115.23333290396411
657.8014823,17.716062220636886
662.4253775,-17.13834193726349
667.0422493,-14.582740780170184
671.6521092,4.93799982113147
676.2549691,7.048777953259091
680.8508407,1.6372607452397858
685.4397355,20.984554666211125
690.0216654,55.07277327214179
694.5966419,103.32434422029499
699.1646767,189.42362126147685
703.7257814,255.2057996553019
708.2799676,229.24734600130603
712.827247,191.25367185675785
717.367631,199.88108667613733
721.9011314,142.91670578449782
726.4277595,16.472428008698852
730.9475271,-24.904625752531526
735.4604456,9.209630918635382
739.9665264,-1.900848321830622
744.4657813,-25.657680059430948
748.9582215,1.786804777364143
753.4438587,34.33624882308134
757.9227042,47.069048526528235
762.3947696,36.16849773246651
766.8600662,-0.6544569059668746
771.3186056,18.43192399060291
775.770399,87.96223141829392
780.215458,81.48483191766604
784.6537939,56.901507301077444
789.0854181,151.52091241655043
793.510342,298.4588016561522
797.9285769,439.58826623026783
802.3401342,602.1784394093327
806.7450253,662.9836993315304
811.1432614,568.29619120606
815.5348538,497.4890597217008
819.9198139,490.40809899130886
824.2981531,457.4701210162989
828.6698824,408.54104619358435
833.0350133,308.7526950854814
837.393557,172.68190264321152
841.7455248,129.7587383821882
846.0909278,132.90612985446114
850.4297774,74.72588969179036
854.7620848,1.3607217525564295
859.0878611,-30.914601138507415
863.4071176,-16.912969403723565
867.7198655,19.564957696677244
872.026116,60.01833801551227
876.3258802,90.01830721731358
880.6191693,55.56578630440315
884.9059946,3.1045069383050725
889.186367,16.80962619863115
893.4602979,13.466312634183865
897.7277982,-25.292119114313287
901.9888793,-0.3109427613279152
906.2435521,20.80269566705274
910.4918277,-18.75870089129491
914.7337174,14.017549817365278
918.9692321,162.89739715591827
923.1983831,290.3976097704168
927.4211813,293.2355454171206
931.6376378,247.97011348655656
935.8477637,264.06663012814664
940.0515701,291.94399444764673
944.249068,322.5486009991199
948.4402684,406.6662070313538
952.6251825,444.2642186115512
956.8038212,437.51852836082827
960.9761955,492.7067804488956
965.1423166,546.034630467475
969.3021953,550.8856754243058
973.4558427,528.1723578798958
977.6032699,513.7016536654062
981.7444877,574.118399900815
985.8795072,605.0047568317323
990.0083394,540.4330882486565
994.1309953,611.626669859493
998.2474857,944.8272834223056
1002.357822,1305.6363946557685
1006.462014,1339.1392213135277
1010.560075,926.5027199211877
1014.652013,377.8799190692967
1018.737841,67.5131229839797
1022.81757,2.7714664829277105
1026.891209,34.42478790385702
1030.958771,71.29241383042623
1035.020266,21.262139341074516
1039.075705,-48.36868597252864
1043.1251,16.4975723965485
1047.16846,138.65230090517636
1051.205797,197.38965739432314
1055.237121,279.7766567704884
1059.262444,569.3361753129313
1063.281777,1256.273582629991
1067.295131,2565.796751175826
1071.302515,4745.308239339041
1075.303942,7334.547575296532
1079.299422,8510.695117423644
1083.288966,6900.3341571438095
1087.272585,3786.048612536645
1091.250289,1478.0403026813638
1095.222091,491.88308819911396
1099.187999,114.18128020576876
1103.148026,18.353869115383787
1107.102183,39.59734912513508
1111.050479,-2.975311257724027
1114.992927,-9.984859423218932
1118.929536,67.72761936178972
1122.860318,198.69470818295468
1126.785283,477.80648158486883
1130.704443,963.7364732569097
1134.617808,1667.8446477355933
1138.52539,2376.4482141029953
1142.427198,2533.5538058960115
1146.323244,1987.3605108679385
1150.213538,1295.7783124100943
1154.098093,864.7061610728211
1157.976917,639.991122405735
1161.850023,578.0564688315544
1165.717421,635.6841118635953
1169.579121,697.6166860900673
1173.435135,798.1786662473821
1177.285474,985.6794338805355
1181.130148,1112.1285997612954
1184.969169,1020.8918282267672
1188.802547,778.0914666785021
1192.630292,538.3878919563774
1196.452416,328.67573982929474
1200.26893,171.9681023572406
1204.079844,130.6374975010122
1207.88517,118.53501449966271
1211.684917,35.23012342005476
1215.479098,-26.081302939682445
1219.267722,1.6644704139282496
1223.050801,17.775064791657442
1226.828346,9.018648929341818
1230.600366,70.31861659510423
1234.366874,162.4095185835259
1238.12788,205.87166585135842
1241.883395,223.8825371639921
1245.633429,211.5653605946341
1249.377994,160.42430004556465
1253.1171,119.55481318616212
1256.850759,75.0754637790221
1260.578981,44.614027253458545
1264.301776,94.59660067081012
1268.019157,110.24503990134629
1271.731133,13.075384591894185
1275.437715,-19.30835714157623
1279.138915,59.19585509264599
1282.834743,86.19605777305921
1286.52521,47.15687682274293
1290.210328,10.618432379909517
1293.890106,-6.306569278779712
1297.564555,49.80414600509265
1301.233688,153.1268192332116
1304.897514,208.60906801421984
1308.556044,227.3704316155795
1312.209289,212.27940710007042
1315.857261,149.73064681999327
1319.499969,123.67295727957435
1323.137425,131.42058819726728
1326.769641,79.58854414332022
1330.396626,8.429862310219502
1334.018391,-11.832013967091498
1337.634948,-7.2455602564387505
1341.246307,6.921058441229803
1344.85248,51.45633676995779
1348.453477,121.66990510788509
1352.049309,164.20372452926168
1355.639987,167.3329803562671
1359.225522,217.56886410709464
1362.805925,306.86809241782424
1366.381207,311.32465765057856
1369.951379,255.883802255769
1373.516452,293.00092175034786
1377.076436,457.5862138898202
1380.631343,682.668209191605
1384.181184,956.3675509853247
1387.725969,1198.7154130323072
1391.26571,1177.239796242294
1394.800417,866.7352032665176
1398.330102,518.938628359842
1401.854776,263.06633681109884
1405.374448,84.93300247448096
1408.889132,4.308634027561885
1412.398837,41.815392647628876
1415.903574,214.91610518447993
1419.403355,506.65803724754926
1422.89819,877.9360231871757
1426.388091,1285.4631176899172
1429.873069,1538.0715317835466
1433.353134,1467.326195906981
1436.828298,1153.2315780397714
1440.298571,747.2035737144337
1443.763965,417.74600827268455
1447.224491,259.7560279065814
1450.68016,140.11255323167373
1454.130983,10.46242292648344
1457.576971,-8.79890359597266
1461.018135,43.1502309319946
1464.454486,60.725662155907976
1467.886036,68.84111496890758
1471.312794,88.60374570825041
1474.734774,111.00667596242118
1478.151985,171.92144338252015
1481.564439,269.0926184420809
1484.972146,397.8430899948999
1488.375119,552.8595144447257
1491.773368,559.109589289854
1495.166904,354.46957027898065
1498.555739,185.06295276611561
1501.939883,125.7416417337333
1505.319349,43.42747399303517
1508.694146,-5.890469600409414
1512.064286,34.85103033505476
1515.429781,40.522626298287015
1518.790642,5.166429312037728
1522.146879,4.371050940370173
1525.498505,-6.728160410697379
1528.845529,-6.968356972834812
1532.187965,53.307200725357504
1535.525822,114.69951775911485
1538.859112,165.28557908781505
1542.187846,232.86385133977112
1545.512036,311.6250016073106
1548.831693,368.57372017041877
1552.146829,381.4734085297635
1555.457453,445.54602608548515
1558.763579,603.0327247437928
1562.065216,746.5506554026433
1565.362377,872.9684571972359
1568.655073,1040.9292460766815
1571.943315,1234.091931914001
1575.227114,1447.9193614450392
1578.506482,1671.0234478770608
1581.781431,1938.9375793584657
1585.051971,2331.321457716386
1588.318114,2716.951726155274
1591.579872,2840.2792287202255
1594.837255,2591.1592104884453
1598.090275,2031.8691841997077
1601.338945,1388.024360912361
1604.583274,822.7060268662724
1607.823275,364.015826792721
1611.058959,161.66063160133743
1614.290338,173.11365832183563
1617.517422,99.75509971254894
1620.740224,16.85933460746432
1623.958755,83.17522224430866
1627.173027,91.46230119932034
1630.38305,15.875332614147254
1633.588838,47.66342514153655
1636.7904,89.8518404999846
1639.987749,10.926176234485965
1643.180896,-29.997557643262724
1646.369853,49.496147749182384
1649.554632,80.92987614862125
1652.735244,41.70596994046683
1655.9117,44.68869591706707
1659.084013,27.484502285839447
1662.252193,-20.11329739488996
1665.416254,6.388963471387122
1668.576205,37.86073821554544
1671.732059,9.022232493983754
1674.883828,4.221285969877025
1678.031523,14.909417599298969
1681.175157,-18.046948682243134
1684.314739,-16.780315776399394
1687.450284,53.46743939552961
1690.581801,78.52261113261886
1693.709304,34.89437650407007
1696.832803,19.695677243550612
1699.952311,65.79332320215599
1703.067839,111.31667964067235
1706.179399,91.31985512643621
1709.287003,53.09367488676017
1712.390663,80.56919757397102
1715.49039,121.0981341724651
1718.586197,83.93343781527425
1721.678095,4.48495421774777
1724.766096,-3.6124349498938244
1727.850213,59.566681230273645
1730.930456,47.09019655332158
1734.006838,-28.641565890738548
1737.079372,8.997022591337299
1740.148067,110.94490695735351
1743.212938,110.78482638505395
1746.273996,62.75323355867932
1749.331252,72.10671150482577
1752.384718,82.93471351206583
1755.434408,62.014951464540864
1758.480332,92.64463609857171
1761.522503,137.63489597482786
1764.560933,87.23262635251412
1767.595634,16.057995617485158
1770.626618,-1.9991369644139727
1773.653896,-6.649868741625113
1776.677482,18.944965765021706
1779.697388,40.0273595771243
1782.713625,-3.091091568414236
1785.726205,-13.70284361063877
1788.735141,32.79727760213527
1791.740445,28.367318805744887
1794.742129,7.75069655536021
1797.740206,45.82091064799823
1800.734687,71.59427341611132
1803.725585,61.44116994273249
1806.712912,78.05083498597256
1809.69668,78.40101606066543
1812.676902,19.47548320531913
1815.65359,-27.134976895302735
1818.626756,-10.993600206720254
1821.596413,45.893168305975784
1824.562573,66.67990162315394
1827.525247,27.732790750787235
1830.48445,19.654332236592932
1833.440192,43.275956701988896
1836.392487,18.586249782391803
1839.341347,-21.433950249601114
1842.286784,-4.303942535772558
1845.22881,49.19791188305003
1848.167439,54.02616179913797
1851.102682,5.231871177889619
1854.034553,-14.77823378492607
1856.963063,5.3109783675872055
1859.888226,32.548113978815486
1862.810053,60.49796768465639
1865.728557,64.82483890333121
1868.643751,31.287983114659703
1871.555648,-2.8349358091165513
1874.46426,19.8778784403644
1877.369599,81.10964626075557
1880.271679,90.51601172818408
1883.170512,41.80137350857785
1886.06611,8.690121920384065
1888.958487,14.02550805592778
1891.847655,6.749475101000691
1894.733626,-36.77160711109536
1897.616414,-30.74609656470684
1900.496032,40.98994963706032
1903.372491,50.0122095700099
1906.245805,16.664184310921797
1909.115987,44.87158334864792
1911.983049,45.95464546097168
1914.847004,-6.253496866800933
1917.707866,14.440234440104472
1920.565646,72.60434000935307
1923.420359,83.25328852257277
1926.272016,79.68637009460059
1929.120631,52.73507537260898
1931.966216,2.593214547443699
1934.808786,-11.033084952223595
1937.648351,-5.941571394834389
1940.484927,9.335613995681705
1943.318525,55.00576696006151
1946.149158,61.09056816370631
1948.97684,17.898067216772745
1951.801584,6.116397189161914
1954.623403,32.83724668781538
1957.44231,58.842330095507265
1960.258318,33.34462102375326
1963.071439,-22.41318945943327
1965.881688,5.192133080100675
1968.689078,80.19001063821621
1971.493621,84.56923666470422
