Raman shift cm-1,4ATP_100uM_rep3_acc4_processed_intensity
-93.47115107,19.77257826820853
-87.69374369,16.869231055122984
-81.9253076,-46.34256156480407
-76.16582701,-8.788708918462723
-70.41528615,20.572546686136604
-64.67366933,-24.716968890001183
-58.94096086,-13.718196959868061
-53.21714512,10.943093271463757
-47.50220652,24.848732213411537
-41.79612954,27.253673925308718
-36.09889866,0.7896554384410479
-30.41049843,51.68070023518435
-24.73091343,79.10561436584968
-19.0601283,-24.32193090236575
-13.39812769,-44.27512711747918
-7.744896327,10.969627955935097
-2.100418946,16.03344653374811
3.535319659,47.21171038993486
9.162334658,28.15767264859406
14.78064118,-36.03515369591759
20.39025432,2.128225422305232
25.99118913,33.397445922430556
31.58346061,22.042279369711952
37.16708375,36.1083207473129
42.74207347,-15.558508770824938
48.30844468,-62.289679185653156
53.86621222,-22.375741042787688
59.41539093,-7.60546170712916
64.95599558,3.283465004221856
70.48804091,36.62438841986741
76.01154164,16.447924273913543
81.52651243,-28.93014846856123
87.03296792,-24.226918156918988
92.5309227,17.94409984203535
98.02039134,9.300815264919445
103.5013884,-6.892805010368807
108.9739282,24.872817394261382
114.4380255,2.130210029713375
119.8936944,-6.8443570964687055
125.3409495,48.991095476427944
130.779805,27.258686146747458
136.2102753,-17.9267849615604
141.6323747,-12.439061062430634
147.0461174,-19.211567209343002
152.4515176,-11.476602259005498
157.8485895,52.26312802529399
163.2373472,78.19071176475143
168.6178049,21.814110852776142
173.9899766,54.4962795859226
179.3538764,136.94174937832292
184.7095182,69.87207503965313
190.0569161,12.204656548519523
195.396084,72.96531581368606
200.7270358,55.95112325716474
206.0497854,-34.42117942889476
211.3643466,-4.9567531105422376
216.6707333,61.46198682587084
221.9689593,32.15545161156365
227.2590382,7.03439971843485
232.5409839,8.69247371165485
237.8148101,20.870087027189808
243.0805303,17.32510106631695
248.3381582,-8.599230691758333
253.5877075,9.300947012814827
258.8291917,-9.715509636446015
264.0626244,-33.453445998265465
269.288019,-10.903963834272929
274.5053891,-3.775705918332818
279.7147481,63.89604690884198
284.9161094,234.70918584951164
290.1094865,883.9734317058508
295.2948927,3123.484424678455
300.4723414,8275.967750241436
305.6418459,15974.724822044942
310.8034194,22962.596066886123
315.9570752,26508.068579680963
321.1028267,27555.142799040983
326.2406869,28192.31658056277
331.370669,28731.967350964205
336.4927863,28869.024939807234
341.6070517,29057.15754181379
346.7134786,29574.38995863851
351.8120798,30315.4359850671
356.9028684,30815.670035484443
361.9858576,30596.34209640674
367.0610602,30279.70573188286
372.1284892,30822.853641039223
377.1881577,33699.04455892135
382.2400784,39761.12728065432
387.2842644,46140.61177715424
392.3207284,48509.763299233964
397.3494833,45764.24616062774
402.370542,40894.046665571484
407.3839172,36457.7010374286
412.3896217,32316.912263753038
417.3876683,28800.688536450758
422.3780697,26102.314712839627
427.3608386,23880.68141900498
432.3359876,22598.126231168797
437.3035295,21812.641026579568
442.2634769,20853.40695953626
447.2158423,20084.729613472817
452.1606383,19713.79781754857
457.0978776,19790.63768809117
462.0275727,20404.068549033906
466.9497361,21278.629785965844
471.8643802,23210.409792533537
476.7715176,28114.5717459875
481.6711608,34603.093444172024
486.5633221,37557.64456330017
491.448014,34678.268764013184
496.3252488,28829.545339223758
501.195039,23617.94981551098
506.0573969,20435.995499647473
510.9123349,18825.258900791792
515.7598651,17731.070797011016
520.6,17020.95851794164
525.4327518,16875.276761866226
530.2581327,17054.06354941858
535.076155,18530.831320864378
539.8868309,20717.997238726497
544.6901726,19898.161701330195
549.4861922,16302.85375140625
554.2749019,13940.985132038197
559.0563139,13260.787433739115
563.8304402,12789.57510555537
568.597293,12509.819142985234
573.3568844,12281.082848950982
578.1092263,12026.288697976077
582.8543308,12046.841785079749
587.5922101,11884.100273472157
592.322876,11460.417982072659
597.0463405,11312.386701118317
601.7626157,11166.447700370278
606.4717135,10935.243630253015
611.1736458,10846.843973889814
615.8684246,10732.137963441728
620.5560617,11053.510672061417
625.2365691,11684.883743312763
629.9099585,11492.143820213101
634.5762419,11030.385954090218
639.2354312,11101.18378385092
643.887538,10738.511705884419
648.5325743,9872.959982587745
653.1705518,9287.515946393658
657.8014823,8792.263597870815
662.4253775,8347.633414630105
667.0422493,8069.830681890149
671.6521092,7819.370923667892
676.2549691,7670.6453660821135
680.8508407,7579.124760540917
685.4397355,7537.150221460299
690.0216654,7661.196645870978
694.5966419,8248.63813298726
699.1646767,9484.244050733605
703.7257814,11325.789938363016
708.2799676,14682.57405677869
712.827247,18415.864960201914
717.367631,18078.63111669104
721.9011314,13349.62409608066
726.4277595,8970.622848409283
730.9475271,7003.72950698327
735.4604456,6067.097429924477
739.9665264,5504.236746663279
744.4657813,5307.971963173013
748.9582215,5028.409389190119
753.4438587,4693.8215314435165
757.9227042,4485.030316526459
762.3947696,4180.510129321081
766.8600662,3898.415335160951
771.3186056,3791.993705067966
775.770399,3661.7515995306503
780.215458,3474.1600714328665
784.6537939,3390.7530344970073
789.0854181,3527.284830460346
793.510342,3874.998934106882
797.9285769,4268.274179747428
802.3401342,4483.227116447146
806.7450253,4507.13978320993
811.1432614,4498.782648581782
815.5348538,4372.055039802108
819.9198139,4001.3831462065564
824.2981531,3492.9751247562376
828.6698824,2784.9340037601246
833.0350133,1915.6758208375486
837.393557,1300.1628731214
841.7455248,938.1183478838466
846.0909278,539.4945838098865
850.4297774,225.9985248046487
854.7620848,99.82071902158168
859.0878611,24.973258863739375
863.4071176,6.847159205046864
867.7198655,109.88817719576718
872.026116,155.56925229873468
876.3258802,-4.377570905056473
880.6191693,-23.199743571866293
884.9059946,221.03045401683266
889.186367,263.6324016055132
893.4602979,210.58253073900914
897.7277982,534.9015385134089
901.9888793,1178.6007551237885
906.2435521,2036.774165426988
910.4918277,3169.5536685813045
914.7337174,4578.442961539767
918.9692321,5699.036058887322
923.1983831,5550.002738253927
927.4211813,4581.646024101707
931.6376378,4065.0391537173205
935.8477637,4048.5912641031637
940.0515701,4215.992188758548
944.249068,4409.443750241593
948.4402684,4408.213966959406
952.6251825,4359.505747833493
956.8038212,4412.6562344214635
960.9761955,4518.46609805899
965.1423166,4483.307247061526
969.3021953,4275.135598055118
973.4558427,4103.050415744207
977.6032699,3981.467922908605
981.7444877,4005.6856926378846
985.8795072,4066.662655855692
990.0083394,4126.710424438886
994.1309953,4736.944625805932
998.2474857,6902.434338162237
1002.357822,11584.78141837916
1006.462014,15101.618610448539
1010.560075,12011.491756932966
1014.652013,5786.320344771284
1018.737841,2844.3267360729415
1022.81757,2591.6096639932907
1026.891209,2715.333549211464
1030.958771,3292.5203925594888
1035.020266,4138.087585764964
1039.075705,4943.208970774199
1043.1251,6742.3027053242995
1047.16846,8930.762975384463
1051.205797,12797.460763247298
1055.237121,23343.651497868723
1059.262444,34519.315231761495
1063.281777,36520.77769420131
1067.295131,34919.81834565256
1071.302515,35514.282973051726
1075.303942,35094.712872148426
1079.299422,34962.21061044721
1083.288966,35520.46158021935
1087.272585,29451.01681601058
1091.250289,18553.244595849883
1095.222091,12608.143027276656
1099.187999,10900.12343690086
1103.148026,10039.022217410133
1107.102183,11301.55912231726
1111.050479,13947.468611081564
1114.992927,19365.578891546837
1118.929536,28303.653909341585
1122.860318,34566.58583642432
1126.785283,35446.47094519069
1130.704443,35027.33278555221
1134.617808,34975.301642028964
1138.52539,34731.70477321104
1142.427198,34965.285064864634
1146.323244,34942.82544976629
1150.213538,34762.02675596975
1154.098093,35621.5432386082
1157.976917,32524.873396724855
1161.850023,23434.70691522037
1165.717421,16391.438865832173
1169.579121,13691.75879591539
1173.435135,11928.471584430557
1177.285474,12294.546856435092
1181.130148,15803.380186396509
1184.969169,21794.731988851832
1188.802547,28058.089180173236
1192.630292,28818.1044268818
1196.452416,22144.77525235386
1200.26893,13537.180542140477
1204.079844,7641.613825188575
1207.88517,4569.158072672785
1211.684917,3237.751846235897
1215.479098,2740.9840912165296
1219.267722,2466.3706959647693
1223.050801,2195.630826172338
1226.828346,1956.1291218309264
1230.600366,1850.5923962419913
1234.366874,1781.9697389775283
1238.12788,1665.8553486159228
1241.883395,1371.6693078699618
1245.633429,945.0634333521886
1249.377994,768.6056836807679
1253.1171,682.9411801066336
1256.850759,347.8918038059458
1260.578981,36.7521393317588
1264.301776,-13.436917798502314
1268.019157,8.520593181253012
1271.731133,-40.39608180015355
1275.437715,189.96465926122372
1279.138915,868.4702235319972
1282.834743,1436.8596035414062
1286.52521,1975.9582083126609
1290.210328,3385.0159869938916
1293.890106,6120.954514457917
1297.564555,9900.894335193085
1301.233688,12973.68781967946
1304.897514,13126.33148222941
1308.556044,10461.515848498324
1312.209289,6899.597565910802
1315.857261,4154.531169124269
1319.499969,2761.5954262539917
1323.137425,2076.550872044886
1326.769641,1705.8863373048812
1330.396626,1830.5972753490555
1334.018391,2323.212652050417
1337.634948,3011.3147747690796
1341.246307,4041.0298870875263
1344.85248,5563.468114321515
1348.453477,7372.590059181786
1352.049309,9275.038583306105
1355.639987,11427.048089129283
1359.225522,13198.23626913666
1362.805925,14281.076665711696
1366.381207,15814.523518134494
1369.951379,18156.442740580296
1373.516452,23139.730242244692
1377.076436,31329.898903044228
1380.631343,36491.68591291076
1384.181184,37091.48423863492
1387.725969,36955.50109676786
1391.26571,36594.064291423565
1394.800417,38218.96431819385
1398.330102,36388.16022215274
1401.854776,24700.081317713557
1405.374448,15128.113283615943
1408.889132,14233.672075303395
1412.398837,18010.560603861464
1415.903574,27852.209669728465
1419.403355,36924.344477035316
1422.89819,38026.22731818768
1426.388091,37249.44056598927
1429.873069,37740.86065859458
1433.353134,37655.53763063827
1436.828298,37921.189010085196
1440.298571,37911.5504081068
1443.763965,37665.49545065141
1447.224491,38986.6013674336
1450.68016,36410.47350107129
1454.130983,26659.183838684407
1457.576971,18294.85891123841
1461.018135,15269.240997950239
1464.454486,14748.919022516644
1467.886036,17049.94030878021
1471.312794,19825.801643347608
1474.734774,17990.292028342377
1478.151985,11941.81996953717
1481.564439,6316.730785140779
1484.972146,3432.409304538688
1488.375119,2156.0677059643795
1491.773368,1231.5901695795874
1495.166904,579.2921797971085
1498.555739,280.7650615329212
1501.939883,82.93390644100509
1505.319349,16.911035276229086
1508.694146,174.51906832318127
1512.064286,251.17829689441623
1515.429781,308.4689229882465
1518.790642,578.2160941106627
1522.146879,855.54841165419
1525.498505,1129.5588962392228
1528.845529,1727.7323440550924
1532.187965,2641.8464047089783
1535.525822,3508.9643208585217
1538.859112,4278.929944969577
1542.187846,5295.242068841024
1545.512036,6619.055727528879
1548.831693,8234.730532618823
1552.146829,10534.580835881388
1555.457453,13678.791180913664
1558.763579,17654.981224661777
1562.065216,22584.196645131982
1565.362377,28085.770824409996
1568.655073,33495.71745327733
1571.943315,37865.52735607407
1575.227114,39426.7960054809
1578.506482,36675.03482069912
1581.781431,30529.87708257154
1585.051971,24089.19250984898
1588.318114,18836.502334017106
1591.579872,14172.573566029976
1594.837255,10182.745964911419
1598.090275,7125.521604919777
1601.338945,5002.702884065844
1604.583274,3710.905809183473
1607.823275,2796.8164742379495
1611.058959,2397.415962272728
1614.290338,2241.917036536115
1617.517422,1794.7846757128639
1620.740224,1636.0311006873847
1623.958755,1669.0077059071987
1627.173027,1270.717423574134
1630.38305,907.6212308126053
1633.588838,897.1566903007804
1636.7904,880.3726653151259
1639.987749,738.0184624501845
1643.180896,623.0709394651758
1646.369853,526.6136412265682
1649.554632,376.21210943638744
1652.735244,267.8196243889794
1655.9117,202.72282065507426
1659.084013,144.97873310836908
1662.252193,105.56183031474097
1665.416254,-9.71264546554356
1668.576205,-69.48458749664542
1671.732059,26.008610722297078
1674.883828,57.383120725459705
1678.031523,18.207815622728482
1681.175157,27.331389425655892
1684.314739,74.62078999243221
1687.450284,93.69146398816899
1690.581801,4.559804916509819
1693.709304,-48.74229941447381
1696.832803,12.779497824141288
1699.952311,22.13894610498956
1703.067839,46.09933591667013
1706.179399,117.64960147363904
1709.287003,71.48366783115944
1712.390663,7.856403501878875
1715.49039,15.467706923485476
1718.586197,20.47360361519025
1721.678095,27.9208493511246
1724.766096,11.038959271295546
1727.850213,-36.48355010359561
1730.930456,-57.358993966637925
1734.006838,-21.493542226714467
1737.079372,15.287843345165825
1740.148067,18.271607984547188
1743.212938,96.21562227348133
1746.273996,170.79637776654982
1749.331252,143.21105007822564
1752.384718,148.0693071791263
1755.434408,130.73350287335919
1758.480332,91.8715763831751
1761.522503,151.71196229577401
1764.560933,126.00210581556206
1767.595634,-15.83114270440706
1770.626618,-47.59717217999619
1773.653896,34.093311708638254
1776.677482,104.05192299903153
1779.697388,112.11326096528954
1782.713625,58.96656820542566
1785.726205,20.033726868408394
1788.735141,64.6893553772499
1791.740445,86.04939317337131
1794.742129,32.10560721194295
1797.740206,34.244789329636106
1800.734687,77.39018241964892
1803.725585,82.59130139876153
1806.712912,78.44316637726179
1809.69668,26.474652874505125
1812.676902,-44.615086199302084
1815.65359,-47.41784228970822
1818.626756,-20.643753431502894
1821.596413,3.850238582702886
1824.562573,4.385796150089725
1827.525247,16.86708017251746
1830.48445,34.30627505303029
1833.440192,-35.641939615988974
1836.392487,-3.0267538010785984
1839.341347,170.8174347097097
1842.286784,170.55517899544898
1845.22881,76.76773017265515
1848.167439,108.11497199807152
1851.102682,111.40034929683304
1854.034553,13.501891159786801
1856.963063,16.88196077315197
1859.888226,141.69347233318967
1862.810053,131.4851853346893
1865.728557,12.354351979696837
1868.643751,-8.009395099675253
1871.555648,-4.151001216107233
1874.46426,-16.43176665652217
1877.369599,18.085172331783937
1880.271679,48.29941679689458
1883.170512,21.640884016316107
1886.06611,-22.649845413489647
1888.958487,4.461446136027369
1891.847655,25.465181924938076
1894.733626,-64.4531240583562
1897.616414,-82.96647552773629
1900.496032,26.542086846422055
1903.372491,31.38902682691145
1906.245805,-14.009808318495168
1909.115987,27.564441244842115
1911.983049,22.835593780371685
1914.847004,11.067177257853977
1917.707866,49.92752624989943
1920.565646,33.17849226436522
1923.420359,13.8975996667787
1926.272016,-8.085769821981966
1929.120631,-39.94786990333577
1931.966216,10.40749525701242
1934.808786,48.885534127905494
1937.648351,17.91091933319883
1940.484927,-36.23452846631369
1943.318525,-28.225982874907608
1946.149158,73.99532831852439
1948.97684,64.27481298058956
1951.801584,9.530215273355985
1954.623403,47.04344141977664
1957.44231,30.695764308273716
1960.258318,7.807856395733332
1963.071439,-5.429000981653106
1965.881688,8.548153269466335
1968.689078,75.94892463736701
1971.493621,-18.764312939904883
