Raman shift cm-1,4ATP_100uM_rep3_acc5_processed_intensity
-93.47115107,-28.499603402251047
-87.69374369,80.36127784382873
-81.9253076,27.507753956089317
-76.16582701,7.925959666615441
-70.41528615,127.6059382730837
-64.67366933,-45.32644679683381
-58.94096086,30.818023191363274
-53.21714512,35.33969885398834
-47.50220652,13.81371211455205
-41.79612954,85.9357968654039
-36.09889866,-47.19635865720152
-30.41049843,-14.60402127352325
-24.73091343,37.0367872648492
-19.0601283,-25.92309320398795
-13.39812769,-23.282013419406265
-7.744896327,20.97953703132129
-2.100418946,24.48713744882446
3.535319659,3.0408926375795513
9.162334658,-31.613401591593654
14.78064118,3.622990206714693
20.39025432,4.140804565614503
25.99118913,-2.7625316135833415
31.58346061,24.41960176621599
37.16708375,32.6340083713197
42.74207347,-7.629221868768663
48.30844468,-62.21787122641558
53.86621222,-5.305884821102817
59.41539093,24.959616644001358
64.95599558,23.95122986013216
70.48804091,-10.960132597012343
76.01154164,-4.922906464243248
81.52651243,54.399378905825074
87.03296792,10.3943876980589
92.5309227,18.406311151430064
98.02039134,-4.991914766676349
103.5013884,-34.46020552077549
108.9739282,62.10087485008383
114.4380255,75.82804133992579
119.8936944,63.70079462327668
125.3409495,4.451227486569418
130.779805,-49.51854748029516
136.2102753,13.03897977608295
141.6323747,8.786376576120913
147.0461174,-1.807605196745623
152.4515176,38.89537101632797
157.8485895,-14.612346171482795
163.2373472,-32.71037924253107
168.6178049,12.343312769434888
173.9899766,23.131927092714115
179.3538764,-4.95335228335049
184.7095182,32.94281075520766
190.0569161,58.794157918607404
195.396084,-16.64558885379903
200.7270358,38.204951650111944
206.0497854,-16.157703098258366
211.3643466,-34.82812938572254
216.6707333,53.8833358425382
221.9689593,76.04298818183688
227.2590382,-3.327088046634266
232.5409839,14.712632707732379
237.8148101,54.984690982203524
243.0805303,-9.697688151697264
248.3381582,-2.7236262513937817
253.5877075,7.136962448037011
258.8291917,58.05784667575184
264.0626244,5.920629326270287
269.288019,7.040055167498124
274.5053891,-12.222076584437474
279.7147481,91.36321148452369
284.9161094,293.8628485297173
290.1094865,928.8543524563258
295.2948927,3293.869782048216
300.4723414,8613.945457943095
305.6418459,16517.635466958378
310.8034194,23375.899652364682
315.9570752,26857.178418908632
321.1028267,28072.28309372236
326.2406869,28677.569174335502
331.370669,29420.544421114246
336.4927863,29557.212184136748
341.6070517,29525.205228102357
346.7134786,30010.321225162897
351.8120798,30917.806731239274
356.9028684,31646.447027228245
361.9858576,31321.1989513532
367.0610602,31053.04009760167
372.1284892,31647.51756222407
377.1881577,33979.655064884646
382.2400784,39643.127879203836
387.2842644,45969.15170075973
392.3207284,48589.80859882493
397.3494833,46308.42136201401
402.370542,41420.63208298235
407.3839172,37347.82492482958
412.3896217,33286.800203325634
417.3876683,29881.760476159747
422.3780697,27255.38919797111
427.3608386,24998.182227515837
432.3359876,23859.01807328034
437.3035295,22879.863884451406
442.2634769,22298.122785574327
447.2158423,21450.406329640708
452.1606383,21042.3096769657
457.0978776,21182.941077361367
462.0275727,21855.84641924716
466.9497361,22540.798369869543
471.8643802,24364.308830263584
476.7715176,29469.677309621533
481.6711608,35704.781102622095
486.5633221,38582.42746191568
491.448014,35667.76823076355
496.3252488,30068.09171434619
501.195039,25068.506783644443
506.0573969,21879.696764226985
510.9123349,20128.10945135435
515.7598651,19394.054645648866
520.6,18748.83580312391
525.4327518,18474.60969536968
530.2581327,18881.96018557409
535.076155,20040.915508365193
539.8868309,22355.18170460979
544.6901726,21594.318625740336
549.4861922,17989.56966448499
554.2749019,15891.155254418522
559.0563139,14979.479933745484
563.8304402,14494.938368022089
568.597293,14360.887497149752
573.3568844,14213.785563416397
578.1092263,13981.519620102395
582.8543308,13924.87716819367
587.5922101,13720.812762442556
592.322876,13332.729166685938
597.0463405,13372.691541547198
601.7626157,13038.350738247073
606.4717135,12989.803993504413
611.1736458,12853.914099461175
615.8684246,12498.972135036838
620.5560617,12963.774781298142
625.2365691,13527.580002087376
629.9099585,13405.48516482511
634.5762419,13048.79852966847
639.2354312,13066.53185859323
643.887538,12630.145330340925
648.5325743,12029.001533986084
653.1705518,11335.450307948387
657.8014823,10771.732609092727
662.4253775,10296.981161030437
667.0422493,10017.831129623613
671.6521092,9930.127541484007
676.2549691,9567.40809477485
680.8508407,9366.795372795299
685.4397355,9471.596330320714
690.0216654,9694.436052307632
694.5966419,9961.733643052703
699.1646767,11302.651553372576
703.7257814,13010.972445351623
708.2799676,16017.530051532065
712.827247,19774.59174281429
717.367631,19483.271068783626
721.9011314,15170.283275439499
726.4277595,10808.211014718296
730.9475271,8638.02921264293
735.4604456,7787.541651369373
739.9665264,7390.769248594659
744.4657813,7265.240403449298
748.9582215,6872.87007728816
753.4438587,6357.337850234292
757.9227042,6147.708191385978
762.3947696,5758.244271610001
766.8600662,5535.121527016873
771.3186056,5348.416641925173
775.770399,4893.369343394653
780.215458,4841.083238811885
784.6537939,4783.634176089192
789.0854181,4964.958075731998
793.510342,5049.814656242745
797.9285769,5366.135014918581
802.3401342,5658.100869455441
806.7450253,5630.948146983411
811.1432614,5735.778135917323
815.5348538,5435.709367684014
819.9198139,5018.990544515462
824.2981531,4377.319954595732
828.6698824,3580.6479797815987
833.0350133,2697.613371072208
837.393557,2179.7294455391493
841.7455248,1719.835402812622
846.0909278,1129.9476166512636
850.4297774,781.0151713341465
854.7620848,454.4740885964586
859.0878611,360.19357237008046
863.4071176,438.67432238055943
867.7198655,396.9045970617461
872.026116,313.54937253220595
876.3258802,287.2886908827528
880.6191693,32.48252122595585
884.9059946,-45.6137729302078
889.186367,12.49204068398982
893.4602979,-16.22626114945041
897.7277982,184.27502187284966
901.9888793,705.1880033555547
906.2435521,1386.2423898502818
910.4918277,2433.560295841285
914.7337174,3802.593642468138
918.9692321,4807.534129145287
923.1983831,4636.655672519092
927.4211813,3581.778206048869
931.6376378,3039.148638816075
935.8477637,2702.1075744826967
940.0515701,2686.8117941859855
944.249068,3040.944505913622
948.4402684,2756.7711122225496
952.6251825,2532.457048671058
956.8038212,2790.333831878459
960.9761955,2788.279753621954
965.1423166,2483.1626528634115
969.3021953,2279.706754948301
973.4558427,2105.9202937245336
977.6032699,2058.185313132988
981.7444877,1747.0574025062242
985.8795072,1883.5821686515508
990.0083394,1659.4595737290983
994.1309953,2293.764168494581
998.2474857,4346.446794426796
1002.357822,8582.367659729309
1006.462014,13049.329348935878
1010.560075,9844.242869557042
1014.652013,3413.982212503696
1018.737841,423.44083028505906
1022.81757,-6.959321148749723
1026.891209,34.05614693866414
1030.958771,779.6253394479875
1035.020266,1196.913953047746
1039.075705,2678.0181541527627
1043.1251,3812.647605429045
1047.16846,6321.342551835998
1051.205797,10115.1903586703
1055.237121,19658.921010549573
1059.262444,32044.9902194389
1063.281777,32630.687729196532
1067.295131,32304.35186910085
1071.302515,32025.78752471034
1075.303942,32130.62262298598
1079.299422,31917.9810697129
1083.288966,32142.355330713384
1087.272585,27862.754613770034
1091.250289,15628.39555274337
1095.222091,10830.011292487145
1099.187999,8261.936846439838
1103.148026,7694.663352221214
1107.102183,8753.698492506936
1111.050479,11363.97626342374
1114.992927,16738.55223166182
1118.929536,25304.279821531807
1122.860318,32251.492811789416
1126.785283,32490.934246308894
1130.704443,32928.968340111
1134.617808,32141.8420383867
1138.52539,32677.36765561738
1142.427198,32392.835438246286
1146.323244,32775.63724000808
1150.213538,32688.606367088396
1154.098093,33112.23678000935
1157.976917,32071.79956835527
1161.850023,21935.693282117496
1165.717421,15571.28258823207
1169.579121,12393.452575148536
1173.435135,10491.345123013667
1177.285474,11275.641999813492
1181.130148,14167.513764998355
1184.969169,20239.925923055795
1188.802547,26410.712330664028
1192.630292,28058.128204376088
1196.452416,21686.98476019728
1200.26893,13270.564987501097
1204.079844,7103.888739084224
1207.88517,4183.877327778549
1211.684917,2928.3453684852943
1215.479098,2397.676466708876
1219.267722,2189.498489467949
1223.050801,1825.9627585935118
1226.828346,1904.2145743997178
1230.600366,1629.6131456337712
1234.366874,1496.1807436460776
1238.12788,1484.6326538714986
1241.883395,1246.0950014100094
1245.633429,950.2766164783633
1249.377994,751.3201112405786
1253.1171,564.1716883796217
1256.850759,209.81858004019264
1260.578981,-51.87541135479538
1264.301776,25.460703911884845
1268.019157,-4.327070948505451
1271.731133,11.174766131410355
1275.437715,340.7824688622485
1279.138915,754.7247395740545
1282.834743,1467.0130697503573
1286.52521,2031.0885062011102
1290.210328,3315.210400169193
1293.890106,5876.15509997986
1297.564555,9629.590747736074
1301.233688,12804.431598468997
1304.897514,12979.083440444141
1308.556044,10651.610177867666
1312.209289,7394.0690252603035
1315.857261,4762.365669891951
1319.499969,3187.027355698463
1323.137425,2361.0763971107212
1326.769641,1931.421910075039
1330.396626,2050.4331840396953
1334.018391,2650.1657071860427
1337.634948,3281.4642488333657
1341.246307,4411.728496322177
1344.85248,5731.760760913837
1348.453477,7550.432937456952
1352.049309,9471.478427153319
1355.639987,11534.547803188374
1359.225522,13178.162835043964
1362.805925,14223.587227002756
1366.381207,15859.789473875458
1369.951379,17902.52186380749
1373.516452,22533.183980560378
1377.076436,30105.024391624458
1380.631343,36576.97482391923
1384.181184,36357.55228937972
1387.725969,36746.02541312722
1391.26571,36535.39119850244
1394.800417,37183.11463185256
1398.330102,36797.65317177398
1401.854776,24794.46639666101
1405.374448,15516.946675357745
1408.889132,14161.285294068093
1412.398837,16826.630752784367
1415.903574,26501.49858893212
1419.403355,36613.213258399825
1422.89819,37316.27484684522
1426.388091,37158.35250291576
1429.873069,37031.49288378439
1433.353134,37397.1641029922
1436.828298,37396.67850820924
1440.298571,37355.15532450399
1443.763965,37504.93009158502
1447.224491,37907.44050598681
1450.68016,37647.11293959046
1454.130983,26717.771705524538
1457.576971,19112.7282007022
1461.018135,15731.511825025198
1464.454486,14516.97370812651
1467.886036,17078.39825942526
1471.312794,19777.040022239824
1474.734774,18369.363922671782
1478.151985,12063.638146451669
1481.564439,6909.176047439094
1484.972146,3496.4905160458834
1488.375119,2189.050583709144
1491.773368,1434.9054752596176
1495.166904,766.6235853515163
1498.555739,118.35843789702221
1501.939883,198.3859005568861
1505.319349,-17.226420236928334
1508.694146,37.38590075328602
1512.064286,147.7889541364966
1515.429781,196.82188136612922
1518.790642,308.4410560523661
1522.146879,720.0881003575973
1525.498505,1123.7560240332682
1528.845529,1532.8759272765292
1532.187965,2476.882607803045
1535.525822,3191.0774650505377
1538.859112,3990.560557232087
1542.187846,5061.553729239817
1545.512036,6479.509531134984
1548.831693,8000.989888484499
1552.146829,10312.030076728348
1555.457453,13329.094449441865
1558.763579,17050.142547058676
1562.065216,22111.960718837774
1565.362377,27396.447019215666
1568.655073,32733.528942364483
1571.943315,37548.739055196835
1575.227114,38939.26402252456
1578.506482,36384.569530037355
1581.781431,30313.390701916946
1585.051971,23837.309293829057
1588.318114,18652.017315168432
1591.579872,14010.765331439925
1594.837255,10033.69768991077
1598.090275,7032.200701444666
1601.338945,4869.681891577047
1604.583274,3518.088961054612
1607.823275,2790.7575630487345
1611.058959,2178.61064324061
1614.290338,2115.302066406747
1617.517422,1737.8136199829314
1620.740224,1453.3954564613377
1623.958755,1357.462513810799
1627.173027,1074.4619803220812
1630.38305,788.934263934324
1633.588838,677.0341489906999
1636.7904,681.1992589022117
1639.987749,650.1346623476734
1643.180896,520.3837057074581
1646.369853,357.16671142484506
1649.554632,266.5264109835563
1652.735244,209.06685257822107
1655.9117,102.83179392816118
1659.084013,-17.304639414123557
1662.252193,-36.21165789402093
1665.416254,30.783752649168235
1668.576205,29.062735182372222
1671.732059,-48.528717559800086
1674.883828,116.16201013414033
1678.031523,0.6370840197402003
1681.175157,30.853591094668133
1684.314739,66.43461821547686
1687.450284,-33.282457056600514
1690.581801,70.10693581519638
1693.709304,24.567295491335685
1696.832803,18.285671301058215
1699.952311,134.36449705184015
1703.067839,119.88580091605766
1706.179399,138.40097509059237
1709.287003,107.12074700839216
1712.390663,74.57105582130959
1715.49039,248.54694218103856
1718.586197,128.00754041171643
1721.678095,-1.428992249255998
1724.766096,-14.434564846456738
1727.850213,-27.83881377204827
1730.930456,29.53472074531095
1734.006838,153.8495858847107
1737.079372,144.19032292834615
1740.148067,201.17428115989094
1743.212938,261.3669108519062
1746.273996,248.7336711089658
1749.331252,285.159009792379
1752.384718,219.55341448920643
1755.434408,233.33849542516694
1758.480332,199.6396916889757
1761.522503,258.34317150662855
1764.560933,157.24482208439417
1767.595634,-8.285571125544578
1770.626618,72.2103405592878
1773.653896,192.95053814235334
1776.677482,133.6088849319855
1779.697388,215.43668653785562
1782.713625,163.63808647528475
1785.726205,101.61479035113538
1788.735141,237.90226790550702
1791.740445,19.99654664111754
1794.742129,102.1135751236088
1797.740206,146.2801193362734
1800.734687,151.34395275688757
1803.725585,163.26332143677092
1806.712912,86.06289294167306
1809.69668,39.24597571409339
1812.676902,-65.88144274797267
1815.65359,7.796401371673802
1818.626756,-36.83584210886623
1821.596413,52.96914797368713
1824.562573,67.18830658209987
1827.525247,30.923472414260655
1830.48445,41.40662375095485
1833.440192,6.883013726306043
1836.392487,1.2247523852033737
1839.341347,-51.956383224737216
1842.286784,67.56741523666817
1845.22881,64.90735761103213
1848.167439,143.43894975787688
1851.102682,117.98563507673637
1854.034553,31.66082389500791
1856.963063,96.28806127478096
1859.888226,15.822923024488176
1862.810053,117.08681029898871
1865.728557,135.57087521362732
1868.643751,25.075287314127372
1871.555648,-39.036561475707515
1874.46426,-7.395165232570681
1877.369599,11.459543223775304
1880.271679,-8.881564585380175
1883.170512,35.724786927758466
1886.06611,-51.69791265730032
1888.958487,31.30977374322187
1891.847655,-4.509436399011651
1894.733626,-93.41282631200572
1897.616414,21.11965806172384
1900.496032,24.910921781424634
1903.372491,-18.5823962253583
1906.245805,9.086104339977357
1909.115987,9.395702101492333
1911.983049,-0.45192684324742927
1914.847004,33.91522621144007
1917.707866,21.202983091025896
1920.565646,128.27298272984135
1923.420359,10.63573800167524
1926.272016,105.21757015246956
1929.120631,109.7632074223279
1931.966216,-73.18907247386687
1934.808786,0.1375266471617913
1937.648351,14.472621438059734
1940.484927,31.668440490649623
1943.318525,7.483567155234364
1946.149158,109.12092463382788
1948.97684,5.036537801440848
1951.801584,-26.186501188753425
1954.623403,32.43460491229041
1957.44231,-3.4124199912837705
1960.258318,-17.544475680975562
1963.071439,-32.37670340550806
1965.881688,-26.702839780513166
1968.689078,8.323577905382713
1971.493621,41.28312658809442
