Raman shift cm-1,4ATP_100pM_rep3_acc4_processed_intensity
-93.47115107,115.78453391540813
-87.69374369,21.6173983210453
-81.9253076,-20.663732460149713
-76.16582701,-2.3980370769927664
-70.41528615,31.519027417395726
-64.67366933,37.85447005145342
-58.94096086,17.058407281286136
-53.21714512,-8.87492643968777
-47.50220652,-11.453862443852586
-41.79612954,36.02173857710079
-36.09889866,110.14571020138956
-30.41049843,132.44175804114985
-24.73091343,70.79942527680191
-19.0601283,-1.7569114271344688
-13.39812769,-14.485694630506941
-7.744896327,1.9150692403129028
-2.100418946,-2.441422384638372
3.535319659,-5.154285231652352
9.162334658,21.16708186079933
14.78064118,44.98866180795062
20.39025432,35.26059431469662
25.99118913,14.540349557813443
31.58346061,20.400762459030148
37.16708375,42.67730473655797
42.74207347,40.69094101327096
48.30844468,10.293676659421067
53.86621222,-20.64707513348435
59.41539093,-24.433269652373042
64.95599558,4.48464655405985
70.48804091,15.469318449100115
76.01154164,-23.88807906347597
81.52651243,-47.18071080077095
87.03296792,-15.335555250970174
92.5309227,7.570218759744876
98.02039134,-2.149820550445611
103.5013884,2.917585352349647
108.9739282,19.93615007312758
114.4380255,18.718541757918047
119.8936944,12.715903005269638
125.3409495,9.147232882603475
130.779805,1.4760957983903609
136.2102753,2.9268829657046354
141.6323747,15.976112951178266
147.0461174,47.26809229755463
152.4515176,120.1878899507467
157.8485895,207.82233033848365
163.2373472,254.34411062916843
168.6178049,271.04118971455296
173.9899766,323.2699388360288
179.3538764,425.456178341587
184.7095182,508.5005738277389
190.0569161,522.6094166457211
195.396084,511.76426608831525
200.7270358,542.1200297472553
206.0497854,614.4217374619211
211.3643466,691.2347781990806
216.6707333,763.1822965054259
221.9689593,830.1985477192026
227.2590382,878.1624935962171
232.5409839,912.9799349926689
237.8148101,949.0135435036667
243.0805303,998.1312652521658
248.3381582,1089.5708304396062
253.5877075,1210.6971993987158
258.8291917,1292.777133857507
264.0626244,1322.617483547594
269.288019,1348.7191119658328
274.5053891,1381.6323099630954
279.7147481,1415.883334992027
284.9161094,1474.5748714214797
290.1094865,1512.1717378572034
295.2948927,1384.5575220944318
300.4723414,1020.2609557485554
305.6418459,541.7346783075533
310.8034194,159.50765545673116
315.9570752,-15.253282319780688
321.1028267,-27.514570287267432
326.2406869,7.463307312768964
331.370669,10.558640260066284
336.4927863,-7.815369077425007
341.6070517,3.1714928296786553
346.7134786,44.308698462780725
351.8120798,77.44716746539295
356.9028684,89.34364048969195
361.9858576,98.53090630211912
367.0610602,122.02246876510732
372.1284892,184.25400616964373
377.1881577,406.60062185758954
382.2400784,947.9534187004147
387.2842644,1691.2066183205961
392.3207284,2178.7015842392557
397.3494833,2055.8662344823706
402.370542,1451.497326395727
407.3839172,809.9130718216724
412.3896217,420.783038974797
417.3876683,231.9321935005761
422.3780697,102.17827381713661
427.3608386,13.903321416825268
432.3359876,-8.95813308902537
437.3035295,9.828128101673887
442.2634769,20.79434496456213
447.2158423,-4.865392495110058
452.1606383,-29.801055271971073
457.0978776,-1.3490149887005742
462.0275727,45.50283872170812
466.9497361,38.48098489356856
471.8643802,0.8454420742345139
476.7715176,15.42469009380925
481.6711608,77.31356431208411
486.5633221,105.02062700734285
491.448014,74.49271779308427
496.3252488,29.479057662620388
501.195039,2.732934670667902
506.0573969,-3.722445436506751
510.9123349,-3.7079290519581427
515.7598651,6.032293160504086
520.6,53.28784051307602
525.4327518,118.51971142256878
530.2581327,141.09438853864575
535.076155,134.41868511719335
539.8868309,172.00665736959365
544.6901726,256.0272734297546
549.4861922,312.10541067370883
554.2749019,300.7276522393965
559.0563139,258.5226218912409
563.8304402,244.19789130790042
568.597293,259.8804186408237
573.3568844,227.0854548835237
578.1092263,105.29360068173563
582.8543308,-5.920584414508596
587.5922101,-2.2766053402289046
592.322876,69.76734313327425
597.0463405,103.05502113965767
601.7626157,80.06060680113941
606.4717135,52.96767041073829
611.1736458,52.39765507172225
615.8684246,73.26357616672519
620.5560617,77.66291410615814
625.2365691,20.978679553816754
629.9099585,-36.95703143956564
634.5762419,11.818118919927013
639.2354312,106.570278175996
643.887538,115.94496765045636
648.5325743,84.77516083782176
653.1705518,98.58149051440427
657.8014823,97.22936238820508
662.4253775,38.580063650570864
667.0422493,4.060225084384098
671.6521092,35.000054275164565
676.2549691,75.43427724667092
680.8508407,89.54597852162458
685.4397355,81.95544579228923
690.0216654,45.82316024710099
694.5966419,-0.9993231275131151
699.1646767,-12.063623579687489
703.7257814,3.49364408484729
708.2799676,13.716976245255342
712.827247,41.52325207897357
717.367631,86.47518445020692
721.9011314,93.31114156502792
726.4277595,59.27805402365152
730.9475271,28.142508553836016
735.4604456,11.005010372256907
739.9665264,7.389249497240071
744.4657813,16.897964324861803
748.9582215,10.168456039906914
753.4438587,-27.103618054233415
757.9227042,-40.67984054597126
762.3947696,21.491337154725624
766.8600662,102.14385876040491
771.3186056,116.47021969904753
775.770399,102.63265116238597
780.215458,112.21726958236803
784.6537939,98.62895972670228
789.0854181,92.7572470688621
793.510342,196.5015767040817
797.9285769,336.93783473918535
802.3401342,362.719315556525
806.7450253,289.96185311818704
811.1432614,226.0806941248858
815.5348538,214.79167677782982
819.9198139,239.6358713717825
824.2981531,260.68731636884064
828.6698824,240.65635405624036
833.0350133,185.53489556291376
837.393557,141.10552158387154
841.7455248,133.04619410143007
846.0909278,132.8473963149441
850.4297774,87.94288561060458
854.7620848,-1.1748178133734655
859.0878611,-41.20483495927302
863.4071176,22.02189203630525
867.7198655,85.19244221795171
872.026116,60.428049309138245
876.3258802,16.292449267991685
880.6191693,15.118273242647065
884.9059946,29.535676298009772
889.186367,38.053970304335564
893.4602979,45.26923493535032
897.7277982,64.09155134843567
901.9888793,84.69384219619936
906.2435521,52.53338828499362
910.4918277,-15.209340653847388
914.7337174,-0.970068090367235
918.9692321,98.48163921063339
923.1983831,144.16444487397465
927.4211813,120.32022253674057
931.6376378,134.45724953368708
935.8477637,167.07339567896886
940.0515701,133.42278718182826
944.249068,73.1113503543697
948.4402684,57.18398803685283
952.6251825,80.33824598433497
956.8038212,110.97886192909809
960.9761955,120.72761310317142
965.1423166,101.22544901404476
969.3021953,85.57680994316848
973.4558427,105.22397092445917
977.6032699,142.60348972974106
981.7444877,145.44139511248892
985.8795072,87.76258173138119
990.0083394,15.347608792431444
994.1309953,-8.495465649279836
998.2474857,17.564332784945243
1002.357822,64.46947853442695
1006.462014,110.08859955990052
1010.560075,109.15815830057198
1014.652013,42.665376315050125
1018.737841,-19.611695924255464
1022.81757,-19.91653596559601
1026.891209,4.046831473113085
1030.958771,14.043072391787412
1035.020266,28.190970724343575
1039.075705,41.865363323930865
1043.1251,21.333848834659545
1047.16846,-12.921134257420658
1051.205797,-6.426420546631
1055.237121,41.63725160222298
1059.262444,113.04161666043711
1063.281777,264.2065740697045
1067.295131,573.9502867925596
1071.302515,1021.8590042461169
1075.303942,1446.8972174968453
1079.299422,1593.8164755176267
1083.288966,1323.6887045737512
1087.272585,805.5097684668738
1091.250289,348.5917307048717
1095.222091,117.6049240874319
1099.187999,72.48568332416933
1103.148026,62.10864065260577
1107.102183,8.829148843437103
1111.050479,-11.800390137629854
1114.992927,36.027229965984574
1118.929536,73.45277744964724
1122.860318,92.21533587149018
1126.785283,168.33547096282996
1130.704443,308.9363213013706
1134.617808,457.9640799722787
1138.52539,567.2952793419267
1142.427198,585.9788867306194
1146.323244,494.7329409259905
1150.213538,364.4736828709916
1154.098093,278.3411754637909
1157.976917,240.9660460210229
1161.850023,216.51150899545573
1165.717421,188.67066087638327
1169.579121,187.07670314645048
1173.435135,252.86581364014387
1177.285474,354.08930254134117
1181.130148,411.9690435806783
1184.969169,397.3842837332169
1188.802547,322.1579234726946
1192.630292,198.52065907201276
1196.452416,70.96993883012105
1200.26893,15.475430754668757
1204.079844,46.19920423834301
1207.88517,86.25858739924537
1211.684917,74.34141040030387
1215.479098,32.0131557501528
1219.267722,-0.8791945863765562
1223.050801,-18.13971396689003
1226.828346,-2.6824808375770175
1230.600366,68.47167921936537
1234.366874,138.60591950448782
1238.12788,134.342709523158
1241.883395,114.34528112637884
1245.633429,158.2983787621106
1249.377994,185.5962211976452
1253.1171,108.66023418024453
1256.850759,10.011135472433716
1260.578981,-10.731200143414851
1264.301776,14.898085053878916
1268.019157,16.417113631862282
1271.731133,-5.181838153511105
1275.437715,-0.009153260274565866
1279.138915,37.113346625342956
1282.834743,50.34278708254457
1286.52521,16.121372379383345
1290.210328,-22.648638594296614
1293.890106,-28.517175409449976
1297.564555,4.172354890151411
1301.233688,80.05937939981527
1304.897514,169.0961168484702
1308.556044,182.47302719888393
1312.209289,95.56182076909118
1315.857261,19.815138761747633
1319.499969,38.69339974271068
1323.137425,79.0301376580336
1326.769641,44.64596964045017
1330.396626,-17.213565992701504
1334.018391,-7.670346231098063
1337.634948,37.21721127482218
1341.246307,31.672088495532492
1344.85248,4.0626851224306115
1348.453477,1.7872042889969606
1352.049309,5.260847464869734
1355.639987,19.0108954247702
1359.225522,62.841748270598615
1362.805925,97.97091338592548
1366.381207,102.63522873225602
1369.951379,121.70223600322518
1373.516452,168.35070057441996
1377.076436,212.66642750685165
1380.631343,270.9591703532718
1384.181184,358.40257166528926
1387.725969,404.4331690236784
1391.26571,347.2750998812965
1394.800417,236.11451176447528
1398.330102,151.80170591338143
1401.854776,107.35757401021289
1405.374448,68.06434096365209
1408.889132,10.935047460361364
1412.398837,-33.05211886568326
1415.903574,1.146160774068985
1419.403355,112.80339190238692
1422.89819,228.4103004448416
1426.388091,307.38724291670707
1429.873069,343.0265696645866
1433.353134,311.0588965494076
1436.828298,207.67364984184746
1440.298571,84.11257514052296
1443.763965,13.326163779666107
1447.224491,18.43201967036415
1450.68016,34.188656375802076
1454.130983,-1.6864796879513229
1457.576971,-42.500716640743505
1461.018135,-23.627687889447092
1464.454486,11.210999206180732
1467.886036,9.293895110344963
1471.312794,5.717454682794935
1474.734774,18.265394040022493
1478.151985,16.188835130695285
1481.564439,3.7401759603601583
1484.972146,1.1172372056047575
1488.375119,4.1880201331164315
1491.773368,1.618013848840345
1495.166904,-8.254081759688262
1498.555739,-12.846510991614224
1501.939883,-12.021121247966065
1505.319349,2.9280028205263076
1508.694146,68.56345887372
1512.064286,141.1703771029198
1515.429781,132.40808304995832
1518.790642,82.49670365330277
1522.146879,57.01155396643522
1525.498505,20.54767251675842
1528.845529,-6.179235090590286
1532.187965,51.18254460773819
1535.525822,118.09701971482906
1538.859112,74.2196170238779
1542.187846,-11.028119752141414
1545.512036,1.9631888726448814
1548.831693,87.65723304295564
1552.146829,135.1416639978898
1555.457453,139.37678544093788
1558.763579,159.8440660904516
1562.065216,210.01854344535505
1565.362377,283.7704308155742
1568.655073,374.1737755368538
1571.943315,450.3115510443329
1575.227114,503.5824692196012
1578.506482,571.5997823343113
1581.781431,674.0820628603803
1585.051971,782.4817078120495
1588.318114,850.2681902618062
1591.579872,822.0479875228431
1594.837255,669.7782027259206
1598.090275,460.8446699289002
1601.338945,275.4446434525477
1604.583274,107.1098571482728
1607.823275,-2.1858980863950324
1611.058959,19.7257742284095
1614.290338,49.62513525541519
1617.517422,-17.678978893117403
1620.740224,-38.82579035193887
1623.958755,33.51723563888258
1627.173027,61.067417271547676
1630.38305,37.42765020002186
1633.588838,30.256757764144076
1636.7904,21.220664044516482
1639.987749,5.233726971375248
1643.180896,6.096349539191991
1646.369853,20.376519564945752
1649.554632,31.580231736055296
1652.735244,16.380540168810498
1655.9117,-13.664991828587908
1659.084013,-8.737829976643098
1662.252193,17.271353672480487
1665.416254,9.482772070850302
1668.576205,-10.060635880990837
1671.732059,-2.475502394133141
1674.883828,0.7811739578082166
1678.031523,-14.75394385073217
1681.175157,-4.626714576890482
1684.314739,39.41501134700877
1687.450284,69.43316699593248
1690.581801,66.33173653764135
1693.709304,70.25009307385572
1696.832803,109.73774382210684
1699.952311,148.2224843957778
1703.067839,152.39224406210758
1706.179399,147.67428613043512
1709.287003,147.1780454984852
1712.390663,134.700867188958
1715.49039,112.88902370830348
1718.586197,72.31040159802842
1721.678095,9.310972059103875
1724.766096,-24.596082876346983
1727.850213,-10.70513757916541
1730.930456,2.3352176804183387
1734.006838,7.880467508030776
1737.079372,42.54906186247649
1740.148067,92.50436869704268
1743.212938,110.87436748896856
1746.273996,93.33356267806471
1749.331252,77.50892543565008
1752.384718,89.38205319946857
1755.434408,124.530659538018
1758.480332,152.66905767281148
1761.522503,127.14467959744222
1764.560933,55.92736934313197
1767.595634,12.340072570673994
1770.626618,9.146859017511698
1773.653896,-0.050225918029968675
1776.677482,-2.9187230511271407
1779.697388,13.964157754070484
1782.713625,6.599155140859704
1785.726205,-17.97130477389259
1788.735141,-13.127204312447997
1791.740445,10.234048512336837
1794.742129,41.69604438629152
1797.740206,91.41122228714035
1800.734687,122.12782005428265
1803.725585,117.53567786550587
1806.712912,116.91035544666988
1809.69668,100.94075413286367
1812.676902,33.70079465802324
1815.65359,-20.88711374094748
1818.626756,-12.076675159165534
1821.596413,9.23525311391678
1824.562573,17.862808812448215
1827.525247,39.903838439043525
1830.48445,51.58501534619304
1833.440192,22.150648501092597
1836.392487,-14.457399731888191
1839.341347,-13.303448875692618
1842.286784,33.08724520884337
1845.22881,88.54965956222017
1848.167439,97.76598576260405
1851.102682,54.46563080216271
1854.034553,8.491795056086529
1856.963063,3.1950791895687214
1859.888226,41.30911075306085
1862.810053,87.409906886919
1865.728557,95.92877000763117
1868.643751,51.35099431392463
1871.555648,-4.4594606948842
1874.46426,5.538122937728414
1877.369599,83.54914985871325
1880.271679,120.33467936935938
1883.170512,62.66013629873519
1886.06611,-4.0980679768673625
1888.958487,-16.05032344456695
1891.847655,-4.241500750196444
1894.733626,5.739840176683227
1897.616414,9.762018017632794
1900.496032,-1.0554487674260216
1903.372491,2.0387473771888303
1906.245805,42.1746724800044
1909.115987,67.62966579362237
1911.983049,49.4489368932291
1914.847004,40.35398097436309
1917.707866,59.544661734952996
1920.565646,66.75235431855788
1923.420359,46.75616554227834
1926.272016,11.178499185780751
1929.120631,-20.674421901565232
1931.966216,-19.29385225908383
1934.808786,11.308465752388475
1937.648351,26.480465287775946
1940.484927,10.140510292945912
1943.318525,-2.8076446638935764
1946.149158,13.32427568502537
1948.97684,33.79361793328471
1951.801584,28.93077805934234
1954.623403,15.973805184112114
1957.44231,12.92770185403466
1960.258318,-3.007232123123
1963.071439,-24.955960586611237
1965.881688,-3.40228862281095
1968.689078,46.14659773850141
1971.493621,70.42794643095871
