Raman shift cm-1,4ATP_10uM_rep3_acc1_processed_intensity
-93.47115107,-7.778669865554207
-87.69374369,93.25778139020005
-81.9253076,-30.62234734962789
-76.16582701,22.819773756530452
-70.41528615,130.7969090283902
-64.67366933,29.49252716040209
-58.94096086,17.81391586553238
-53.21714512,-26.584012013224566
-47.50220652,-10.79269850887323
-41.79612954,27.509428615812567
-36.09889866,-18.827313690076437
-30.41049843,115.76119674123515
-24.73091343,75.44376261977158
-19.0601283,-20.53141687049225
-13.39812769,58.94955586481001
-7.744896327,-3.5153784454098513
-2.100418946,-31.937371792703175
3.535319659,36.235349482473566
9.162334658,35.029057966453024
14.78064118,64.35592605050226
20.39025432,19.59907952687763
25.99118913,-14.456892914908622
31.58346061,51.47807455590225
37.16708375,35.232832467355365
42.74207347,58.06558477705323
48.30844468,5.936682002269549
53.86621222,-54.79460829767049
59.41539093,-30.858757661247864
64.95599558,-38.9279393833981
70.48804091,30.80199839341924
76.01154164,-8.412537739733011
81.52651243,-53.820009706424
87.03296792,16.087608099785484
92.5309227,35.74000766220365
98.02039134,-0.7932569825386508
103.5013884,-3.0544062983669846
108.9739282,28.038926686144805
114.4380255,-35.78745196246609
119.8936944,-23.90903835678614
125.3409495,39.10994424985847
130.779805,23.410743669342992
136.2102753,33.58482785695287
141.6323747,83.61696932473637
147.0461174,134.1044141582313
152.4515176,140.63955763356103
157.8485895,144.90196883412227
163.2373472,197.00722706619285
168.6178049,277.2501490108152
173.9899766,319.9747560879
179.3538764,408.8596948162158
184.7095182,540.2110998939918
190.0569161,581.0463098695409
195.396084,577.1050746381761
200.7270358,656.8446759596768
206.0497854,747.8686723204798
211.3643466,751.6942559910505
216.6707333,866.1072633702025
221.9689593,948.5866889212771
227.2590382,1006.9326719070978
232.5409839,1127.2077707083836
237.8148101,1152.332779026956
243.0805303,1185.962464463707
248.3381582,1261.2890979274678
253.5877075,1400.4012174359086
258.8291917,1485.9826216930314
264.0626244,1566.7016444397364
269.288019,1624.0751815601902
274.5053891,1696.8474426245236
279.7147481,1814.8253482598047
284.9161094,1775.9592017476052
290.1094865,1766.7840636798408
295.2948927,1580.9250602724906
300.4723414,1150.6410192634373
305.6418459,567.6059721375223
310.8034194,36.68392124998637
315.9570752,-44.98458025286844
321.1028267,-33.35142920085456
326.2406869,-28.972418291894524
331.370669,43.29277950130034
336.4927863,13.77429482120677
341.6070517,28.181491423225474
346.7134786,124.86598123266357
351.8120798,181.27304470618316
356.9028684,218.65567698274074
361.9858576,292.54449472483725
367.0610602,434.1213075442424
372.1284892,657.6855618107808
377.1881577,1378.814180604609
382.2400784,2815.0194682870065
387.2842644,4361.751438202804
392.3207284,5086.046249748741
397.3494833,4280.744484506717
402.370542,2858.909816570186
407.3839172,1787.2153698023496
412.3896217,939.465451288453
417.3876683,506.74432314555554
422.3780697,301.09859113173934
427.3608386,186.48760905202542
432.3359876,134.83822203768898
437.3035295,28.016967841892402
442.2634769,58.25210887070358
447.2158423,-27.445364739972376
452.1606383,-23.133398991777312
457.0978776,110.94053360427583
462.0275727,21.337793112015056
466.9497361,21.326159229130198
471.8643802,7.148383817712173
476.7715176,-3.90378761925124
481.6711608,-2.4970202460373976
486.5633221,-58.63680748244553
491.448014,14.889904692707168
496.3252488,18.653945960630736
501.195039,-6.540899686948305
506.0573969,5.030747233552706
510.9123349,21.213791630215738
515.7598651,-11.83255022687402
520.6,2.4357042690523443
525.4327518,10.401371516378866
530.2581327,-65.24230916835367
535.076155,13.172774999711258
539.8868309,30.114073965739593
544.6901726,10.607414115835695
549.4861922,22.29950766841163
554.2749019,27.199199838799146
559.0563139,58.235625792453504
563.8304402,-18.470301792348195
568.597293,27.179678215456768
573.3568844,114.3458671779313
578.1092263,25.566048442345924
582.8543308,-34.37875012244268
587.5922101,-46.392091938966345
592.322876,-22.31514997688614
597.0463405,16.15131724215233
601.7626157,-33.13029034275981
606.4717135,14.10251604205503
611.1736458,77.6268644594254
615.8684246,6.37978172289354
620.5560617,73.30989702224491
625.2365691,71.41415238749588
629.9099585,4.581033248944969
634.5762419,196.17848712685168
639.2354312,324.92006785057043
643.887538,300.13695354028243
648.5325743,147.01426859455418
653.1705518,57.645242806689055
657.8014823,117.88754074006904
662.4253775,-2.517768870297136
667.0422493,-13.478369626710691
671.6521092,39.08040731735852
676.2549691,-24.989375656300925
680.8508407,20.41598455882408
685.4397355,68.94339490767017
690.0216654,28.997830856967514
694.5966419,-4.9637889273110645
699.1646767,135.75000305458363
703.7257814,197.46500202211925
708.2799676,87.45591965304911
712.827247,80.26167820659376
717.367631,6.283618767498974
721.9011314,-79.30562882019967
726.4277595,18.53648350069389
730.9475271,51.5947566696224
735.4604456,-6.564095132622391
739.9665264,36.9994629810479
744.4657813,5.226601261481557
748.9582215,-51.75614633957973
753.4438587,35.43306119810701
757.9227042,21.127915507613643
762.3947696,-2.351647970131097
766.8600662,64.55548791533684
771.3186056,-14.061190169567602
775.770399,9.721871473452595
780.215458,102.15073238406302
784.6537939,68.25250137468927
789.0854181,139.10873882785532
793.510342,175.94956239113588
797.9285769,338.5229968902968
802.3401342,480.5939566513006
806.7450253,393.6612566442667
811.1432614,407.05954714514655
815.5348538,335.1083779166659
819.9198139,354.1183873276748
824.2981531,389.316019648278
828.6698824,218.60627196541117
833.0350133,169.65572558083738
837.393557,167.35321037888093
841.7455248,120.23843443398543
846.0909278,83.9942730248819
850.4297774,32.78168239914797
854.7620848,-49.173245764113204
859.0878611,-41.24942186363616
863.4071176,26.969168509107455
867.7198655,75.31242643750191
872.026116,120.11645167309885
876.3258802,74.41688844792031
880.6191693,36.31613453647838
884.9059946,4.055243730097373
889.186367,-29.050578755176154
893.4602979,14.397410061254806
897.7277982,99.97983229995583
901.9888793,132.5445876936454
906.2435521,38.95685070926886
910.4918277,-31.011965694317155
914.7337174,-15.920132567460271
918.9692321,74.15660009666814
923.1983831,66.24813239665048
927.4211813,-32.294491710750066
931.6376378,5.100754513588697
935.8477637,107.44897146767858
940.0515701,108.5338480640732
944.249068,-27.561022794287766
948.4402684,63.476176185866905
952.6251825,153.7422079112843
956.8038212,27.97231186391093
960.9761955,101.02113083048124
965.1423166,145.12611561733843
969.3021953,115.87480022478718
973.4558427,137.93267368339224
977.6032699,40.934022235192685
981.7444877,34.332327577749595
985.8795072,166.99888352584946
990.0083394,112.61605610234017
994.1309953,99.242944586443
998.2474857,317.18014094179284
1002.357822,437.56552557518717
1006.462014,421.8380683352375
1010.560075,211.64382123340621
1014.652013,-0.36554099042959365
1018.737841,10.431734561651012
1022.81757,-20.627532967111144
1026.891209,0.0862219964118438
1030.958771,104.13277273468503
1035.020266,11.419280837615752
1039.075705,-50.268851176412426
1043.1251,79.83514439260188
1047.16846,184.20629809402587
1051.205797,234.91226721476903
1055.237121,175.8929797689737
1059.262444,217.95080053915842
1063.281777,450.79922375924787
1067.295131,916.1688084771799
1071.302515,2011.018235042353
1075.303942,3220.5381066416
1079.299422,3787.11413359895
1083.288966,3295.778996946297
1087.272585,1897.3718750539522
1091.250289,763.3955393951696
1095.222091,326.20048890602123
1099.187999,184.52487681382857
1103.148026,133.53050223247018
1107.102183,79.54836827934803
1111.050479,-3.5500407704032284
1114.992927,-14.28789242396742
1118.929536,96.34214854514501
1122.860318,14.276523774719202
1126.785283,-63.39725001039931
1130.704443,13.663984670275568
1134.617808,40.73472993209207
1138.52539,158.59405135327387
1142.427198,133.65022758511918
1146.323244,3.435003613811272
1150.213538,-10.331784821122874
1154.098093,18.837615259803762
1157.976917,-4.423581803363113
1161.850023,24.037980823837167
1165.717421,75.5794658708461
1169.579121,22.316055247718957
1173.435135,280.9571305314994
1177.285474,500.65589173201414
1181.130148,481.429852661578
1184.969169,451.69309654555076
1188.802547,208.48274590670712
1192.630292,41.64234780335311
1196.452416,-29.968883600822764
1200.26893,-93.04575082697897
1204.079844,-4.921655340015057
1207.88517,75.23121471941124
1211.684917,29.226237736701858
1215.479098,29.55506580958206
1219.267722,27.35760579755653
1223.050801,-46.159895115696784
1226.828346,11.959433716735948
1230.600366,67.81381166972423
1234.366874,125.37062221726237
1238.12788,178.67912831750874
1241.883395,164.1806803100797
1245.633429,218.96733917698475
1249.377994,216.09792005877142
1253.1171,108.94807704238156
1256.850759,-3.4276020649106087
1260.578981,-3.9047604146632153
1264.301776,88.05488573566888
1268.019157,72.01186652753458
1271.731133,22.16256477305366
1275.437715,2.3071910704462226
1279.138915,-41.662215655008225
1282.834743,8.404260474022685
1286.52521,33.80931458068997
1290.210328,-27.766998087730258
1293.890106,-40.4188298729226
1297.564555,4.013086532279545
1301.233688,41.492541797221854
1304.897514,96.2259027087708
1308.556044,171.1492899668954
1312.209289,82.58984430213995
1315.857261,11.162263654986344
1319.499969,-19.332834740422168
1323.137425,42.2140491741704
1326.769641,130.05109170843124
1330.396626,-1.7955527100255368
1334.018391,11.151605070976508
1337.634948,3.224452593072458
1341.246307,-29.370239458585463
1344.85248,16.728560525510133
1348.453477,-19.98430754586348
1352.049309,-11.365357285276465
1355.639987,-43.76315490259485
1359.225522,-3.1767648420452073
1362.805925,49.916865217489516
1366.381207,11.183413823549031
1369.951379,-15.273672463353208
1373.516452,-1.7915133994055648
1377.076436,19.547382089144588
1380.631343,35.02820908254531
1384.181184,110.42692895654811
1387.725969,77.92386511275691
1391.26571,1.2184113499437572
1394.800417,38.671744078041186
1398.330102,38.412586078008296
1401.854776,11.535978386655273
1405.374448,4.9231440863404465
1408.889132,-50.05019137781725
1412.398837,-65.23990198734062
1415.903574,15.505500098702967
1419.403355,117.56532131277336
1422.89819,112.39555658960482
1426.388091,145.71461925839574
1429.873069,213.00995611252603
1433.353134,129.41527510472537
1436.828298,164.7434696057121
1440.298571,113.59177874692168
1443.763965,11.126965626011497
1447.224491,73.73808134526539
1450.68016,-44.517871207856224
1454.130983,-43.61469683687736
1457.576971,41.171561540776494
1461.018135,-26.082558225252164
1464.454486,23.584097269682978
1467.886036,35.734430823949666
1471.312794,6.198617373761508
1474.734774,16.843326382860695
1478.151985,-0.47007108874822734
1481.564439,81.90429986904454
1484.972146,149.50804705426316
1488.375119,134.16785237371306
1491.773368,170.00815581526032
1495.166904,122.37720540589747
1498.555739,6.994488798378981
1501.939883,-9.398436614191311
1505.319349,6.65843334083428
1508.694146,-6.212858239779042
1512.064286,-30.69520540625747
1515.429781,-0.5894392849913779
1518.790642,30.87912313129496
1522.146879,41.40220967837164
1525.498505,-12.868668665273752
1528.845529,-82.6874687938471
1532.187965,-5.883380669763852
1535.525822,15.608117657776512
1538.859112,41.71515535351429
1542.187846,51.681134535223876
1545.512036,-14.30068627414102
1548.831693,87.9705422174521
1552.146829,68.54840269660666
1555.457453,4.981857889180967
1558.763579,156.0174555879746
1562.065216,264.70915503522383
1565.362377,344.1006022168106
1568.655073,371.82714963799555
1571.943315,484.05827091750916
1575.227114,627.6544335764725
1578.506482,742.1216117751857
1581.781431,1139.0367886031986
1585.051971,1378.0025975564356
1588.318114,1615.829377087991
1591.579872,1819.6308029569338
1594.837255,1515.6129298091178
1598.090275,1070.1242052027872
1601.338945,609.1377243965604
1604.583274,332.97556525156426
1607.823275,82.67451767188413
1611.058959,5.646603449698752
1614.290338,85.80704854901013
1617.517422,-27.086429707603113
1620.740224,61.29434224555337
1623.958755,129.95580796818783
1627.173027,42.170279712444476
1630.38305,-38.585842393246445
1633.588838,-25.437752211770945
1636.7904,10.970559127260415
1639.987749,19.164711840865145
1643.180896,56.65292179866506
1646.369853,6.099890402709143
1649.554632,8.944310673691767
1652.735244,16.61379082150969
1655.9117,22.00613335309945
1659.084013,14.514276995275683
1662.252193,-17.75568698997603
1665.416254,-8.85741903985517
1668.576205,-37.18493713262467
1671.732059,21.007749446457495
1674.883828,70.99720344870221
1678.031523,-45.308200608957485
1681.175157,-15.46061578734295
1684.314739,102.46566797985301
1687.450284,22.512904110321063
1690.581801,24.06636841447433
1693.709304,20.968565586143278
1696.832803,10.220690027097056
1699.952311,130.91977432908556
1703.067839,190.97257010400182
1706.179399,151.2041782589441
1709.287003,58.99897869707196
1712.390663,108.41481639444783
1715.49039,72.95342076129303
1718.586197,5.892830339520614
1721.678095,-13.314043864489548
1724.766096,-79.97531421142034
1727.850213,12.171694998742659
1730.930456,5.475499072996087
1734.006838,-4.869112287749758
1737.079372,9.106045772575053
1740.148067,-56.530102695737384
1743.212938,23.975751916695124
1746.273996,41.94522781623617
1749.331252,12.877791414801468
1752.384718,35.7387663956881
1755.434408,-25.58781932475018
1758.480332,-8.25874111896442
1761.522503,33.71115419294496
1764.560933,28.84297678314639
1767.595634,10.953255310109906
1770.626618,-5.893286133782166
1773.653896,-5.227256265165389
1776.677482,-43.85586936573945
1779.697388,41.29391207242855
1782.713625,18.242265457656345
1785.726205,-57.26900726473374
1788.735141,-43.50748809367787
1791.740445,-36.12397221535271
1794.742129,15.889574544919336
1797.740206,-9.359811379439199
1800.734687,64.60070980381002
1803.725585,38.14494278238468
1806.712912,17.352083027002763
1809.69668,103.35496663850691
1812.676902,13.088931986173094
1815.65359,5.583055221549792
1818.626756,13.91776685849373
1821.596413,17.60378189488887
1824.562573,6.079518804840769
1827.525247,-8.205031612126895
1830.48445,30.422921672303755
1833.440192,-67.83092252563247
1836.392487,-25.02113306964798
1839.341347,58.921604742571915
1842.286784,-28.899225997482727
1845.22881,35.35465632594642
1848.167439,92.82019188385792
1851.102682,12.017962572336423
1854.034553,-26.126123452260313
1856.963063,34.43812747639811
1859.888226,71.80622896592439
1862.810053,-7.898806618869443
1865.728557,35.432666081713606
1868.643751,28.706248623131263
1871.555648,-77.90060017048631
1874.46426,12.698942988119256
1877.369599,84.42015911160644
1880.271679,56.92408565754041
1883.170512,-1.1766705317560842
1886.06611,-15.120088484921716
1888.958487,21.5411148838288
1891.847655,28.29489010761251
1894.733626,98.89720034102032
1897.616414,9.91202896206677
1900.496032,-82.47517881794175
1903.372491,-2.9655360342397863
1906.245805,-8.395406253175592
1909.115987,32.306348085315086
1911.983049,7.098238497816949
1914.847004,23.398908894741766
1917.707866,136.33203232917586
1920.565646,53.45658631679033
1923.420359,-15.945769490279734
1926.272016,-2.6617553973888657
1929.120631,24.65068454781624
1931.966216,49.52180408171628
1934.808786,39.68610394218628
1937.648351,-26.672911773415994
1940.484927,-20.2886443352267
1943.318525,110.70565690766539
1946.149158,76.38403837687552
1948.97684,-16.181250941362055
1951.801584,88.88495184258355
1954.623403,105.13113463675624
1957.44231,19.132960326052984
1960.258318,76.22676772867186
1963.071439,7.7761117398360255
1965.881688,-50.40055891318934
1968.689078,78.36728581797487
1971.493621,32.721637636749534
