Raman shift cm-1,4ATP_10pM_rep3_acc4_processed_intensity
-93.47115107,18.16578036012352
-87.69374369,23.57934200338762
-81.9253076,5.674607167715257
-76.16582701,-23.166406318057714
-70.41528615,-26.622616093313468
-64.67366933,-3.8924241905664303
-58.94096086,0.6200718652413855
-53.21714512,-15.369744313012859
-47.50220652,-9.538804937238154
-41.79612954,2.5856346278361
-36.09889866,-7.4732775220783765
-30.41049843,-7.361307934919921
-24.73091343,8.186701042174207
-19.0601283,11.471945152958142
-13.39812769,15.824206363157657
-7.744896327,22.137109385739393
-2.100418946,3.9082362844008003
3.535319659,-19.05844136766234
9.162334658,-13.15681717261532
14.78064118,6.402937526894789
20.39025432,16.92958207816298
25.99118913,21.165253383087816
31.58346061,14.983974443396164
37.16708375,-10.058529190108743
42.74207347,-38.07456481130464
48.30844468,-42.28441079578204
53.86621222,-18.322497463489526
59.41539093,3.6194855101574603
64.95599558,6.065260854933854
70.48804091,10.74217181886172
76.01154164,16.286955613355644
81.52651243,10.601085399581166
87.03296792,24.151529597640547
92.5309227,70.4965108174822
98.02039134,121.75727274064752
103.5013884,150.33882869200397
108.9739282,144.90083310352884
114.4380255,143.9303679586469
119.8936944,194.3781452599551
125.3409495,257.71556512119605
130.779805,278.8326728173872
136.2102753,292.0774921838697
141.6323747,346.38991694741776
147.0461174,411.4089431199718
152.4515176,442.76382658718967
157.8485895,466.2959407660235
163.2373472,530.1838219464746
168.6178049,625.4085606690804
173.9899766,710.4371771496918
179.3538764,776.6282191821804
184.7095182,831.3199300412342
190.0569161,867.361890670113
195.396084,905.1705540738214
200.7270358,972.87034971727
206.0497854,1034.834111728321
211.3643466,1058.3330064247182
216.6707333,1085.942086024073
221.9689593,1152.1290894695665
227.2590382,1226.4800378709447
232.5409839,1278.7991581173028
237.8148101,1326.035599390124
243.0805303,1393.357953136166
248.3381582,1478.8010684474411
253.5877075,1574.830416023068
258.8291917,1664.9536275423156
264.0626244,1712.0206773847592
269.288019,1721.3541611561473
274.5053891,1747.8263883392726
279.7147481,1805.0614297501725
284.9161094,1856.727479297936
290.1094865,1837.2375309913132
295.2948927,1630.828061213684
300.4723414,1173.7043133825077
305.6418459,598.9654176958219
310.8034194,167.2132494074001
315.9570752,18.09610029682112
321.1028267,50.17797988114931
326.2406869,87.22963486897855
331.370669,57.386438208796214
336.4927863,-9.70232392117077
341.6070517,-38.18477437439604
346.7134786,9.076154882831023
351.8120798,75.87479778428067
356.9028684,100.06044566035885
361.9858576,92.87578432986224
367.0610602,105.7722336436261
372.1284892,193.72960072903766
377.1881577,435.26773396487255
382.2400784,902.8515137889442
387.2842644,1487.8367976286454
392.3207284,1860.1859714764637
397.3494833,1779.446970328958
402.370542,1335.0504156036857
407.3839172,811.9510160451129
412.3896217,436.8184114962496
417.3876683,238.76260751843006
422.3780697,114.43447459140657
427.3608386,17.956545703715932
432.3359876,-17.918005629015106
437.3035295,-10.695767361896422
442.2634769,-1.9218990063374193
447.2158423,24.512278591294383
452.1606383,55.655996452287646
457.0978776,34.647300679542916
462.0275727,-4.6564965772424465
466.9497361,12.124345113817466
471.8643802,63.62531325957988
476.7715176,100.80635711796738
481.6711608,120.32695303558285
486.5633221,115.57794428306543
491.448014,87.01272036615671
496.3252488,60.63075890700534
501.195039,36.91799016245509
506.0573969,4.455890091531794
510.9123349,-17.69173289451981
515.7598651,-15.222536910923107
520.6,5.333733614689461
525.4327518,48.52094919595449
530.2581327,90.35592912179952
535.076155,67.616818293321
539.8868309,15.873863670088227
544.6901726,50.83206505954844
549.4861922,146.4823793119977
554.2749019,166.8137908289295
559.0563139,88.60553030557682
563.8304402,10.234333167771943
568.597293,-5.688612799023101
573.3568844,1.0337357087196768
578.1092263,3.456760226182598
582.8543308,48.23078481823068
587.5922101,107.33570960708907
592.322876,80.8469778490446
597.0463405,5.139846629503662
601.7626157,4.807473930701402
606.4717135,68.36109913626986
611.1736458,107.22529156770148
615.8684246,122.94920024694022
620.5560617,108.53703169890485
625.2365691,14.77590708182398
629.9099585,-58.67850919013757
634.5762419,8.08994450135269
639.2354312,103.51601077152483
643.887538,105.57518300299408
648.5325743,84.2082635900457
653.1705518,90.46718488071886
657.8014823,75.38501354037084
662.4253775,52.26510775368801
667.0422493,74.75133068069054
671.6521092,96.41781627726152
676.2549691,55.548942858160146
680.8508407,5.323746554481126
685.4397355,-0.8374594550385268
690.0216654,8.178895971226162
694.5966419,24.259288048593444
699.1646767,66.25996508549903
703.7257814,106.69818223800527
708.2799676,102.99907018183649
712.827247,68.99284342239665
717.367631,54.01599845721036
721.9011314,44.84057312461745
726.4277595,0.02120253462946664
730.9475271,-34.69235914969079
735.4604456,-8.766433994900279
739.9665264,31.8068776669302
744.4657813,38.1579336296617
748.9582215,21.056590151597796
753.4438587,4.489246407863147
757.9227042,-0.8639761805480433
762.3947696,-4.9843983351144905
766.8600662,-13.118329381435894
771.3186056,5.52646221545113
775.770399,51.61693738080539
780.215458,56.98340308740704
784.6537939,10.892410665739492
789.0854181,3.533434609579203
793.510342,64.04405777508099
797.9285769,127.4705791900842
802.3401342,161.58123514453234
806.7450253,162.47261720618724
811.1432614,114.42585882127725
815.5348538,43.172028171445454
819.9198139,8.926123373441392
824.2981531,34.671298486212436
828.6698824,89.13782605368687
833.0350133,115.19737371563109
837.393557,77.39295311066965
841.7455248,15.764975022313044
846.0909278,-3.086023353785553
850.4297774,5.716376081008036
854.7620848,-9.238878165219099
859.0878611,-32.05212390875074
863.4071176,-14.12272486363561
867.7198655,41.30672844711447
872.026116,68.77102640420634
876.3258802,32.62556626224475
880.6191693,-6.138392559917445
884.9059946,0.1726917279457041
889.186367,9.160525573296242
893.4602979,4.576473932354284
897.7277982,22.749141311024914
901.9888793,44.943653344312246
906.2435521,36.93879225541284
910.4918277,18.66697147361054
914.7337174,-1.2770429145648308
918.9692321,-19.93987833250172
923.1983831,-0.2770084465730349
927.4211813,50.37468059189907
931.6376378,71.25342423277652
935.8477637,51.19696526805477
940.0515701,31.33762448922886
944.249068,13.742195732312286
948.4402684,-19.788845144560103
952.6251825,-17.091406997476742
956.8038212,53.4684066278833
960.9761955,91.97678530298175
965.1423166,39.13203623402671
969.3021953,-6.988024696483196
973.4558427,11.40349330932722
977.6032699,25.41509045054183
981.7444877,8.914590827162982
985.8795072,17.040711645596748
990.0083394,50.929010510441536
994.1309953,59.96169160747489
998.2474857,56.01894427930597
1002.357822,73.99362621163829
1006.462014,70.61785587132248
1010.560075,6.78921982293083
1014.652013,-54.814725499691775
1018.737841,-53.692912007743175
1022.81757,-14.891928713683308
1026.891209,17.72933396944265
1030.958771,23.150782830011053
1035.020266,13.437411855170614
1039.075705,19.628107812562895
1043.1251,22.615495945876248
1047.16846,0.11621887812820297
1051.205797,-8.750491762450956
1055.237121,-0.6481459926109476
1059.262444,14.992900586618962
1063.281777,139.52126235007395
1067.295131,451.39101600221056
1071.302515,836.5545096720331
1075.303942,1093.3718862065036
1079.299422,1104.1948073031167
1083.288966,877.9398055514448
1087.272585,518.3066757902334
1091.250289,174.37624043272817
1095.222091,-21.229876957260416
1099.187999,-39.14684535065062
1103.148026,15.374371030221669
1107.102183,38.83399190092
1111.050479,34.60425917983409
1114.992927,19.88445410041069
1118.929536,-3.2820941805526047
1122.860318,4.683990680270099
1126.785283,57.86533816789391
1130.704443,158.0672574314726
1134.617808,329.27206496878335
1138.52539,475.3129430233939
1142.427198,447.53704625620463
1146.323244,299.17852906436974
1150.213538,184.13012855436335
1154.098093,140.24594006470545
1157.976917,145.19198726443094
1161.850023,171.11089060257024
1165.717421,178.1028132100554
1169.579121,183.2983857215877
1173.435135,220.94036010818834
1177.285474,261.3595852718136
1181.130148,284.7263750966579
1184.969169,289.0240416031243
1188.802547,227.09060708002127
1192.630292,112.71762544258257
1196.452416,55.33847671957778
1200.26893,74.58882119935451
1204.079844,81.45657982801532
1207.88517,49.848475768120615
1211.684917,23.19603231680333
1215.479098,14.277257188660261
1219.267722,-4.176752608968995
1223.050801,-32.4085602113939
1226.828346,2.6439380350872064
1230.600366,117.82813991265652
1234.366874,175.2468291821114
1238.12788,121.86540134280285
1241.883395,105.50808111024496
1245.633429,169.40202862290275
1249.377994,182.69569025932174
1253.1171,139.46033297233993
1256.850759,138.04760162290785
1260.578981,146.59352040081197
1264.301776,97.99061232023223
1268.019157,30.66824255798125
1271.731133,-6.653227327520614
1275.437715,-12.97635377011607
1279.138915,2.6378487946486544
1282.834743,22.18525761129305
1286.52521,15.891271946387322
1290.210328,-13.522607046632686
1293.890106,-16.387286016626096
1297.564555,33.33669010691583
1301.233688,107.05243907669926
1304.897514,152.85731236811728
1308.556044,119.12909493953529
1312.209289,22.219936982732065
1315.857261,-32.90805266889948
1319.499969,16.012735236095246
1323.137425,93.7064100174258
1326.769641,92.49182146193738
1330.396626,23.12500821030917
1334.018391,-26.2179551127834
1337.634948,-20.657787416341
1341.246307,14.54691840608631
1344.85248,41.29071359026459
1348.453477,34.75305489982874
1352.049309,6.933232820715187
1355.639987,-8.777729107651155
1359.225522,8.7486429800149
1362.805925,40.934875864043796
1366.381207,41.36746088254192
1369.951379,13.819452285357166
1373.516452,0.5317921687388001
1377.076436,9.131540665328323
1380.631343,57.7090413950602
1384.181184,159.57725554335877
1387.725969,234.57442591509644
1391.26571,218.33139740595115
1394.800417,177.13774356090173
1398.330102,170.69906786155065
1401.854776,143.5878531047798
1405.374448,60.35255186400778
1408.889132,-11.218704714697033
1412.398837,-13.410009710793211
1415.903574,54.08380961996279
1419.403355,165.76519092693573
1422.89819,261.7361368373917
1426.388091,288.15254239244126
1429.873069,253.5053047316025
1433.353134,205.73179605620868
1436.828298,166.83627311012205
1440.298571,113.55938486285302
1443.763965,44.507232363157854
1447.224491,-1.7442571830941915
1450.68016,-13.194559476349177
1454.130983,-1.051002060381478
1457.576971,17.43749757780786
1461.018135,8.257933918891935
1464.454486,-17.752594554485018
1467.886036,-13.757842041378968
1471.312794,11.392615765463713
1474.734774,30.235078907062032
1478.151985,43.33746515572095
1481.564439,38.69741199699334
1484.972146,16.750885184799266
1488.375119,10.11230668183768
1491.773368,17.608354893950825
1495.166904,10.010763316929353
1498.555739,-10.071481988116783
1501.939883,-26.656138653563374
1505.319349,-22.9411281095285
1508.694146,22.535914422409935
1512.064286,68.38555658308029
1515.429781,47.379085219279126
1518.790642,5.6062259698014785
1522.146879,12.698094100678937
1525.498505,12.793231551475872
1528.845529,-25.407702821899576
1532.187965,-11.941555805493172
1535.525822,47.93140808940943
1538.859112,40.22355516914416
1542.187846,6.171387094508756
1545.512036,56.15510457335938
1548.831693,101.57067720658003
1552.146829,40.48518909593258
1555.457453,-2.6670822634965745
1558.763579,79.25734971827909
1562.065216,194.3560785385343
1565.362377,271.6461159305939
1568.655073,330.8166000056808
1571.943315,356.29301568728425
1575.227114,359.1526324903161
1578.506482,402.56327163406365
1581.781431,487.9129982953725
1585.051971,576.6938495009821
1588.318114,636.0005724343112
1591.579872,606.0137834378625
1594.837255,464.52698601545825
1598.090275,298.82022470172956
1601.338945,183.9987201080641
1604.583274,77.5239974591372
1607.823275,-10.211323009989133
1611.058959,16.251980409989606
1614.290338,66.68016667901779
1617.517422,5.352995110509408
1620.740224,-45.434114156858826
1623.958755,0.6421679529536384
1627.173027,25.558168827301024
1630.38305,18.740717467021323
1633.588838,53.33749045052694
1636.7904,84.41923560378723
1639.987749,74.59355350978271
1643.180896,73.73207876819657
1646.369853,91.00569595030841
1649.554632,77.57344894930088
1652.735244,42.746407295078214
1655.9117,33.912727306690925
1659.084013,19.643306316874316
1662.252193,-24.06585824797283
1665.416254,-18.412446478952425
1668.576205,53.8975915826674
1671.732059,93.15442748482107
1674.883828,70.775101419826
1678.031523,41.83117258982305
1681.175157,12.674774658780763
1684.314739,-11.311569803808014
1687.450284,11.600548090461817
1690.581801,40.825462633477265
1693.709304,11.24498064296073
1696.832803,-3.127156705274029
1699.952311,64.42489024529478
1703.067839,108.09290878984929
1706.179399,54.87251920837839
1709.287003,-1.709904251553617
1712.390663,1.9161269498161033
1715.49039,18.86408537173861
1718.586197,14.360237882972392
1721.678095,-7.67807882910251
1724.766096,-35.602833260198686
1727.850213,-37.46342323418739
1730.930456,0.9186093484431481
1734.006838,31.6872129062005
1737.079372,22.11005604014955
1740.148067,19.149435143259872
1743.212938,48.36510344264113
1746.273996,67.54752518028369
1749.331252,75.79361414256246
1752.384718,96.22365473186795
1755.434408,89.57158381908636
1758.480332,43.366894827563854
1761.522503,9.338773691756256
1764.560933,-5.588382447223319
1767.595634,-15.011156794827203
1770.626618,7.646476608318351
1773.653896,44.57241573866872
1776.677482,34.73922858943752
1779.697388,-5.969733617947401
1782.713625,-5.171165535878289
1785.726205,39.365441999629795
1788.735141,53.85280033662176
1791.740445,14.589427423058167
1794.742129,-4.082408568710636
1797.740206,41.13493177041358
1800.734687,84.83010833480414
1803.725585,74.45848571176847
1806.712912,44.235871499001945
1809.69668,24.752982825309026
1812.676902,8.734321372519766
1815.65359,-3.0764254470127925
1818.626756,-10.639823339098935
1821.596413,-19.474630536728505
1824.562573,-12.438981151618973
1827.525247,11.925222243583312
1830.48445,12.430404829897663
1833.440192,-12.743348219472116
1836.392487,-17.358141568976166
1839.341347,-0.7371401581892627
1842.286784,17.649476606249877
1845.22881,39.78163297802299
1848.167439,35.42460708915468
1851.102682,-0.6677971364016511
1854.034553,-1.13656803796313
1856.963063,39.59659890736684
1859.888226,57.17650199537943
1862.810053,50.93588120816266
1865.728557,46.483724550424995
1868.643751,21.752213296089884
1871.555648,-18.636462875586354
1874.46426,-18.65523136718089
1877.369599,25.0681516221369
1880.271679,45.141065755871665
1883.170512,19.689742957713307
1886.06611,4.341090875677054
1888.958487,19.965102826937336
1891.847655,7.19407047536961
1894.733626,-46.70119420090752
1897.616414,-52.36043417856074
1900.496032,14.546467449650814
1903.372491,58.82909256816535
1906.245805,38.52466281257888
1909.115987,8.63848676998579
1911.983049,16.579218188800986
1914.847004,57.7678460148026
1917.707866,73.06875430842524
1920.565646,24.699349662528896
1923.420359,-25.22422791863897
1926.272016,-22.040322421366668
1929.120631,1.9131900684522032
1931.966216,14.365358713750942
1934.808786,10.105601213915321
1937.648351,-5.209735978116498
1940.484927,-2.1084076211102545
1943.318525,13.52988645823783
1946.149158,5.462831013089467
1948.97684,4.497554367355567
1951.801584,36.83507244695703
1954.623403,36.098092632129436
1957.44231,-13.399647132275083
1960.258318,-24.549164422588646
1963.071439,14.553529306216006
1965.881688,23.236846658691153
1968.689078,-3.486731148626177
1971.493621,-13.066585093061946
