Raman shift cm-1,4ATP_100nM_rep2_acc5_processed_intensity
-93.47115107,11.222184453132037
-87.69374369,-14.460369529118733
-81.9253076,-8.581891471419517
-76.16582701,21.257807667625222
-70.41528615,37.130967233182034
-64.67366933,23.374944860370697
-58.94096086,4.12965935932227
-53.21714512,-1.2084199152972452
-47.50220652,1.661185165696054
-41.79612954,14.522833960477247
-36.09889866,47.092230663992
-30.41049843,76.87517699746445
-24.73091343,69.39153555857808
-19.0601283,39.36173184157302
-13.39812769,28.395970125729917
-7.744896327,41.45402827329508
-2.100418946,55.225479608346404
3.535319659,52.369781848475625
9.162334658,28.330203702758162
14.78064118,-0.4797513952668937
20.39025432,-2.043161193341795
25.99118913,32.060191167946996
31.58346061,65.29248273350005
37.16708375,56.72141534471054
42.74207347,13.29612925902425
48.30844468,-22.22090295894894
53.86621222,-22.456509141144533
59.41539093,4.535538823823101
64.95599558,27.9151813357994
70.48804091,24.003107226129117
76.01154164,6.964222767306094
81.52651243,6.874844065077517
87.03296792,14.535608818569075
92.5309227,1.7944329462300106
98.02039134,-10.232954803652454
103.5013884,14.764744134090193
108.9739282,48.09786045082902
114.4380255,45.940782721237724
119.8936944,31.533751949076887
125.3409495,36.63125000298616
130.779805,35.50759657356428
136.2102753,7.017585830467855
141.6323747,-16.752998549850282
147.0461174,-3.959374042550685
152.4515176,35.53119779421083
157.8485895,73.98362161368308
163.2373472,95.12540987196914
168.6178049,96.11025671451527
173.9899766,82.33617967441498
179.3538764,72.03861748886214
184.7095182,83.40121247638938
190.0569161,102.76101645853379
195.396084,101.57632307639443
200.7270358,84.51079986681134
206.0497854,73.60275933721285
211.3643466,64.8848080843386
216.6707333,46.91574230466911
221.9689593,33.876358467493574
227.2590382,38.89243781113389
232.5409839,39.13194493863566
237.8148101,10.807782531904138
243.0805303,-18.060485125416893
248.3381582,-3.6412850525922735
253.5877075,35.900976194662135
258.8291917,43.03194634720668
264.0626244,13.459444507273904
269.288019,-5.1907057128785175
274.5053891,5.2664321746700695
279.7147481,19.233185074017012
284.9161094,11.770329521964792
290.1094865,-13.366496461549026
295.2948927,-1.6688808202842047
300.4723414,124.0030562150765
305.6418459,358.2159812610113
310.8034194,586.0105392318944
315.9570752,706.9264302284755
321.1028267,745.2856714651682
326.2406869,800.0848588642243
331.370669,911.7358656753198
336.4927863,1043.6961153666812
341.6070517,1177.453743275995
346.7134786,1322.5058008661688
351.8120798,1442.3824577027692
356.9028684,1467.2353116682712
361.9858576,1376.733564303699
367.0610602,1265.6486986664688
372.1284892,1434.7748708603915
377.1881577,2362.0375472419128
382.2400784,4228.308977147784
387.2842644,6349.479064988201
392.3207284,7483.393828449539
397.3494833,6960.165893782566
402.370542,5270.158445742922
407.3839172,3441.009216086056
412.3896217,2117.688960135319
417.3876683,1329.182329407464
422.3780697,846.9900844839719
427.3608386,524.8125391903216
432.3359876,339.55820913140053
437.3035295,272.5352221174717
442.2634769,247.8180504771254
447.2158423,184.07139676788412
452.1606383,76.07043732139962
457.0978776,6.938527755072656
462.0275727,45.78339069750119
466.9497361,139.94284980548707
471.8643802,190.26787264066664
476.7715176,208.59063488058814
481.6711608,277.4476519734319
486.5633221,384.8762760767494
491.448014,423.4998319727465
496.3252488,344.70041232322575
501.195039,219.66364743731344
506.0573969,133.92273252272489
510.9123349,105.2770622744584
515.7598651,121.82009217631268
520.6,166.68497655367298
525.4327518,207.29031196905623
530.2581327,237.52994880190633
535.076155,283.8944672556857
539.8868309,329.2538764958676
544.6901726,318.304202423935
549.4861922,250.2313987183264
554.2749019,180.96828533612927
559.0563139,149.98074042857672
563.8304402,152.7462428067995
568.597293,148.27989614854215
573.3568844,93.94768193755289
578.1092263,10.294685731723625
582.8543308,-30.27547343156749
587.5922101,-4.6683665177587415
592.322876,30.510770460435737
597.0463405,26.947366721997653
601.7626157,12.374708484108671
606.4717135,38.73425665992717
611.1736458,89.74612362351311
615.8684246,94.7954366546076
620.5560617,36.466195468641956
625.2365691,-14.221783297620398
629.9099585,8.545068794066529
634.5762419,74.63515585754433
639.2354312,96.52747800088349
643.887538,50.2461140815531
648.5325743,1.682565745753493
653.1705518,-0.4733084020666034
657.8014823,14.87641904737875
662.4253775,12.076140932051963
667.0422493,3.6187203854421064
671.6521092,5.0963940108235875
676.2549691,2.2976546319009685
680.8508407,-10.031880506993778
685.4397355,-14.516422742223089
690.0216654,-1.9031375243260764
694.5966419,42.41050951099643
699.1646767,143.40780319389057
703.7257814,264.45747432480795
708.2799676,312.24289465880236
712.827247,261.7001515244484
717.367631,179.87253670561643
721.9011314,122.36515781265501
726.4277595,91.61256559938957
730.9475271,70.12225306513949
735.4604456,42.10272325910835
739.9665264,7.315083993192204
744.4657813,-12.150400488388385
748.9582215,7.358548858326074
753.4438587,61.035304473088694
757.9227042,111.64346177697509
762.3947696,127.81181731137241
766.8600662,116.91367970266116
771.3186056,106.99560584984113
775.770399,116.37760572488565
780.215458,146.61244731712975
784.6537939,197.60163954580156
789.0854181,296.24045985218856
793.510342,468.9105545213924
797.9285769,655.6105120602404
802.3401342,734.2320357456886
806.7450253,666.8825585700747
811.1432614,530.6324312767624
815.5348538,404.4368054310834
819.9198139,318.0172491123546
824.2981531,273.75692759168425
828.6698824,244.51039295571937
833.0350133,196.31658202803055
837.393557,139.32419262518138
841.7455248,103.82968359092567
846.0909278,78.38463464569432
850.4297774,34.48800560364299
854.7620848,-7.213050992922959
859.0878611,0.4210104275635871
863.4071176,58.31698675887134
867.7198655,124.2224745508342
872.026116,170.752831608927
876.3258802,201.8722381385399
880.6191693,228.93799199522812
884.9059946,253.03097580268343
889.186367,266.3970224781046
893.4602979,273.2104823675665
897.7277982,299.5480904881742
901.9888793,355.63760714294085
906.2435521,409.0654682907712
910.4918277,433.8692749908504
914.7337174,455.2715142495731
918.9692321,514.0312595338575
923.1983831,609.2825547585703
927.4211813,686.9538989575623
931.6376378,696.844283767098
935.8477637,666.0525575525888
940.0515701,659.2831814655233
944.249068,678.7730212923032
948.4402684,698.1178802071265
952.6251825,742.3119131195621
956.8038212,817.2417458332854
960.9761955,846.5901535846915
965.1423166,789.2443836317796
969.3021953,715.1882697588753
973.4558427,691.233597691085
977.6032699,692.5353358730889
981.7444877,654.9100484953655
985.8795072,554.8593957804123
990.0083394,449.54501892288226
994.1309953,436.043079129132
998.2474857,535.4025787301733
1002.357822,644.2692110281133
1006.462014,628.429233809193
1010.560075,449.62937281722543
1014.652013,201.84975260012874
1018.737841,31.846507653290473
1022.81757,12.817217390855888
1026.891209,83.53585566619932
1030.958771,120.33853800925996
1035.020266,80.92174547453442
1039.075705,43.98914311438139
1043.1251,76.25684028305304
1047.16846,131.22415436615393
1051.205797,152.22759057508978
1055.237121,206.46460735658192
1059.262444,474.81399200076214
1063.281777,1188.374484558738
1067.295131,2488.2179959834148
1071.302515,4112.373371739721
1075.303942,5279.284543663126
1079.299422,5212.5376426477305
1083.288966,3897.4302550823195
1087.272585,2143.287050273251
1091.250289,832.2495467844063
1095.222091,242.16749161007428
1099.187999,99.3004208401515
1103.148026,59.90751031257895
1107.102183,3.8752491791566452
1111.050479,-25.719635520036096
1114.992927,9.03075629323402
1118.929536,95.57360079542599
1122.860318,247.1632581305824
1126.785283,551.7731583697542
1130.704443,1080.8776100231312
1134.617808,1717.1360363787248
1138.52539,2129.5314097595224
1142.427198,2038.3109125019241
1146.323244,1514.3179524456234
1150.213538,918.6733785177843
1154.098093,552.3952680388014
1157.976917,448.10476728936277
1161.850023,468.3583851100846
1165.717421,505.38980037750565
1169.579121,573.1210591463192
1173.435135,742.0395078734228
1177.285474,993.8575399555087
1181.130148,1167.7921131639368
1184.969169,1103.6326702846009
1188.802547,824.7397150166972
1192.630292,512.9716302651882
1196.452416,310.340495978599
1200.26893,210.64884391801144
1204.079844,138.48344521151787
1207.88517,62.66768597153315
1211.684917,6.972250415406517
1215.479098,-6.628023326035837
1219.267722,10.866833422399203
1223.050801,32.15534852943147
1226.828346,47.03726859163965
1230.600366,69.42065881083539
1234.366874,109.40218962105928
1238.12788,164.17870339742328
1241.883395,231.1818724028559
1245.633429,289.34896439556104
1249.377994,291.5904328294553
1253.1171,225.85425064086468
1256.850759,146.67865609851884
1260.578981,104.76979494061374
1264.301776,85.33923374591176
1268.019157,47.69542607279136
1271.731133,-1.1079959121070715
1275.437715,-11.495603875776283
1279.138915,32.14211809412499
1282.834743,86.33550273866699
1286.52521,100.91616490736894
1290.210328,61.1901765927873
1293.890106,2.085837413524281
1297.564555,-2.742528063889182
1301.233688,83.72479599774171
1304.897514,195.8652811116431
1308.556044,231.57000373610106
1312.209289,172.51323743963832
1315.857261,87.06492349126925
1319.499969,40.23185007165118
1323.137425,44.82834774636339
1326.769641,70.00364317186248
1330.396626,70.01904424149525
1334.018391,30.797378400778904
1337.634948,-5.854348145894992
1341.246307,13.384713738512858
1344.85248,80.79373467408212
1348.453477,120.85494495542954
1352.049309,88.1853528822922
1355.639987,45.24860180169202
1359.225522,73.18526989247853
1362.805925,148.03568241994566
1366.381207,195.05041129457265
1369.951379,212.53645981867658
1373.516452,268.2622231528091
1377.076436,415.9204704445783
1380.631343,646.7920101397694
1384.181184,882.1839837071146
1387.725969,1000.5805971388154
1391.26571,922.9770132690535
1394.800417,690.9567682201707
1398.330102,424.8088457908182
1401.854776,210.8230831565656
1405.374448,65.94184457495456
1408.889132,-9.382538454338611
1412.398837,14.29618862169606
1415.903574,182.83985997867245
1419.403355,498.91643266527984
1422.89819,878.2172596967399
1426.388091,1177.9331249297302
1429.873069,1270.3122901339202
1433.353134,1116.4205644360522
1436.828298,806.6341626432397
1440.298571,496.685932521677
1443.763965,275.571084727203
1447.224491,132.93105764914614
1450.68016,40.0211083198253
1454.130983,-6.3891882791975565
1457.576971,-12.386188879536606
1461.018135,1.5997425600272255
1464.454486,23.5837456799129
1467.886036,48.704721717042005
1471.312794,59.03355918910719
1474.734774,40.546350649039425
1478.151985,14.0596022267441
1481.564439,12.15730335115406
1484.972146,33.493624836669504
1488.375119,48.18432945508229
1491.773368,33.97179340226616
1495.166904,-0.5767779452875672
1498.555739,-17.56709568094503
1501.939883,3.4780387656974625
1505.319349,30.59388117636087
1508.694146,31.95854770209294
1512.064286,26.8048840547034
1515.429781,42.787645122969096
1518.790642,63.79897710599153
1522.146879,50.63233027530004
1525.498505,2.9840120613163443
1528.845529,-22.538486706706095
1532.187965,13.652769206693417
1535.525822,70.41255364934393
1538.859112,90.33996755296408
1542.187846,91.45601695187722
1545.512036,127.77238928727894
1548.831693,197.29706216329802
1552.146829,265.5741037096391
1555.457453,348.8093004440326
1558.763579,490.31152223215065
1562.065216,685.5950978776128
1565.362377,904.6860446926419
1568.655073,1139.819348212139
1571.943315,1374.0076068919775
1575.227114,1569.8725792820048
1578.506482,1734.1812630105867
1581.781431,1917.7439922246622
1585.051971,2098.6635468854124
1588.318114,2128.705249700413
1591.579872,1873.7055767154075
1594.837255,1386.2235504041575
1598.090275,864.4082679294869
1601.338945,454.86696802121253
1604.583274,179.93052443788054
1607.823275,30.001901438002704
1611.058959,-4.7383126432791585
1614.290338,9.794591121417824
1617.517422,4.311013920373512
1620.740224,-3.9622263207279786
1623.958755,14.51511137881576
1627.173027,23.810910886871838
1630.38305,2.6696577112710713
1633.588838,-10.588540804810961
1636.7904,7.064355236853217
1639.987749,35.27060744800043
1643.180896,55.69134252513207
1646.369853,70.58582958039096
1649.554632,83.07294456684866
1652.735244,79.0720907176167
1655.9117,41.89282549400055
1659.084013,-6.314601212862328
1662.252193,-12.779758248556629
1665.416254,31.561504928879515
1668.576205,71.73402508105758
1671.732059,66.04717890778835
1674.883828,31.850799733528465
1678.031523,3.305100905057417
1681.175157,1.7354662918180388
1684.314739,40.8511219652031
1687.450284,99.06424327166819
1690.581801,111.97120156848574
1693.709304,57.20844702920886
1696.832803,5.599383852563605
1699.952311,24.051580862960154
1703.067839,79.42185695137675
1706.179399,99.1404128875834
1709.287003,76.75384272510432
1712.390663,58.32486769054041
1715.49039,55.73809771890704
1718.586197,36.9273157489023
1721.678095,-1.3250290149111592
1724.766096,-18.142069105299846
1727.850213,0.9573550542656761
1730.930456,25.74073024556963
1734.006838,42.61670941175272
1737.079372,68.59479332613095
1740.148067,99.98168808925323
1743.212938,102.42336475423174
1746.273996,60.545554094099906
1749.331252,9.901323713427292
1752.384718,6.021997159769365
1755.434408,58.98172338510534
1758.480332,109.77110739190077
1761.522503,97.92379322198586
1764.560933,43.8612475019991
1767.595634,12.714239351606546
1770.626618,10.179508482639127
1773.653896,-5.185306160650632
1776.677482,-26.066549461041184
1779.697388,-11.1145565400608
1782.713625,28.356300417144908
1785.726205,40.885399591856256
1788.735141,13.173606142985832
1791.740445,-12.064734575465103
1794.742129,4.808397746285287
1797.740206,44.059284361880984
1800.734687,56.50204960442124
1803.725585,34.43468787983424
1806.712912,10.35227642297491
1809.69668,3.344185326568809
1812.676902,5.920696928044599
1815.65359,12.692655977273933
1818.626756,26.679621573048294
1821.596413,38.8011624455693
1824.562573,35.67478050372047
1827.525247,22.68825582608324
1830.48445,8.005461711185196
1833.440192,-11.09600203478541
1836.392487,-24.846327168586612
1839.341347,-15.24176325492439
1842.286784,13.05446577373633
1845.22881,38.37270274711152
1848.167439,46.46031800329314
1851.102682,41.95029176138063
1854.034553,42.63316481462826
1856.963063,50.759267964380314
1859.888226,45.85877229506109
1862.810053,24.82968119889905
1865.728557,9.182783528063684
1868.643751,2.3311511068674964
1871.555648,-5.637641934912237
1874.46426,0.5624994185403267
1877.369599,34.882322918295365
1880.271679,67.75769100227997
1883.170512,64.26529234416981
1886.06611,35.86759681964807
1888.958487,14.064536372728424
1891.847655,4.424825928016762
1894.733626,-4.040815131198418
1897.616414,-12.08970396285051
1900.496032,-9.941217943229066
1903.372491,9.935663598568404
1906.245805,36.26116705969214
1909.115987,44.20961931042771
1911.983049,39.23969225901649
1914.847004,57.545715830277715
1917.707866,95.68581227845438
1920.565646,106.1833630857689
1923.420359,83.58867491146967
1926.272016,71.63440614585058
1929.120631,77.3889974029588
1931.966216,63.627838852166306
1934.808786,24.56224650227564
1937.648351,-2.880042880480662
1940.484927,1.7633109305713255
1943.318525,20.377882265363915
1946.149158,33.286291234287184
1948.97684,45.32408678206293
1951.801584,57.179001206148754
1954.623403,46.0472811141453
1957.44231,9.422680431516639
1960.258318,-13.282643703824942
1963.071439,4.916959682762336
1965.881688,41.76392500476492
1968.689078,60.24778236639705
1971.493621,53.533659452100636
