Raman shift cm-1,4ATP_10pM_rep1_acc1_processed_intensity
-93.47115107,9.517611255490383
-87.69374369,-11.106184285986906
-81.9253076,-26.914797461186275
-76.16582701,20.659292035483446
-70.41528615,68.20452080278571
-64.67366933,30.111021450283772
-58.94096086,-32.62106462996002
-53.21714512,-26.861820684746817
-47.50220652,29.734437408276506
-41.79612954,21.944033663209893
-36.09889866,-26.98472878112773
-30.41049843,-4.324314109027796
-24.73091343,8.090673569012438
-19.0601283,-14.884473021179133
-13.39812769,23.21603518572556
-7.744896327,39.994495966136014
-2.100418946,1.6934212843791556
3.535319659,3.884158438870486
9.162334658,12.407973366391161
14.78064118,-3.2252586195561435
20.39025432,14.636422054398963
25.99118913,56.05690767016233
31.58346061,63.75068426179985
37.16708375,28.575299177559828
42.74207347,-11.757913754240235
48.30844468,-35.65393667946296
53.86621222,-45.71822685130701
59.41539093,-29.530409251132824
64.95599558,1.3244927764094427
70.48804091,13.632938327743886
76.01154164,10.497526244381334
81.52651243,-2.4804431370109796
87.03296792,-16.079161432948467
92.5309227,-2.8470246755207427
98.02039134,29.197346388444203
103.5013884,55.01638940097064
108.9739282,51.96611870341235
114.4380255,19.070976021976094
119.8936944,27.520874391838788
125.3409495,104.9393526450724
130.779805,150.5910289900005
136.2102753,128.20229257513074
141.6323747,145.18668863540188
147.0461174,233.84505581120288
152.4515176,297.1588370938043
157.8485895,322.5059239376226
163.2373472,409.5117307550022
168.6178049,541.6332493037537
173.9899766,598.4739886548803
179.3538764,622.8230602691472
184.7095182,711.8374749666714
190.0569161,785.7240252794973
195.396084,809.3957657981923
200.7270358,857.9012921400449
206.0497854,906.5356684874466
211.3643466,952.5071891805699
216.6707333,1050.7928153140158
221.9689593,1147.5830771905796
227.2590382,1210.0692266375504
232.5409839,1292.6982287748997
237.8148101,1389.7579509696134
243.0805303,1448.6541851079003
248.3381582,1475.395443740424
253.5877075,1548.89685525728
258.8291917,1685.1320726225026
264.0626244,1777.2271374815646
269.288019,1809.5669795947802
274.5053891,1888.297006039724
279.7147481,1994.9875247721934
284.9161094,2028.1895546289131
290.1094865,1979.7563652927167
295.2948927,1809.2250456052607
300.4723414,1370.0307035521082
305.6418459,702.8624715305643
310.8034194,175.42391000922075
315.9570752,25.403277650357325
321.1028267,62.6362701808236
326.2406869,79.40214554268188
331.370669,69.5597816340549
336.4927863,20.395359989091837
341.6070517,-47.847850044356846
346.7134786,-35.682271984619746
351.8120798,43.64530195419795
356.9028684,73.00554408923894
361.9858576,63.13585885933044
367.0610602,109.7572956162822
372.1284892,174.27796050966754
377.1881577,236.98472304565632
382.2400784,401.3722833191282
387.2842644,622.2847499149975
392.3207284,743.1862865015632
397.3494833,708.8382301318381
402.370542,532.9099895517132
407.3839172,316.65477638997606
412.3896217,184.82245279582577
417.3876683,144.779841074261
422.3780697,143.54374267503175
427.3608386,108.46229723352945
432.3359876,18.255450885623578
437.3035295,-16.586886974291623
442.2634769,41.39807391741711
447.2158423,57.547324310189325
452.1606383,-0.4870816850583788
457.0978776,-21.299352447740468
462.0275727,3.46494691817092
466.9497361,20.32405721209364
471.8643802,26.077769197479775
476.7715176,24.067220215482585
481.6711608,38.03283877970393
486.5633221,55.74091160537425
491.448014,29.62208212340387
496.3252488,3.692131161358568
501.195039,9.561086814564192
506.0573969,-19.462786144173684
510.9123349,-65.42202724548264
515.7598651,-11.953869516274494
520.6,115.98249444369537
525.4327518,146.48153356560536
530.2581327,62.07946190502855
535.076155,43.03146374923043
539.8868309,106.51243181849517
544.6901726,85.86473028779454
549.4861922,26.121339517726728
554.2749019,60.31766320479517
559.0563139,92.4126945847847
563.8304402,71.95514716882491
568.597293,76.68539838538918
573.3568844,54.02992216755341
578.1092263,-10.727737450380218
582.8543308,7.031831233709914
587.5922101,83.3802291681072
592.322876,74.28510041113806
597.0463405,4.99030224544159
601.7626157,6.70005528061802
606.4717135,56.14761238936735
611.1736458,55.23403964592654
615.8684246,55.86866248491055
620.5560617,73.37019610328653
625.2365691,8.881555750709538
629.9099585,-25.16992579324409
634.5762419,62.68624624256395
639.2354312,93.46848068535375
643.887538,70.77779380795278
648.5325743,110.42959129515936
653.1705518,99.46763558694336
657.8014823,4.175112050670393
662.4253775,-34.94922014285559
667.0422493,22.624790763036472
671.6521092,75.3483311310455
676.2549691,42.501471961116124
680.8508407,6.877326459854541
685.4397355,27.56970717925786
690.0216654,5.526165139684872
694.5966419,-35.99695516372187
699.1646767,7.856062556430064
703.7257814,59.680449360238796
708.2799676,43.327268130501224
712.827247,9.323497262950934
717.367631,-7.905619485230549
721.9011314,1.2335435494067042
726.4277595,28.7686710801525
730.9475271,48.49007224817407
735.4604456,64.8378236191216
739.9665264,57.70272286740925
744.4657813,0.13862651735963638
748.9582215,-38.3911894794451
753.4438587,-11.752545673882004
757.9227042,6.615651905122659
762.3947696,-14.746218841145986
766.8600662,-25.11847770631014
771.3186056,-5.49692709348218
775.770399,24.146237792132542
780.215458,28.22668279867233
784.6537939,2.6037731612515103
789.0854181,-10.600662762335595
793.510342,10.328781959679858
797.9285769,64.21399657883094
802.3401342,90.22506584907303
806.7450253,29.087409045433418
811.1432614,-20.949968894486933
815.5348538,9.155434294113228
819.9198139,17.321105098112724
824.2981531,-13.794614025695866
828.6698824,12.917963061187486
833.0350133,45.38798977605291
837.393557,5.883171619953115
841.7455248,-1.020621606013659
846.0909278,41.35175061949329
850.4297774,20.945849790113158
854.7620848,-35.612084204647466
859.0878611,-54.13026297564
863.4071176,-16.792856797281505
867.7198655,62.74324049206061
872.026116,116.62484886269894
876.3258802,106.65293572434409
880.6191693,60.84279552002037
884.9059946,29.920033514863817
889.186367,23.714002533296167
893.4602979,7.9904896420611795
897.7277982,16.874623311656833
901.9888793,44.56443786518426
906.2435521,20.437776333389834
910.4918277,-8.023721032189842
914.7337174,-17.574088861431044
918.9692321,-39.53823872126117
923.1983831,-28.451487426389406
927.4211813,4.9630222563931525
931.6376378,28.981523730326938
935.8477637,49.63245589471874
940.0515701,24.34497541378674
944.249068,-15.564824011574006
948.4402684,-1.8013053272234787
952.6251825,14.154954693098897
956.8038212,0.9901720752453889
960.9761955,12.166207142629698
965.1423166,64.93728619698982
969.3021953,91.03462802544317
973.4558427,36.564595293693124
977.6032699,10.356352866528894
981.7444877,60.798912337713
985.8795072,12.922589421182199
990.0083394,-85.97302909521213
994.1309953,-8.42417044327205
998.2474857,93.20799427500714
1002.357822,22.8257316587407
1006.462014,-28.40383650476798
1010.560075,24.47257777904167
1014.652013,28.138006746125647
1018.737841,8.882388740565748
1022.81757,43.71130414785988
1026.891209,60.03243353195684
1030.958771,58.344447515059656
1035.020266,80.81930236989966
1039.075705,82.29927469472094
1043.1251,100.17489464723788
1047.16846,150.86622363447884
1051.205797,111.2081834276918
1055.237121,7.529171622381302
1059.262444,-25.127436917869954
1063.281777,24.657498025150797
1067.295131,120.4157748721535
1071.302515,227.2931196210356
1075.303942,323.73620062944167
1079.299422,370.41625081881006
1083.288966,294.3554957503716
1087.272585,144.73874732418213
1091.250289,27.308550561711428
1095.222091,-34.85850195954914
1099.187999,-7.765676408563046
1103.148026,67.73219927316295
1107.102183,52.058047892622476
1111.050479,-11.610866688690834
1114.992927,-7.964331653336757
1118.929536,0.16099234659445827
1122.860318,-0.8986902762237392
1126.785283,50.267545381721874
1130.704443,52.770308722307384
1134.617808,-1.985163869868698
1138.52539,53.907063540107444
1142.427198,112.09301467720854
1146.323244,13.820124716522834
1150.213538,-39.15779963112847
1154.098093,17.41278025863941
1157.976917,14.654275198184877
1161.850023,-3.6657027424074897
1165.717421,12.389145799076829
1169.579121,7.399541137609788
1173.435135,12.835527862525367
1177.285474,18.290409294841893
1181.130148,11.525710714874236
1184.969169,48.67608494577537
1188.802547,65.72822563927119
1192.630292,8.132439980497999
1196.452416,-21.075968891555355
1200.26893,-6.813516791018641
1204.079844,-23.92545576308809
1207.88517,-25.77449804725436
1211.684917,29.486095901656146
1215.479098,73.66440770254644
1219.267722,75.69762819894379
1223.050801,74.51482794908219
1226.828346,109.68705588731623
1230.600366,181.39396984192783
1234.366874,222.2166698142421
1238.12788,202.64470287433915
1241.883395,193.4053667215662
1245.633429,195.8344668005327
1249.377994,165.43555315788484
1253.1171,155.3829346426445
1256.850759,145.14647494016228
1260.578981,94.1236474094548
1264.301776,117.81141816900072
1268.019157,169.0800934344903
1271.731133,88.89329891722323
1275.437715,-8.642541343242982
1279.138915,8.617704710897627
1282.834743,73.9645606766351
1286.52521,98.33339106256722
1290.210328,52.40592814852165
1293.890106,-9.853674687521163
1297.564555,-29.972581852829997
1301.233688,-2.9957619289298876
1304.897514,48.19040273209865
1308.556044,56.57151183145048
1312.209289,20.066886062361064
1315.857261,18.783566063167214
1319.499969,51.8080366619243
1323.137425,51.096518894618754
1326.769641,8.299589853920011
1330.396626,-12.892416848300464
1334.018391,14.550261144853486
1337.634948,23.60747966266549
1341.246307,-13.985390402695721
1344.85248,-18.21352362451811
1348.453477,21.947761970811328
1352.049309,6.01989183328093
1355.639987,-38.49520517940473
1359.225522,18.85737842032178
1362.805925,102.14215863579123
1366.381207,58.35220050557531
1369.951379,-17.70394610255168
1373.516452,-5.06502490326922
1377.076436,17.84430902078848
1380.631343,1.2249886543363289
1384.181184,5.598482928068973
1387.725969,39.164033022270395
1391.26571,51.37452805959099
1394.800417,51.491716966497506
1398.330102,76.0735509652977
1401.854776,69.69169437177214
1405.374448,10.469759078445719
1408.889132,-13.754483642705083
1412.398837,-7.985500009459642
1415.903574,-0.6660182447723315
1419.403355,66.95621525686542
1422.89819,128.2687787798803
1426.388091,93.77960918658889
1429.873069,63.79487252772052
1433.353134,101.50681891229002
1436.828298,108.99554980339713
1440.298571,40.67452812960537
1443.763965,-12.985043191308897
1447.224491,-10.047099909544329
1450.68016,-4.858197296417718
1454.130983,9.30951228710672
1457.576971,29.01217977732901
1461.018135,-1.7248165592608231
1464.454486,-10.408710608264672
1467.886036,56.69377599501617
1471.312794,64.94106296400072
1474.734774,3.0901560889959763
1478.151985,38.976381652586745
1481.564439,103.20586280081872
1484.972146,27.504594945208368
1488.375119,-23.98126521657689
1491.773368,65.25881814621333
1495.166904,110.51312184146074
1498.555739,97.19620006184316
1501.939883,110.188687242813
1505.319349,88.98216829051317
1508.694146,79.42175004798179
1512.064286,102.08126100777396
1515.429781,49.58914630730613
1518.790642,-1.8139287759702345
1522.146879,13.57260227177324
1525.498505,-14.415157014905322
1528.845529,-45.58184176769111
1532.187965,-0.5717974725077308
1535.525822,25.64409067052764
1538.859112,8.922201793784279
1542.187846,26.015040576779672
1545.512036,52.42740296752642
1548.831693,22.656388046880465
1552.146829,-24.76278145915544
1555.457453,-4.942898326335034
1558.763579,70.70732470993826
1562.065216,112.13267969275266
1565.362377,103.14668490283063
1568.655073,126.17232592333349
1571.943315,183.3584454435733
1575.227114,181.4218307164741
1578.506482,174.57897667857773
1581.781431,255.873405841205
1585.051971,299.88492029098825
1588.318114,264.79101033632935
1591.579872,294.0687886657063
1594.837255,314.547379555626
1598.090275,231.13267783578956
1601.338945,178.7910604247031
1604.583274,113.9737190905402
1607.823275,-16.965378892049536
1611.058959,6.0354962575511415
1614.290338,91.72864178336638
1617.517422,7.05498076567115
1620.740224,-51.61682968013041
1623.958755,1.9428446409086386
1627.173027,8.490743287284607
1630.38305,6.01124372768612
1633.588838,22.003570701917113
1636.7904,16.197035947958362
1639.987749,21.856465679443517
1643.180896,-4.192105345633756
1646.369853,-45.49610089394206
1649.554632,11.671933190436533
1652.735244,81.34586944690291
1655.9117,39.85430099833109
1659.084013,-9.21958500573539
1662.252193,26.381483372168326
1665.416254,64.09328366175308
1668.576205,36.715690739780996
1671.732059,-2.9923946395708327
1674.883828,7.907903397206731
1678.031523,25.4156080569515
1681.175157,-15.324485712889352
1684.314739,-42.393452629399995
1687.450284,4.902995087898468
1690.581801,43.96686125523587
1693.709304,28.345583114519293
1696.832803,-4.58485003577867
1699.952311,7.0594134801296375
1703.067839,102.64148383269863
1706.179399,151.18646407590924
1709.287003,59.13336163049441
1712.390663,17.077212195255367
1715.49039,70.86447717173411
1718.586197,21.81980608195898
1721.678095,-56.510560885638306
1724.766096,-23.546394344955388
1727.850213,-1.9095327273974263
1730.930456,-5.029276944597534
1734.006838,48.48048518986235
1737.079372,79.83948653872253
1740.148067,58.64657248866963
1743.212938,37.13233117243103
1746.273996,20.103954904705105
1749.331252,10.685675536481089
1752.384718,12.857957171175881
1755.434408,44.39365497647196
1758.480332,90.40780528072145
1761.522503,68.50547084675671
1764.560933,3.032747037508603
1767.595634,2.6816494080735733
1770.626618,49.26913498119923
1773.653896,51.73862457479903
1776.677482,5.875791526146731
1779.697388,-30.84653774000016
1782.713625,-23.56248630616963
1785.726205,14.108447809450308
1788.735141,24.43223753540436
1791.740445,-9.173479390739445
1794.742129,-12.701788174379955
1797.740206,42.00918767231112
1800.734687,73.557395819835
1803.725585,51.332980136936996
1806.712912,38.707463130990725
1809.69668,27.909817801175173
1812.676902,-19.781103789793846
1815.65359,-26.30589709477917
1818.626756,24.911538484486087
1821.596413,22.540903532476783
1824.562573,-6.897568335046275
1827.525247,19.093793670280004
1830.48445,29.941694619924743
1833.440192,-4.042005701439145
1836.392487,-15.896218349254179
1839.341347,-23.633615060729042
1842.286784,-44.11514754165216
1845.22881,-7.1468310055006725
1848.167439,54.06226494895451
1851.102682,30.302436324648443
1854.034553,-13.657637796392954
1856.963063,30.041708605208413
1859.888226,86.0387606589557
1862.810053,58.38309508338466
1865.728557,0.2819227260680499
1868.643751,-5.253975087624763
1871.555648,8.828875273875019
1874.46426,-7.8703366530188426
1877.369599,-1.2151674916048343
1880.271679,48.683569791190266
1883.170512,50.73433265198433
1886.06611,-6.823865350238403
1888.958487,-17.048079801687297
1891.847655,20.136619143577185
1894.733626,11.659991998868895
1897.616414,-17.888398069703207
1900.496032,-19.046494949668116
1903.372491,-9.120759027624132
1906.245805,24.882437562744972
1909.115987,47.90933591510828
1911.983049,9.753042787696184
1914.847004,-12.42014758001131
1917.707866,11.740679308688433
1920.565646,6.752349453456519
1923.420359,-11.135704786395022
1926.272016,19.613366680324294
1929.120631,52.91740110156545
1931.966216,23.338663853669576
1934.808786,-24.719718218579505
1937.648351,-16.214097821120582
1940.484927,39.29897440521627
1943.318525,88.7080003393086
1946.149158,111.00601147353522
1948.97684,110.9332757312354
1951.801584,100.25073131692045
1954.623403,92.40227778715997
1957.44231,73.64338380717575
1960.258318,22.762621960837947
1963.071439,-20.233536462449898
1965.881688,0.7412748326009861
1968.689078,65.02110935830908
1971.493621,125.60839723759852
