Raman shift cm-1,4ATP_1nM_rep3_acc4_processed_intensity
-93.47115107,-18.55333916339383
-87.69374369,33.483799148759395
-81.9253076,11.046297337918322
-76.16582701,-31.558205298095274
-70.41528615,82.26416642436831
-64.67366933,2.6271856348107576
-58.94096086,48.14842774845806
-53.21714512,15.728981127282395
-47.50220652,18.213504207417543
-41.79612954,136.45043916341876
-36.09889866,-87.72584071431714
-30.41049843,18.484672403451725
-24.73091343,32.51402897220146
-19.0601283,-10.777500310964172
-13.39812769,64.94300931340103
-7.744896327,-15.199082478297669
-2.100418946,56.48582929029567
3.535319659,22.02451997142748
9.162334658,55.144052849426544
14.78064118,23.351732486482547
20.39025432,6.186319635669861
25.99118913,49.17073419505118
31.58346061,34.8173770139839
37.16708375,64.88636426157052
42.74207347,-25.658764306279977
48.30844468,17.24979579417368
53.86621222,-22.046679489561484
59.41539093,-46.23550849351159
64.95599558,65.47635824672511
70.48804091,109.62467134382177
76.01154164,97.08678503484498
81.52651243,-33.94946345808603
87.03296792,2.622559115273134
92.5309227,42.75873339165378
98.02039134,-29.16664163313908
103.5013884,-5.132192181815526
108.9739282,30.945977704398274
114.4380255,11.021578531591558
119.8936944,27.070079296717267
125.3409495,130.1531190139399
130.779805,89.15031560318653
136.2102753,38.50043484413413
141.6323747,127.76183171466823
147.0461174,149.5540758848133
152.4515176,181.85734921116114
157.8485895,261.16594976299484
163.2373472,319.13701512262924
168.6178049,417.77254086172525
173.9899766,486.0789447046395
179.3538764,492.540424840965
184.7095182,568.8894447687517
190.0569161,687.4088597783109
195.396084,724.5152880239812
200.7270358,727.8699285457558
206.0497854,786.7109570529046
211.3643466,892.6175737935589
216.6707333,986.8645316313721
221.9689593,1040.3198575500865
227.2590382,1133.9040838108112
232.5409839,1185.2741135174515
237.8148101,1272.58901098447
243.0805303,1388.2999688823954
248.3381582,1371.6162511013486
253.5877075,1548.2626455054824
258.8291917,1642.318139409147
264.0626244,1587.3016792534359
269.288019,1689.044355952262
274.5053891,1762.928538487177
279.7147481,1837.458608727997
284.9161094,1895.8237265957346
290.1094865,1937.3637878815707
295.2948927,1724.8015889812507
300.4723414,1225.3347038469672
305.6418459,646.4447601785937
310.8034194,139.59433437090803
315.9570752,-33.35840110506486
321.1028267,18.16748284265961
326.2406869,55.513384946174256
331.370669,0.23385718671380573
336.4927863,31.624282812334897
341.6070517,11.001936715692949
346.7134786,-63.936595844861536
351.8120798,44.73985795921917
356.9028684,82.86350258391218
361.9858576,111.06548857215444
367.0610602,150.51227805534322
372.1284892,177.94417791140276
377.1881577,311.60277834157523
382.2400784,674.8546372266464
387.2842644,1269.651761186194
392.3207284,1513.2122824418354
397.3494833,1487.7686633326155
402.370542,1184.323193993133
407.3839172,650.8478054720703
412.3896217,407.1997759725216
417.3876683,260.54827832050677
422.3780697,135.034149025389
427.3608386,57.31455473026968
432.3359876,-13.119613762010772
437.3035295,-34.32919389793723
442.2634769,25.055264587673705
447.2158423,15.832920095743509
452.1606383,-18.2651011259158
457.0978776,12.927544124762324
462.0275727,16.03364809472259
466.9497361,30.718430419022553
471.8643802,32.59626979160849
476.7715176,-19.42429636415007
481.6711608,22.50025587935172
486.5633221,92.23325933763586
491.448014,-16.102978079314266
496.3252488,37.76329984602031
501.195039,24.884629408415844
506.0573969,-91.411142642955
510.9123349,-42.75494419542933
515.7598651,-36.98962287260607
520.6,8.038880555463413
525.4327518,5.3735898462409235
530.2581327,1.271413256375066
535.076155,60.09350561560362
539.8868309,52.753943996332765
544.6901726,33.93884011303961
549.4861922,29.65353128866179
554.2749019,16.923126423500214
559.0563139,51.41974769770497
563.8304402,14.477209502298528
568.597293,-1.816807307424945
573.3568844,81.33197213069658
578.1092263,39.968013993579255
582.8543308,-58.66621035482508
587.5922101,-67.56994522921113
592.322876,12.363547332677758
597.0463405,26.752825239274195
601.7626157,29.071733045072918
606.4717135,25.73065920539347
611.1736458,-23.681151839509628
615.8684246,12.731757897282712
620.5560617,85.54637569688974
625.2365691,13.677501400685081
629.9099585,-77.26423264001023
634.5762419,-53.49731774641201
639.2354312,38.41896308494651
643.887538,104.9274086279541
648.5325743,28.78256504522263
653.1705518,-8.913858899196565
657.8014823,-22.756014239885097
662.4253775,1.0265005264141038
667.0422493,15.816593596166086
671.6521092,20.996866932338563
676.2549691,25.67927847866133
680.8508407,13.567226711326363
685.4397355,30.771585103973557
690.0216654,-42.724915646621234
694.5966419,7.9122358905550385
699.1646767,10.328669294825593
703.7257814,-15.645490028715301
708.2799676,38.08879297844969
712.827247,69.53204447664282
717.367631,62.06107550008805
721.9011314,-85.45951318686603
726.4277595,12.873079812501857
730.9475271,75.94176478841938
735.4604456,-11.502211332161366
739.9665264,46.68403303180817
744.4657813,23.79700175149295
748.9582215,-2.0631274008438965
753.4438587,-48.07397911012909
757.9227042,-4.464492697478292
762.3947696,37.797524107780184
766.8600662,21.330240723992187
771.3186056,111.20975324272
775.770399,115.05353884545801
780.215458,99.90870531213908
784.6537939,56.7727291374099
789.0854181,-13.906193878987018
793.510342,14.535053903321987
797.9285769,139.95101300481605
802.3401342,134.6007914736282
806.7450253,86.95454672117715
811.1432614,87.957325296569
815.5348538,-16.073707586107986
819.9198139,74.79976831148754
824.2981531,98.28518613704222
828.6698824,26.11962279759347
833.0350133,61.72755818116218
837.393557,6.2242158715620555
841.7455248,24.71472425216764
846.0909278,3.9483502877196393
850.4297774,-8.453771122633576
854.7620848,-23.090532737720352
859.0878611,-79.66717087242365
863.4071176,25.735726544482453
867.7198655,89.61922517792787
872.026116,34.28437079517314
876.3258802,17.171962148448024
880.6191693,57.80520036251163
884.9059946,17.710002062593517
889.186367,-12.10831622837345
893.4602979,-26.053071961155336
897.7277982,0.9483713562293781
901.9888793,63.53821689795469
906.2435521,22.063936054609172
910.4918277,-19.887205973479453
914.7337174,-33.485981073045
918.9692321,-7.453635250714555
923.1983831,2.2861558145006136
927.4211813,28.446525910115675
931.6376378,68.96030878924722
935.8477637,19.840800042198687
940.0515701,34.644548798295084
944.249068,65.35515084648948
948.4402684,-39.564975603517865
952.6251825,-26.50123856172222
956.8038212,6.086915573052572
960.9761955,38.360073200158595
965.1423166,80.08037160885466
969.3021953,-38.78748400334608
973.4558427,-31.045614354874303
977.6032699,28.598935074280426
981.7444877,9.950920432753968
985.8795072,-9.136372913065038
990.0083394,39.444250564763735
994.1309953,49.57588670349716
998.2474857,5.800513650840216
1002.357822,14.338426245606982
1006.462014,11.755042881512868
1010.560075,17.93711843153558
1014.652013,-19.838819030746993
1018.737841,-30.34297878455912
1022.81757,-5.394382366714087
1026.891209,-40.0104831951455
1030.958771,-26.590839282606087
1035.020266,10.435300525815169
1039.075705,-2.935215394326054
1043.1251,25.553662611140457
1047.16846,93.93817994539218
1051.205797,89.27375704276966
1055.237121,24.60938544670205
1059.262444,72.86556165246955
1063.281777,63.0518856186862
1067.295131,136.7929656722069
1071.302515,449.0248165026405
1075.303942,687.3166193664038
1079.299422,792.9304608730957
1083.288966,716.3171569615863
1087.272585,470.9323277285829
1091.250289,120.90749134020344
1095.222091,39.3454592217145
1099.187999,111.8281871802265
1103.148026,24.964121766339957
1107.102183,-6.487873643328328
1111.050479,-45.77151653785797
1114.992927,-33.88350275651888
1118.929536,-8.369390554697205
1122.860318,-25.35774007812998
1126.785283,52.33821359597812
1130.704443,66.42570823429249
1134.617808,64.38978115012002
1138.52539,88.92393657494719
1142.427198,37.023144395005836
1146.323244,16.9847413322686
1150.213538,63.50615886790328
1154.098093,93.54898957448867
1157.976917,-7.3357562470527
1161.850023,14.843321865168935
1165.717421,61.50629839406973
1169.579121,12.690683895848046
1173.435135,98.84404336793102
1177.285474,128.75135364565853
1181.130148,148.31236878478055
1184.969169,162.1987834537667
1188.802547,77.1345566718635
1192.630292,-3.8333814129031114
1196.452416,-1.5263975708612794
1200.26893,-10.730204232509495
1204.079844,-2.075634628509043
1207.88517,-18.90953031256085
1211.684917,-17.806924817402656
1215.479098,16.189781343953722
1219.267722,-52.57033974360556
1223.050801,20.976222936390847
1226.828346,24.512649510190556
1230.600366,38.20886052512431
1234.366874,98.72012681837305
1238.12788,59.010975501984355
1241.883395,62.86183370104979
1245.633429,155.76669905737893
1249.377994,154.24964351889514
1253.1171,-13.817266468485316
1256.850759,23.515092665435066
1260.578981,-17.625144149434057
1264.301776,31.44024128214155
1268.019157,118.24602098929243
1271.731133,-37.90972547661187
1275.437715,1.2290253629225916
1279.138915,50.32071024448111
1282.834743,18.986076122115033
1286.52521,10.55754346127478
1290.210328,9.791634715047746
1293.890106,-32.589749654625905
1297.564555,-79.28408028709022
1301.233688,53.06872674544984
1304.897514,154.00937510919493
1308.556044,60.095789228281625
1312.209289,3.1636793000343566
1315.857261,32.5108143785018
1319.499969,19.240795769205178
1323.137425,23.697172227727634
1326.769641,33.50660780204496
1330.396626,8.759678156569642
1334.018391,63.4229435600366
1337.634948,-12.323765260825198
1341.246307,-69.38291659390055
1344.85248,32.57827530191754
1348.453477,5.817918292357923
1352.049309,10.652820588811963
1355.639987,-3.993407434796058
1359.225522,13.727331989749354
1362.805925,62.685003176153316
1366.381207,20.951619099119227
1369.951379,-34.501487865546515
1373.516452,-2.637449331604177
1377.076436,77.95922449279365
1380.631343,-32.5474177566915
1384.181184,-6.997748600532589
1387.725969,65.29008081258347
1391.26571,15.561767454529036
1394.800417,85.6810017718339
1398.330102,119.86994911215399
1401.854776,98.77177614307412
1405.374448,32.94816040239255
1408.889132,-30.112543507422544
1412.398837,2.5327633091998685
1415.903574,-23.903077538623624
1419.403355,35.88437193946463
1422.89819,59.2390812976065
1426.388091,-41.570901825075055
1429.873069,28.809468212673828
1433.353134,26.425396174711864
1436.828298,24.065959198332205
1440.298571,55.3670275627627
1443.763965,-32.97229229726004
1447.224491,-4.61917962977857
1450.68016,61.043115915966546
1454.130983,-4.439332078783124
1457.576971,1.2620096561583267
1461.018135,-9.36026630548091
1464.454486,7.39322416434476
1467.886036,73.68704319572436
1471.312794,-0.6538516721325713
1474.734774,99.46865840088844
1478.151985,11.763443790229376
1481.564439,-28.993307024927013
1484.972146,83.16609553726822
1488.375119,12.893911999284159
1491.773368,110.24590568898844
1495.166904,58.11690856714839
1498.555739,-44.94022293546538
1501.939883,19.76170491989893
1505.319349,115.21225002558498
1508.694146,36.31282411212071
1512.064286,24.534130567530624
1515.429781,89.74427678156957
1518.790642,-14.927884898351557
1522.146879,19.730603082890994
1525.498505,15.925212580327763
1528.845529,-53.15588486143097
1532.187965,-21.88106436047326
1535.525822,70.88397179281111
1538.859112,83.0565347848028
1542.187846,87.84922528509072
1545.512036,19.83977671311668
1548.831693,-5.442245252719157
1552.146829,32.83752374853299
1555.457453,-8.664165712132856
1558.763579,116.34667034475065
1562.065216,132.33587554547395
1565.362377,255.05169744085728
1568.655073,296.184018781496
1571.943315,245.49135463975918
1575.227114,440.27040052218075
1578.506482,402.483311469072
1581.781431,434.75250964741525
1585.051971,525.7346843984355
1588.318114,606.1988871085147
1591.579872,661.9874635835538
1594.837255,567.1458780619328
1598.090275,437.64434134555626
1601.338945,226.026028310193
1604.583274,189.2909996206124
1607.823275,-39.35920836280845
1611.058959,-21.12360236831885
1614.290338,242.71693466797862
1617.517422,28.62725418122256
1620.740224,-43.76928448941491
1623.958755,20.612922257649494
1627.173027,56.709543239805434
1630.38305,2.9311988169819685
1633.588838,2.692551374003166
1636.7904,101.70493183097673
1639.987749,23.6104446780228
1643.180896,22.76342288158341
1646.369853,62.0229406830579
1649.554632,26.396439424844928
1652.735244,24.151292110513822
1655.9117,14.138655344507981
1659.084013,-25.214756411497113
1662.252193,-30.837745271389956
1665.416254,1.2461399162374391
1668.576205,-18.559164652862123
1671.732059,-65.86628727590704
1674.883828,39.93636580308096
1678.031523,58.05778847134785
1681.175157,5.350707541254344
1684.314739,-1.9732535875871307
1687.450284,24.584498444380152
1690.581801,51.09630973961237
1693.709304,3.440220026517757
1696.832803,8.400196758694424
1699.952311,72.05515889284504
1703.067839,135.4285453362287
1706.179399,72.19559982880946
1709.287003,90.95712469496614
1712.390663,25.872765404916624
1715.49039,23.35344004043965
1718.586197,102.17301311593509
1721.678095,-16.676497526411616
1724.766096,-55.74691276153481
1727.850213,-29.767053680103515
1730.930456,-17.415405834686695
1734.006838,-25.226728827660956
1737.079372,81.41962151203553
1740.148067,34.124055135163545
1743.212938,56.03862409357247
1746.273996,113.8090274344411
1749.331252,34.78125912638296
1752.384718,97.04502523748015
1755.434408,36.68362420016595
1758.480332,37.87030215316602
1761.522503,52.110545953730146
1764.560933,-20.612231792764113
1767.595634,-43.82221592360899
1770.626618,-8.16960275260536
1773.653896,-2.0592349140833273
1776.677482,2.8880081834295144
1779.697388,39.859060438111406
1782.713625,-29.842049140394117
1785.726205,-5.906457176572843
1788.735141,-10.29528661799656
1791.740445,-28.32642857624969
1794.742129,9.910896263670525
1797.740206,15.072292075531639
1800.734687,68.54667561028862
1803.725585,20.921764228758878
1806.712912,87.45633537779713
1809.69668,144.19144569722812
1812.676902,29.35984097864875
1815.65359,11.509587896561914
1818.626756,-12.62250713713042
1821.596413,-12.212387447603767
1824.562573,-33.12246858198368
1827.525247,-31.719392009689592
1830.48445,40.16930748440417
1833.440192,13.394619180198294
1836.392487,0.04725665104612897
1839.341347,-4.720065473803006
1842.286784,-5.790651950347867
1845.22881,20.317705312740344
1848.167439,-6.4667080850273155
1851.102682,0.14178539051588324
1854.034553,-16.8374529510862
1856.963063,-8.289440517264618
1859.888226,1.9879007398310575
1862.810053,-10.282965669328519
1865.728557,78.20813958219577
1868.643751,38.678715008067456
1871.555648,-42.85931838185191
1874.46426,0.44565228919408195
1877.369599,16.53113140944895
1880.271679,-22.43230939226872
1883.170512,21.53519662693354
1886.06611,25.283638437453156
1888.958487,16.776279300433835
1891.847655,33.6466786002396
1894.733626,-52.883650303869366
1897.616414,-27.16116097156484
1900.496032,26.33496430733654
1903.372491,-19.451119498375093
1906.245805,-8.752271602293941
1909.115987,84.88465048255148
1911.983049,27.193932375372075
1914.847004,-23.204686492278658
1917.707866,68.88365205098253
1920.565646,93.62708151938115
1923.420359,81.04333061367541
1926.272016,18.85807972573796
1929.120631,6.18832642492104
1931.966216,52.28254219987748
1934.808786,2.867361679742622
1937.648351,1.0713949415119632
1940.484927,11.98331910953653
1943.318525,-28.58206034172822
1946.149158,66.42490684013254
1948.97684,-1.0047277504386471
1951.801584,-29.836913932742284
1954.623403,100.3012991625201
1957.44231,21.875420165675955
1960.258318,16.038309084298685
1963.071439,7.774877648907976
1965.881688,-42.292477929325635
1968.689078,35.191463019520825
1971.493621,-8.582334274895105
