Raman shift cm-1,4ATP_1fM_rep1_acc3_processed_intensity
-93.47115107,137.07917379361217
-87.69374369,93.4872372491192
-81.9253076,-26.961912268248277
-76.16582701,21.082747932419323
-70.41528615,121.9865606520117
-64.67366933,48.256879148724835
-58.94096086,-29.32914571040675
-53.21714512,-31.812433706675222
-47.50220652,25.52298446656698
-41.79612954,86.06246872223431
-36.09889866,34.27967187687415
-30.41049843,23.98014842040891
-24.73091343,25.828102370284
-19.0601283,-23.63179182512232
-13.39812769,18.701519353440517
-7.744896327,8.905201663838398
-2.100418946,-29.847342168147634
3.535319659,8.686881719613552
9.162334658,9.585957150630747
14.78064118,14.613040980940013
20.39025432,-13.037917889331425
25.99118913,-37.46900370555568
31.58346061,46.34644054114949
37.16708375,58.06774338546745
42.74207347,15.35440435199041
48.30844468,17.47088145706664
53.86621222,-23.98857959469092
59.41539093,-46.41126946233851
64.95599558,3.7489943177870373
70.48804091,62.18304281731457
76.01154164,46.98799275726901
81.52651243,-22.651321701305733
87.03296792,7.644153576946337
92.5309227,48.394908632685656
98.02039134,-13.300686271059249
103.5013884,-20.06068071430309
108.9739282,12.511604815799956
114.4380255,6.9231302262564895
119.8936944,33.72345071395648
125.3409495,31.112227004253782
130.779805,-7.052285137143826
136.2102753,8.102136730582288
141.6323747,21.793651922744402
147.0461174,56.44285806804146
152.4515176,113.91887807719422
157.8485895,144.05904902913335
163.2373472,250.15193461964827
168.6178049,342.73407754117784
173.9899766,362.7109936001041
179.3538764,483.01657402757223
184.7095182,616.7948939356945
190.0569161,626.9188726449593
195.396084,639.1536735720865
200.7270358,749.1388792907435
206.0497854,826.0530047180118
211.3643466,825.6659852953849
216.6707333,905.4298876331734
221.9689593,1042.1556775803547
227.2590382,1097.4405561570916
232.5409839,1148.7521748076329
237.8148101,1292.8536996589805
243.0805303,1375.2790866032656
248.3381582,1396.3024338584923
253.5877075,1541.2310875909475
258.8291917,1659.3737514626705
264.0626244,1639.54669479824
269.288019,1695.0488313433639
274.5053891,1842.6086583748515
279.7147481,1904.827166547083
284.9161094,1920.7166157321099
290.1094865,1912.150681443141
295.2948927,1716.3260641745758
300.4723414,1284.1503816714942
305.6418459,665.1243964863472
310.8034194,144.1249469710506
315.9570752,-18.010557189141707
321.1028267,-32.00516664402632
326.2406869,8.94168723731412
331.370669,88.25685023603042
336.4927863,19.031532014562284
341.6070517,-55.86397430379179
346.7134786,-11.650528351442883
351.8120798,31.00856838563391
356.9028684,43.81223023652305
361.9858576,14.94368371589448
367.0610602,17.12465026061615
372.1284892,85.21084059820468
377.1881577,183.3547588317204
382.2400784,573.49507739429
387.2842644,1200.990288658561
392.3207284,1485.9889892944468
397.3494833,1370.7140530389925
402.370542,1066.426762809074
407.3839172,636.9868020893122
412.3896217,368.1776322938525
417.3876683,230.23281825609888
422.3780697,50.478168850169936
427.3608386,-12.273214293165921
432.3359876,13.757101017905184
437.3035295,-1.2103992016187313
442.2634769,-23.12672211946507
447.2158423,-11.605667086729781
452.1606383,-1.066087564090635
457.0978776,5.186566430992454
462.0275727,34.445853768190815
466.9497361,20.009067557738632
471.8643802,6.55977358860238
476.7715176,85.07055719261076
481.6711608,143.30052058790454
486.5633221,75.62433476937171
491.448014,14.76375603859642
496.3252488,46.92472913331724
501.195039,-1.0868025399453778
506.0573969,-74.72694584138073
510.9123349,-29.66004380127817
515.7598651,10.74459829451407
520.6,18.969048758842455
525.4327518,35.106191151197194
530.2581327,55.09836284398071
535.076155,91.24418119160764
539.8868309,143.56345131017534
544.6901726,128.3131082790006
549.4861922,87.30438879259083
554.2749019,180.86233447213607
559.0563139,145.8119303984794
563.8304402,-8.421243526436719
568.597293,70.99797907847253
573.3568844,131.91524305363126
578.1092263,28.59906705326497
582.8543308,-30.05455013118123
587.5922101,-3.2789372473328147
592.322876,44.26305454377333
597.0463405,22.793065563304676
601.7626157,-11.035913112859582
606.4717135,5.2164210025300095
611.1736458,15.199457789758082
615.8684246,13.82270000410613
620.5560617,46.679829275862055
625.2365691,29.963679952040287
629.9099585,-71.96434218611148
634.5762419,-61.51647839199911
639.2354312,35.55344738259976
643.887538,80.96046519870998
648.5325743,93.23372739987148
653.1705518,64.3966766031827
657.8014823,35.68221503020987
662.4253775,10.369619676365765
667.0422493,1.4648919205011746
671.6521092,53.61882026314849
676.2549691,36.46069156509457
680.8508407,-32.917090541378116
685.4397355,-7.243311405810802
690.0216654,-9.501243532967695
694.5966419,-56.656168229729964
699.1646767,36.1470287123082
703.7257814,130.16715868560675
708.2799676,63.35766212884199
712.827247,18.379414133125948
717.367631,50.7928510047128
721.9011314,26.636921639053018
726.4277595,-8.624119016028112
730.9475271,1.954687008324914
735.4604456,27.595434074023096
739.9665264,52.43057002618563
744.4657813,11.158861852249355
748.9582215,-49.68349427549137
753.4438587,-24.696474136695358
757.9227042,7.808885391554808
762.3947696,-4.188092900897587
766.8600662,-12.814087284387233
771.3186056,-24.273568708701028
775.770399,-6.1869074289423605
780.215458,16.816956486131573
784.6537939,-3.5760307531136846
789.0854181,0.343031639808558
793.510342,25.920947816591884
797.9285769,91.02658326434369
802.3401342,128.85466744470727
806.7450253,70.56749644700332
811.1432614,50.04246643203862
815.5348538,21.997524884458606
819.9198139,2.58124053648762
824.2981531,31.43294259289059
828.6698824,-3.1013659113523246
833.0350133,11.315978383760772
837.393557,35.85118020841356
841.7455248,10.835617904125236
846.0909278,89.87624960431792
850.4297774,103.38420131462568
854.7620848,-54.426488974183755
859.0878611,-112.1813908755991
863.4071176,-0.6736228542259042
867.7198655,66.26097035799752
872.026116,13.279896320860924
876.3258802,15.799852079522168
880.6191693,76.66417380829998
884.9059946,46.916362478189335
889.186367,36.84932405823214
893.4602979,37.67069732070494
897.7277982,-14.644460349895974
901.9888793,1.4629280910273526
906.2435521,6.810179799822176
910.4918277,-8.15760131468579
914.7337174,12.566232274004062
918.9692321,-13.332847335918792
923.1983831,-41.69138979243284
927.4211813,7.495925425551057
931.6376378,90.32167248257899
935.8477637,81.38567581810703
940.0515701,16.38795236432451
944.249068,-11.000888880919128
948.4402684,-27.832745300284458
952.6251825,-11.353061054998275
956.8038212,23.34670268585637
960.9761955,26.817474139428434
965.1423166,18.466125496684278
969.3021953,5.15411785984589
973.4558427,-1.2359038889338976
977.6032699,43.668157283918376
981.7444877,67.73886642260815
985.8795072,16.859462683096186
990.0083394,-14.074529289804623
994.1309953,-10.613417703535628
998.2474857,6.394797847364124
1002.357822,6.774320488133652
1006.462014,-1.1109517595058875
1010.560075,48.01429078383273
1014.652013,67.60208070463848
1018.737841,-11.24415025139708
1022.81757,-66.33180359713693
1026.891209,27.976192515874164
1030.958771,122.14170399343153
1035.020266,62.74056322567873
1039.075705,3.3718606221175094
1043.1251,5.584705323547098
1047.16846,30.61660056353397
1051.205797,56.41134826014299
1055.237121,1.0364942262287187
1059.262444,-22.690307854436945
1063.281777,113.04267026536867
1067.295131,311.7278808380227
1071.302515,538.0386812248183
1075.303942,832.2182962653267
1079.299422,1025.1994487883585
1083.288966,889.7823990219218
1087.272585,474.7318905185483
1091.250289,96.7276311902996
1095.222091,24.692440437948708
1099.187999,63.579945727095065
1103.148026,12.32096478264151
1107.102183,7.830002560261917
1111.050479,-5.773847628231205
1114.992927,-23.405099031183056
1118.929536,14.604654156679404
1122.860318,-27.30929507933423
1126.785283,-47.39080449546481
1130.704443,36.685230096864196
1134.617808,142.2936329439005
1138.52539,256.03006140983103
1142.427198,238.93218876917717
1146.323244,99.03217252017609
1150.213538,81.60384730918943
1154.098093,78.18161118601216
1157.976917,-13.973638813630068
1161.850023,-13.631873619386198
1165.717421,31.191701552149823
1169.579121,81.378800310891
1173.435135,120.80757759229547
1177.285474,75.16759495713318
1181.130148,74.40463927275682
1184.969169,148.6731167567856
1188.802547,141.53344318885883
1192.630292,30.328640386428745
1196.452416,6.309631027490397
1200.26893,33.47560048413015
1204.079844,-0.38549641516170396
1207.88517,6.09855062679534
1211.684917,-29.398244489064552
1215.479098,-23.310505639359004
1219.267722,34.99145066015997
1223.050801,-39.368123943513424
1226.828346,-13.508256876877311
1230.600366,86.66749266173525
1234.366874,107.36093861361337
1238.12788,126.74368449673554
1241.883395,117.11907305107921
1245.633429,182.00843727106235
1249.377994,218.5369191288631
1253.1171,136.92739185223837
1256.850759,137.84732334420005
1260.578981,141.91660854886533
1264.301776,100.2579245365141
1268.019157,69.93797347784292
1271.731133,10.500419198616015
1275.437715,-20.77744742360379
1279.138915,-11.125733565633183
1282.834743,35.30990541628932
1286.52521,65.61715136074983
1290.210328,-4.596456176808736
1293.890106,-37.624884918320106
1297.564555,3.3829755821854093
1301.233688,33.39543204941907
1304.897514,112.87354424872471
1308.556044,180.74567356481558
1312.209289,119.57958614856827
1315.857261,1.0405158345156704
1319.499969,-32.703800408311615
1323.137425,13.852362470711295
1326.769641,15.500357170859699
1330.396626,13.792371540095992
1334.018391,56.03086407264759
1337.634948,44.69378950147618
1341.246307,0.9234346156126421
1344.85248,-18.26332431129375
1348.453477,-4.554031879751388
1352.049309,26.837942192949832
1355.639987,-9.146767264797017
1359.225522,-50.22955726485149
1362.805925,18.127318366481457
1366.381207,74.47303801551294
1369.951379,18.06968154849623
1373.516452,19.53687609194307
1377.076436,117.2976826868211
1380.631343,113.2885898659475
1384.181184,122.13487014069756
1387.725969,167.2579699626475
1391.26571,97.76177326234868
1394.800417,149.54555974069842
1398.330102,176.60454632588588
1401.854776,19.561946900580665
1405.374448,11.92885766872006
1408.889132,1.572904415414012
1412.398837,-74.0929376497985
1415.903574,-7.258338613342431
1419.403355,67.05616580452396
1422.89819,115.03840537078266
1426.388091,128.5172853550958
1429.873069,89.84248856124132
1433.353134,92.87667465326274
1436.828298,69.77202000206435
1440.298571,13.703251226745222
1443.763965,31.49651325677036
1447.224491,30.79191611541743
1450.68016,11.898338521503408
1454.130983,73.76153863869402
1457.576971,60.405557853551414
1461.018135,-26.38970116616822
1464.454486,-33.21697869689639
1467.886036,-8.683704080450738
1471.312794,-7.829418787174497
1474.734774,-13.78485820467759
1478.151985,45.59226308058366
1481.564439,114.76352254063102
1484.972146,50.156326196126685
1488.375119,-2.882471771731015
1491.773368,36.35132556988198
1495.166904,13.594078693782098
1498.555739,-13.070527367737435
1501.939883,15.020003902543248
1505.319349,10.766544482068575
1508.694146,-13.307377937640783
1512.064286,-2.7798694211665236
1515.429781,-0.17778850002587276
1518.790642,-33.796521360832834
1522.146879,5.367680922395866
1525.498505,25.555432553538154
1528.845529,-29.330946221366787
1532.187965,6.336342670390003
1535.525822,24.89378369550692
1538.859112,-1.0039168656756545
1542.187846,5.330725042732931
1545.512036,20.528312110503034
1548.831693,95.5820039604832
1552.146829,67.73287637998408
1555.457453,-23.052432670902924
1558.763579,78.6475684700078
1562.065216,220.09155316748553
1565.362377,294.7785189100513
1568.655073,351.0702338500671
1571.943315,365.29705121081724
1575.227114,417.9046489816381
1578.506482,473.52592200768026
1581.781431,484.4457804362635
1585.051971,585.5018319656291
1588.318114,689.8245409040284
1591.579872,714.397682043768
1594.837255,681.7601583463813
1598.090275,431.7511862286867
1601.338945,278.56576686009953
1604.583274,279.7002301226351
1607.823275,-17.31971097782447
1611.058959,-42.65819291462762
1614.290338,190.30720923652572
1617.517422,9.091841880185392
1620.740224,-32.72043021637431
1623.958755,92.6353590837258
1627.173027,19.88943551072329
1630.38305,28.816189728713724
1633.588838,35.90868041697365
1636.7904,31.233421385715857
1639.987749,64.87192310140605
1643.180896,-11.871517590189754
1646.369853,-23.442432193603842
1649.554632,62.302451627874014
1652.735244,78.33752252535069
1655.9117,52.78947109523276
1659.084013,9.703503775831201
1662.252193,-20.829454661112454
1665.416254,-9.230720425466536
1668.576205,15.192384375349178
1671.732059,28.058323960861294
1674.883828,-3.7233105044563386
1678.031523,-10.07835739854308
1681.175157,18.641778193379515
1684.314739,-16.899659029554687
1687.450284,-24.365046597870464
1690.581801,63.2765435107704
1693.709304,82.27094831939033
1696.832803,26.164143590493904
1699.952311,64.76604973676783
1703.067839,133.61648438273497
1706.179399,119.55257324432264
1709.287003,98.28083202267564
1712.390663,103.01878561737398
1715.49039,75.68211156976771
1718.586197,6.547074223746705
1721.678095,-40.70626948528552
1724.766096,-26.273128001739494
1727.850213,-6.274177938052382
1730.930456,-18.79269669454699
1734.006838,5.539988543119847
1737.079372,34.42529934180634
1740.148067,18.597846327040035
1743.212938,44.63452932740091
1746.273996,81.61135373623797
1749.331252,63.621416987409674
1752.384718,21.830371898149117
1755.434408,0.46080508579435775
1758.480332,6.789620559796811
1761.522503,14.646058325995927
1764.560933,-3.8528696835404466
1767.595634,-33.93780833091961
1770.626618,13.910348950643826
1773.653896,66.48841332346139
1776.677482,14.493924592201857
1779.697388,-22.538191368355086
1782.713625,52.17679904106944
1785.726205,84.12095617858317
1788.735141,-15.307954884338978
1791.740445,-28.111150677839504
1794.742129,37.01667420215003
1797.740206,87.53398297316828
1800.734687,162.4863972251676
1803.725585,125.66501299633828
1806.712912,82.86668509379247
1809.69668,104.51234147604673
1812.676902,11.573846491179845
1815.65359,-20.051742732203667
1818.626756,60.21229840270385
1821.596413,19.80542068530672
1824.562573,-8.276034327147357
1827.525247,52.60019519642527
1830.48445,24.591802306259982
1833.440192,-0.6883954646292684
1836.392487,8.35329581924549
1839.341347,-53.00833754171444
1842.286784,-48.61573536953503
1845.22881,33.029663703193954
1848.167439,36.95100042901363
1851.102682,3.355166625477481
1854.034553,7.521291544847519
1856.963063,26.541581683500628
1859.888226,10.800528563464344
1862.810053,-39.05138302467274
1865.728557,-8.399479371591656
1868.643751,27.547859769554343
1871.555648,-40.35321555626095
1874.46426,-10.964214325544498
1877.369599,44.93197262065189
1880.271679,-10.721189200642257
1883.170512,11.901598414846088
1886.06611,32.21807454057871
1888.958487,-8.183294799686697
1891.847655,18.369244894095445
1894.733626,-1.4707240770789793
1897.616414,-31.056110242398955
1900.496032,23.609678315051497
1903.372491,-5.22922795102214
1906.245805,-36.68147174019148
1909.115987,53.554174458609836
1911.983049,55.03143529154767
1914.847004,1.0099564178194202
1917.707866,37.12027200210958
1920.565646,24.132809586310643
1923.420359,1.8339744655342125
1926.272016,29.284447419255336
1929.120631,-47.04950078327703
1931.966216,-67.71898607927452
1934.808786,34.30705609704772
1937.648351,14.782528813451622
1940.484927,-4.240173495433455
1943.318525,76.19232529964533
1946.149158,113.546777623963
1948.97684,121.63444364355169
1951.801584,73.51930167953618
1954.623403,29.165673771815147
1957.44231,66.35342480100525
1960.258318,5.1754968930966605
1963.071439,-52.09045658528754
1965.881688,5.275577654554478
1968.689078,18.588472281616202
1971.493621,75.55094215139813
