Raman shift cm-1,4ATP_10uM_rep3_acc3_processed_intensity
-93.47115107,1.8470558737377871
-87.69374369,13.207146350525214
-81.9253076,15.49734620684763
-76.16582701,35.435489788929885
-70.41528615,38.48295952123425
-64.67366933,-7.791792252665843
-58.94096086,-38.8397772659557
-53.21714512,0.45846079707789045
-47.50220652,73.4852527931117
-41.79612954,116.12484845680524
-36.09889866,112.89969237902665
-30.41049843,82.6363061303212
-24.73091343,46.697294877600314
-19.0601283,38.03357398088764
-13.39812769,53.23938648124363
-7.744896327,63.87145433461933
-2.100418946,94.40625954326276
3.535319659,117.44586303145934
9.162334658,53.51046388335658
14.78064118,-22.799228365719046
20.39025432,1.2668633778683898
25.99118913,56.13291025025637
31.58346061,48.03222641280581
37.16708375,14.15727260242818
42.74207347,4.440254944571393
48.30844468,5.495809627080803
53.86621222,5.6548605335337925
59.41539093,16.79832198467477
64.95599558,37.21714180053175
70.48804091,58.70715817867597
76.01154164,101.17222007179646
81.52651243,172.5635514696595
87.03296792,209.5985817917948
92.5309227,181.31807791405765
98.02039134,179.824438204133
103.5013884,245.50256942426347
108.9739282,292.665387648394
114.4380255,307.1464550380764
119.8936944,353.7311395700506
125.3409495,421.8521703998779
130.779805,464.8189931086539
136.2102753,486.0570481767169
141.6323747,518.6757402477502
147.0461174,584.7487709859026
152.4515176,668.3857151281301
157.8485895,737.9207520189635
163.2373472,785.538844252606
168.6178049,824.9309306290198
173.9899766,884.2315376341495
179.3538764,975.368225028082
184.7095182,1063.642282181501
190.0569161,1115.1352078218474
195.396084,1136.4058704129948
200.7270358,1153.8699465278196
206.0497854,1206.2002045083884
211.3643466,1314.0652132134608
216.6707333,1417.5334355867203
221.9689593,1448.7822558253965
227.2590382,1459.5499852016203
232.5409839,1517.8088403462948
237.8148101,1575.9701759966695
243.0805303,1602.7183776105937
248.3381582,1661.6397827633068
253.5877075,1763.4103226080313
258.8291917,1849.156173181678
264.0626244,1915.6002465742417
269.288019,1986.2376972395887
274.5053891,2038.7737041278313
279.7147481,2057.0070476196697
284.9161094,2053.8825986748143
290.1094865,2002.7784972258685
295.2948927,1800.9307548040895
300.4723414,1339.0697998865587
305.6418459,690.9065575187124
310.8034194,170.24665851493643
315.9570752,-20.225015346393445
321.1028267,-17.834390542292855
326.2406869,18.103851466206418
331.370669,57.548567936262245
336.4927863,39.23965098560683
341.6070517,5.796424180778885
346.7134786,95.79108357079848
351.8120798,224.33264637845502
356.9028684,266.34881060639225
361.9858576,328.9865269973388
367.0610602,450.45608571535325
372.1284892,598.2359581167607
377.1881577,1145.6743604759959
382.2400784,2553.0194743793404
387.2842644,4342.495437473905
392.3207284,5241.690441208799
397.3494833,4673.814588725063
402.370542,3295.38532422679
407.3839172,1979.2066102936676
412.3896217,1079.0002259302937
417.3876683,573.928234930897
422.3780697,325.0327882771825
427.3608386,191.53813977628351
432.3359876,87.10073909837291
437.3035295,5.6674872304794235
442.2634769,-14.627883778210734
447.2158423,10.553762207349461
452.1606383,19.041483100249167
457.0978776,-2.6539171224607063
462.0275727,-17.16089240396066
466.9497361,-6.003895819700347
471.8643802,6.413895287697631
476.7715176,0.4198326304689646
481.6711608,-11.91018947860738
486.5633221,-14.428953472516055
491.448014,0.5294442869596665
496.3252488,15.504711009309126
501.195039,15.156634889206238
506.0573969,26.54401218719073
510.9123349,30.70839377490889
515.7598651,-2.4847533414197898
520.6,9.347063074141033
525.4327518,93.70278199750629
530.2581327,149.2088490012217
535.076155,147.11098192462075
539.8868309,132.0268316199864
544.6901726,127.28678768129565
549.4861922,125.59920520910424
554.2749019,77.68169483426651
559.0563139,1.8642422243122632
563.8304402,7.020626017302229
568.597293,85.12857908991063
573.3568844,118.15448959442277
578.1092263,89.48798728451246
582.8543308,61.79850259576402
587.5922101,54.78912311105533
592.322876,61.0866472447652
597.0463405,50.8670042759076
601.7626157,-3.478351275067965
606.4717135,-31.438502522413046
611.1736458,43.04358019275296
615.8684246,128.76173830414393
620.5560617,92.58174977289758
625.2365691,-0.7340227376302089
629.9099585,40.44400334839639
634.5762419,223.2300565288151
639.2354312,326.7697431305476
643.887538,264.8758166160692
648.5325743,195.91193163929492
653.1705518,180.57872539663902
657.8014823,131.3854676757776
662.4253775,70.2079383063985
667.0422493,69.21912680190994
671.6521092,91.80656395659749
676.2549691,82.20903886888307
680.8508407,45.81520409793765
685.4397355,14.942786114250424
690.0216654,11.39262620887375
694.5966419,21.563057067437427
699.1646767,34.658155834625504
703.7257814,77.01107560858696
708.2799676,126.73083756405185
712.827247,100.27679750716223
717.367631,8.078212333354706
721.9011314,-35.94619308401799
726.4277595,-8.700959099763672
730.9475271,5.16525447957196
735.4604456,-7.165287524826096
739.9665264,-2.051249435345908
744.4657813,-1.5407481838682047
748.9582215,-7.1794818874827895
753.4438587,17.722343058723066
757.9227042,27.69250778025715
762.3947696,0.9607985361520512
766.8600662,11.549300879053167
771.3186056,63.3867816594515
775.770399,102.47708127743597
780.215458,119.47100939707802
784.6537939,105.68263865077694
789.0854181,111.56773330191734
793.510342,245.20936505680027
797.9285769,448.0953289725642
802.3401342,537.0600875456179
806.7450253,485.2078466773646
811.1432614,408.9216676968044
815.5348538,371.618226952967
819.9198139,358.07466708350023
824.2981531,349.9446848975738
828.6698824,331.8790550944641
833.0350133,276.9249190974839
837.393557,204.75587286896322
841.7455248,169.7152042090282
846.0909278,143.58565135950045
850.4297774,64.6069207425507
854.7620848,-23.14054385014039
859.0878611,-25.495082515713015
863.4071176,59.49775886208898
867.7198655,123.18409956614491
872.026116,90.68483315256015
876.3258802,28.783829841822968
880.6191693,10.873315110973639
884.9059946,4.704124707579027
889.186367,-5.852457314063756
893.4602979,15.24477277260975
897.7277982,41.10692484902569
901.9888793,30.22638923417199
906.2435521,11.226238130265827
910.4918277,0.897278393248996
914.7337174,-8.221656712408759
918.9692321,-0.39219454537766296
923.1983831,19.98336002288113
927.4211813,53.211766937867566
931.6376378,113.77866781569983
935.8477637,153.17370315060538
940.0515701,146.05301413794044
944.249068,151.01661584968286
948.4402684,176.37576592364448
952.6251825,200.97409203703037
956.8038212,258.54474942194344
960.9761955,331.1372878415396
965.1423166,356.33817632626375
969.3021953,355.6751200153117
973.4558427,355.39373827673745
977.6032699,329.0962348241353
981.7444877,304.26755112664074
985.8795072,303.04123554751914
990.0083394,288.2803133990459
994.1309953,314.43160519175916
998.2474857,463.72922449553863
1002.357822,623.3914265811339
1006.462014,602.7461420353958
1010.560075,401.0665101510487
1014.652013,169.391864068195
1018.737841,14.650829925871989
1022.81757,-39.151722754121906
1026.891209,-19.424765114145437
1030.958771,9.487700279229493
1035.020266,20.036287606155835
1039.075705,41.45995430865449
1043.1251,67.1370831924822
1047.16846,65.07937421648481
1051.205797,68.84463422986397
1055.237121,110.86141820473811
1059.262444,154.9048036464007
1063.281777,251.65236301271992
1067.295131,664.5989321210413
1071.302515,1660.1469938143168
1075.303942,3014.4284479876414
1079.299422,3850.7585354830667
1083.288966,3454.010989326647
1087.272585,2176.0332203410967
1091.250289,983.150317339552
1095.222091,358.4099210752133
1099.187999,140.53163829448098
1103.148026,60.83679005217917
1107.102183,14.050473982955982
1111.050479,-3.4833533089133946
1114.992927,7.583208837661533
1118.929536,18.971104444014045
1122.860318,-2.5656882122496043
1126.785283,-39.54477744695459
1130.704443,2.9857120187944
1134.617808,151.97849646285837
1138.52539,257.73061685475074
1142.427198,223.5552384247191
1146.323244,149.74325100318597
1150.213538,123.76999310385162
1154.098093,132.2300083574796
1157.976917,157.0036522758886
1161.850023,180.68020870176062
1165.717421,202.22394504770276
1169.579121,269.891136564215
1173.435135,398.5937293950086
1177.285474,530.1193509151034
1181.130148,609.3535060007428
1184.969169,580.7380053741563
1188.802547,408.0342500885364
1192.630292,194.19932062395725
1196.452416,68.12733308451989
1200.26893,17.80682463132195
1204.079844,17.529865271648656
1207.88517,52.71179101893555
1211.684917,33.142467770344034
1215.479098,-26.846473907138787
1219.267722,-5.936457953529796
1223.050801,56.12538158301966
1226.828346,76.21689278249355
1230.600366,115.27260777067583
1234.366874,165.83663878447044
1238.12788,151.09163726789143
1241.883395,148.69652407487584
1245.633429,221.56436567595725
1249.377994,255.6676669957274
1253.1171,196.78111323300874
1256.850759,134.98374086570297
1260.578981,113.46075989072136
1264.301776,100.85922985154355
1268.019157,71.83577852440138
1271.731133,17.974384514008896
1275.437715,-19.177025207964885
1279.138915,9.852322145894723
1282.834743,49.50824405995256
1286.52521,26.5872708431288
1290.210328,-12.87266670787677
1293.890106,-13.149193405615115
1297.564555,-4.254075311205755
1301.233688,-2.421521522088584
1304.897514,17.366410976352412
1308.556044,43.06260949217224
1312.209289,36.4325481324629
1315.857261,9.736491113746945
1319.499969,21.75772747762727
1323.137425,76.93840931389063
1326.769641,103.75963665986592
1330.396626,73.84303148600769
1334.018391,31.835515751521466
1337.634948,0.5018805753174762
1341.246307,-20.720812876602665
1344.85248,-9.929817317351604
1348.453477,34.41097549126935
1352.049309,58.16614957778619
1355.639987,14.381721402664713
1359.225522,-33.84998521192277
1362.805925,17.95516929466546
1366.381207,105.02133840233793
1369.951379,86.46698710627116
1373.516452,20.411235038676953
1377.076436,45.679688594287
1380.631343,130.23594350186175
1384.181184,174.11280178139722
1387.725969,171.54403795802523
1391.26571,152.56902524192978
1394.800417,128.34543126416162
1398.330102,109.47902163155767
1401.854776,88.78192541877974
1405.374448,47.378507037771776
1408.889132,-2.714754516950059
1412.398837,-15.640777580970656
1415.903574,37.768803251178184
1419.403355,117.67416838026526
1422.89819,163.47370231121818
1426.388091,176.64401252062805
1429.873069,176.15551668993882
1433.353134,156.38036169682428
1436.828298,131.65241048703615
1440.298571,101.17658404756563
1443.763965,42.00944804320946
1447.224491,6.628782447789163
1450.68016,43.267320725773054
1454.130983,68.54379069145483
1457.576971,21.45321482382443
1461.018135,-22.54998713484232
1464.454486,-14.505479564065816
1467.886036,2.4317644400749465
1471.312794,0.7940290701136838
1474.734774,-4.37693925254602
1478.151985,16.117154279318587
1481.564439,75.97133041309904
1484.972146,147.60836527361408
1488.375119,195.607259487126
1491.773368,184.9866774599116
1495.166904,100.0660380112977
1498.555739,17.262859067000544
1501.939883,13.162967160480218
1505.319349,32.45420606930832
1508.694146,8.088895546915372
1512.064286,-20.217664996908475
1515.429781,-2.1388602249853363
1518.790642,37.428863689720494
1522.146879,37.513356784237615
1525.498505,-11.78127327938137
1528.845529,-36.335542242875
1532.187965,9.438942514902582
1535.525822,46.66868078779165
1538.859112,19.784090624134322
1542.187846,12.378709600426033
1545.512036,52.09803644102333
1548.831693,37.458192197571556
1552.146829,-20.251296698652247
1555.457453,10.17518470596176
1558.763579,131.12211421500683
1562.065216,249.3722805730133
1565.362377,352.1310034262714
1568.655073,452.3986132822748
1571.943315,533.8056901558648
1575.227114,623.0557362815802
1578.506482,777.3762830825875
1581.781431,1017.2982766250775
1585.051971,1321.853971564428
1588.318114,1625.6475339242431
1591.579872,1786.9533623750012
1594.837255,1654.104699202087
1598.090275,1254.25005957661
1601.338945,788.1139494949554
1604.583274,382.9212198376862
1607.823275,96.50522144147445
1611.058959,18.037430779360918
1614.290338,45.898048160015286
1617.517422,-7.199018616524718
1620.740224,-39.86671988173165
1623.958755,46.30334985641153
1627.173027,83.59924907118737
1630.38305,20.641206581868403
1633.588838,-6.470928963948573
1636.7904,15.214210248654119
1639.987749,15.084885033192094
1643.180896,9.911089215741569
1646.369853,26.706214568063004
1649.554632,34.94427849431547
1652.735244,33.22339260864905
1655.9117,39.44670871463071
1659.084013,20.284511296133893
1662.252193,-26.024958977963323
1665.416254,-35.390788063621045
1668.576205,10.364758999065588
1671.732059,73.90620310360106
1674.883828,109.68166689212413
1678.031523,73.36951011611326
1681.175157,4.5921373415885185
1684.314739,9.943686384569006
1687.450284,77.00630597156179
1690.581801,96.5429092552288
1693.709304,71.99677798965332
1696.832803,85.17127576319987
1699.952311,123.57998966812285
1703.067839,133.09772845398612
1706.179399,125.17012217179234
1709.287003,117.90131789567633
1712.390663,104.18325107096071
1715.49039,92.71650960009138
1718.586197,75.05643302388026
1721.678095,31.8844748962781
1724.766096,-6.771160169902515
1727.850213,-20.179990460417116
1730.930456,-15.775560988133293
1734.006838,18.583580974159887
1737.079372,53.38225532366014
1740.148067,65.2778893441964
1743.212938,107.78728916175142
1746.273996,153.17535899200584
1749.331252,103.25746257936667
1752.384718,7.756892849878555
1755.434408,7.933810361293714
1758.480332,99.80069513301089
1761.522503,134.83474754124055
1764.560933,64.27871299440359
1767.595634,15.09659319995081
1770.626618,45.02650806078576
1773.653896,55.125810641873905
1776.677482,15.840322288090167
1779.697388,0.0552630867191688
1782.713625,-1.2762020979089677
1785.726205,-26.925322375130655
1788.735141,-14.411531901196145
1791.740445,54.01637801505912
1794.742129,81.11577906355276
1797.740206,54.76352614558732
1800.734687,47.55189973649095
1803.725585,62.030835410395994
1806.712912,72.09342873731619
1809.69668,64.95677112884532
1812.676902,37.077840743801985
1815.65359,21.33505075819531
1818.626756,16.168773233431526
1821.596413,-3.7574397039046055
1824.562573,5.931267109573069
1827.525247,44.59326882755803
1830.48445,27.959969158137945
1833.440192,-19.0739397901157
1836.392487,-15.088424255302437
1839.341347,3.018308647516644
1842.286784,4.602798900354879
1845.22881,30.69141096560279
1848.167439,50.1783554765821
1851.102682,13.141380641921579
1854.034553,-27.44417724377094
1856.963063,-12.11437019749447
1859.888226,33.8789529180075
1862.810053,55.40401028606497
1865.728557,37.26740953717654
1868.643751,15.721153878503491
1871.555648,17.37735750129073
1874.46426,16.654410813551543
1877.369599,3.4862095682023773
1880.271679,3.7195521878949367
1883.170512,4.450563296566056
1886.06611,-11.928446619060374
1888.958487,-13.278362294711025
1891.847655,-1.6289348718363872
1894.733626,-12.61509708365646
1897.616414,-23.673341526107794
1900.496032,-11.87947994168725
1903.372491,-0.148396006095723
1906.245805,10.36016247732459
1909.115987,19.435275258217303
1911.983049,10.095484783269384
1914.847004,1.066642998729407
1917.707866,13.212221011898505
1920.565646,38.50557764272099
1923.420359,48.57235562783957
1926.272016,10.396018386829402
1929.120631,-23.080940114380876
1931.966216,18.559368785147054
1934.808786,52.283828534349
1937.648351,4.136836808479954
1940.484927,-29.322735026263757
1943.318525,1.4273186019279631
1946.149158,13.456161995701365
1948.97684,-11.463964034118295
1951.801584,-8.855858347273916
1954.623403,28.34719877724459
1957.44231,43.36980491131232
1960.258318,10.241941232194115
1963.071439,-15.873328095637449
1965.881688,16.250382323487713
1968.689078,44.239402813476204
1971.493621,0.5704678999011197
