Raman shift cm-1,4ATP_1fM_rep2_acc3_processed_intensity
-93.47115107,-3.3411995976985267
-87.69374369,3.475495521553035
-81.9253076,51.57851637053029
-76.16582701,136.70581142927944
-70.41528615,216.74736997608977
-64.67366933,258.7951901147109
-58.94096086,274.3467755448163
-53.21714512,302.8778643629601
-47.50220652,360.0353729583974
-41.79612954,428.6152107556281
-36.09889866,498.0056421998457
-30.41049843,564.1677877190003
-24.73091343,608.3220970555764
-19.0601283,628.6446417824253
-13.39812769,659.4186171343575
-7.744896327,719.1289583911391
-2.100418946,779.299480107395
3.535319659,814.7889867714334
9.162334658,847.6767857377043
14.78064118,906.6001012363427
20.39025432,976.2853620376476
25.99118913,1023.9953417141502
31.58346061,1045.0000949132166
37.16708375,1057.531456023224
42.74207347,1080.1157425340932
48.30844468,1126.098854357669
53.86621222,1196.6626661748496
59.41539093,1269.5975206977123
64.95599558,1317.0715641908123
70.48804091,1340.02566083459
76.01154164,1365.4042214638098
81.52651243,1413.575523045273
87.03296792,1480.6750828956808
92.5309227,1543.680622706085
98.02039134,1583.0379521297373
103.5013884,1605.1975962779004
108.9739282,1630.4691941453557
114.4380255,1664.9112991792654
119.8936944,1704.2821349162423
125.3409495,1749.6989633845585
130.779805,1800.0179672662446
136.2102753,1847.2027548723886
141.6323747,1889.1329747263785
147.0461174,1930.1990774030298
152.4515176,1970.0528985181065
157.8485895,2009.4973660659027
163.2373472,2060.2557932521113
168.6178049,2122.7493345078124
173.9899766,2168.372398312986
179.3538764,2183.430069412579
184.7095182,2200.324240237693
190.0569161,2239.998299174563
195.396084,2275.167899110214
200.7270358,2287.6864799506334
206.0497854,2304.168132770455
211.3643466,2348.162418028395
216.6707333,2399.5903177291466
221.9689593,2425.8916611527247
227.2590382,2432.1744283579033
232.5409839,2451.1756489531417
237.8148101,2490.076500278126
243.0805303,2522.52818417281
248.3381582,2534.4990471907217
253.5877075,2543.620972767018
258.8291917,2572.2521805778024
264.0626244,2622.600731175244
269.288019,2670.4327877879728
274.5053891,2687.512216301223
279.7147481,2687.167303429291
284.9161094,2696.669876132915
290.1094865,2642.739870592143
295.2948927,2352.8040156769
300.4723414,1757.4995383244304
305.6418459,1039.1218477714758
310.8034194,494.3453651263386
315.9570752,256.98560748647697
321.1028267,214.34742681526654
326.2406869,189.15671596568822
331.370669,119.29509054408624
336.4927863,43.13091642815549
341.6070517,0.2179955508416178
346.7134786,-6.548887484134909
351.8120798,3.9567930136206044
356.9028684,8.288020459602299
361.9858576,-2.807671321860873
367.0610602,-6.521040153928265
372.1284892,41.0250735854479
377.1881577,174.1677700357678
382.2400784,386.5805094321433
387.2842644,605.017643849292
392.3207284,722.4370249622467
397.3494833,686.4714692363945
402.370542,532.5246388191842
407.3839172,340.69563712215694
412.3896217,183.35720263134775
417.3876683,88.10013520037431
422.3780697,36.15389757654181
427.3608386,4.754704747889465
432.3359876,-5.5071953235314695
437.3035295,2.3521521471494635
442.2634769,5.527074563764923
447.2158423,2.8835368811682405
452.1606383,26.366741478150242
457.0978776,75.20453843513117
462.0275727,100.53438838966285
466.9497361,89.67071400710556
471.8643802,90.29733229659222
476.7715176,120.24563343238208
481.6711608,131.52293509410327
486.5633221,92.27147529797676
491.448014,35.71000267842984
496.3252488,3.518947548379476
501.195039,-4.267536855010228
506.0573969,-7.076690792477212
510.9123349,-6.370678440055414
515.7598651,21.77755017935637
520.6,92.6226201925386
525.4327518,171.18054120307806
530.2581327,202.07699808438994
535.076155,178.57837978635905
539.8868309,142.66598878517658
544.6901726,131.3592502498957
549.4861922,146.9850905933008
554.2749019,158.74416310076575
559.0563139,128.37877286153446
563.8304402,60.11674244762518
568.597293,10.42177633437861
573.3568844,16.905364245123028
578.1092263,47.43045603460545
582.8543308,51.33778262075014
587.5922101,25.601905833365027
592.322876,0.9281993616389288
597.0463405,-3.2603199108703027
601.7626157,18.821709731942146
606.4717135,65.51445676215204
611.1736458,109.38390174057076
615.8684246,108.07217374326086
620.5560617,56.31551083379655
625.2365691,3.7735315462643526
629.9099585,1.6255776665394515
634.5762419,42.44161253454887
639.2354312,72.62878696295748
643.887538,58.856301688055794
648.5325743,19.598890815496638
653.1705518,-7.667375032842557
657.8014823,-2.05897226192209
662.4253775,37.883731482997675
667.0422493,90.3667967950508
671.6521092,117.45818029653243
676.2549691,107.83398196676339
680.8508407,84.74749889988225
685.4397355,59.61545683789691
690.0216654,27.32471194044372
694.5966419,2.7455580563265443
699.1646767,8.574932046013476
703.7257814,38.406832357990574
708.2799676,60.62928516466259
712.827247,46.75392071926908
717.367631,5.0702835278621805
721.9011314,-13.75929529109547
726.4277595,17.162761475347356
730.9475271,56.556413445687966
735.4604456,61.773369188866496
739.9665264,48.933452668469165
744.4657813,46.61539566680314
748.9582215,45.55439513257306
753.4438587,26.80619925077948
757.9227042,0.4581626009335693
762.3947696,-8.657432932121743
766.8600662,4.874358555831726
771.3186056,26.64304502393182
775.770399,43.391079147429075
780.215458,44.20534563955997
784.6537939,22.9465224175329
789.0854181,1.3284995538779363
793.510342,18.459738781196652
797.9285769,80.73582519125779
802.3401342,144.06626419471812
806.7450253,155.73349373067987
811.1432614,107.69836391295799
815.5348538,41.126072113705874
819.9198139,7.297006372529804
824.2981531,32.511287438818854
828.6698824,94.68971498880103
833.0350133,131.2793787968161
837.393557,105.71403433557907
841.7455248,51.31917911497288
846.0909278,18.45499679389274
850.4297774,10.800231652463353
854.7620848,1.2575762478120112
859.0878611,-14.044245875088556
863.4071176,-2.786053363816542
867.7198655,55.222090421050915
872.026116,120.13767537838237
876.3258802,131.2312538446649
880.6191693,96.98255027836257
884.9059946,85.94385904068254
889.186367,114.83654207079636
893.4602979,127.40936591767053
897.7277982,101.11352962026294
901.9888793,75.23604008048005
906.2435521,61.94615997486778
910.4918277,34.4742578111261
914.7337174,-1.8443162206211525
918.9692321,-14.463411457223927
923.1983831,7.361566618233628
927.4211813,53.54652974489419
931.6376378,100.81594367371798
935.8477637,115.905016620304
940.0515701,86.98809906620257
944.249068,39.35273728194722
948.4402684,7.429344653226623
952.6251825,5.496274580104398
956.8038212,22.98092827834375
960.9761955,38.563189229698345
965.1423166,43.60374245043557
969.3021953,50.7549294850464
973.4558427,68.27227097994566
977.6032699,79.10673160602273
981.7444877,63.82130869675875
985.8795072,28.926532246962665
990.0083394,2.2870508150134494
994.1309953,3.991636511962696
998.2474857,20.669623390592584
1002.357822,25.352305462056467
1006.462014,24.33301204042229
1010.560075,45.03476500158984
1014.652013,71.54769294164153
1018.737841,52.963737034938774
1022.81757,-1.6550385864386286
1026.891209,-14.722774181436527
1030.958771,40.49948015116512
1035.020266,99.21692027497514
1039.075705,111.94496947894753
1043.1251,105.4636034042131
1047.16846,111.69076570909851
1051.205797,109.23291193123677
1055.237121,67.29821990839586
1059.262444,8.009376063716331
1063.281777,-2.367888023389064
1067.295131,80.40889172064894
1071.302515,228.39759490563642
1075.303942,357.41273432153554
1079.299422,391.3486410369852
1083.288966,314.89712148230893
1087.272585,176.13495539708433
1091.250289,51.125943205753785
1095.222091,-4.677602147152136
1099.187999,3.7361614342733063
1103.148026,24.453807337327255
1107.102183,20.915614928919684
1111.050479,2.891309217454573
1114.992927,-3.465366934745802
1118.929536,4.035748023701613
1122.860318,4.0579866675782394
1126.785283,-6.770336060143045
1130.704443,-0.9826532446952019
1134.617808,26.734047612850055
1138.52539,35.59911434215533
1142.427198,8.403945731918617
1146.323244,-7.255484459858314
1150.213538,23.16341757057918
1154.098093,62.77873971440752
1157.976917,70.17801779084135
1161.850023,61.30889610849875
1165.717421,66.93782268309069
1169.579121,83.44845558165395
1173.435135,91.60711236361473
1177.285474,87.74055135094089
1181.130148,79.75895116654904
1184.969169,71.81222382421132
1188.802547,63.276067894448545
1192.630292,51.66579043450675
1196.452416,33.01184619371115
1200.26893,10.77597036472883
1204.079844,-1.5672985063498075
1207.88517,-0.5796454940804097
1211.684917,0.602206923021896
1215.479098,-4.5995857590457945
1219.267722,-6.300578047160812
1223.050801,7.373067741044238
1226.828346,38.64191212085762
1230.600366,75.9776042109186
1234.366874,102.32322702329716
1238.12788,117.39898902618782
1241.883395,136.26584093554476
1245.633429,150.93066161930142
1249.377994,127.14941929292755
1253.1171,68.13005825433542
1256.850759,34.13010146358959
1260.578981,56.49780462297935
1264.301776,83.24593936559562
1268.019157,55.71890559185202
1271.731133,-3.1634818840218344
1275.437715,-24.752265297659378
1279.138915,2.8742711160870584
1282.834743,26.16830662818961
1286.52521,17.204450373983292
1290.210328,4.1740786238474215
1293.890106,8.28787184033525
1297.564555,19.136711173162553
1301.233688,28.284983238238908
1304.897514,33.96454013660347
1308.556044,25.19826113331393
1312.209289,3.886831692076477
1315.857261,2.213683065363469
1319.499969,32.820624467642105
1323.137425,53.97684811758684
1326.769641,35.84940386369192
1330.396626,10.865648253266963
1334.018391,8.256692224198552
1337.634948,6.289408288502042
1341.246307,-9.773552605884056
1344.85248,-14.630747965972999
1348.453477,4.378926707436472
1352.049309,23.025753172650106
1355.639987,28.084409952023094
1359.225522,44.50419432385729
1362.805925,86.54751154594581
1366.381207,111.54177179620015
1369.951379,74.55807120952377
1373.516452,9.73893622151098
1377.076436,-12.009280514692982
1380.631343,18.777090931939135
1384.181184,61.11651130519914
1387.725969,91.15695060475022
1391.26571,106.6752488095959
1394.800417,106.16030913146199
1398.330102,93.15707008852516
1401.854776,75.03222365213762
1405.374448,56.02194641241318
1408.889132,43.88011928880019
1412.398837,48.10214731943099
1415.903574,66.77461228981491
1419.403355,86.0232029676822
1422.89819,93.57063700389658
1426.388091,95.74576949562777
1429.873069,112.067086119553
1433.353134,138.08035171647316
1436.828298,137.05502957935687
1440.298571,90.9800281565086
1443.763965,29.99687789972645
1447.224491,-7.805463947576293
1450.68016,-12.685177296484994
1454.130983,10.032685488413314
1457.576971,52.739125409790226
1461.018135,92.27910072791167
1464.454486,92.8989980554008
1467.886036,49.075249763266584
1471.312794,5.99476292684086
1474.734774,3.295598815528775
1478.151985,27.276436512236174
1481.564439,45.73911257983192
1484.972146,50.28629278773123
1488.375119,49.66696866636668
1491.773368,47.01279695402394
1495.166904,35.5507423132388
1498.555739,16.6925749363109
1501.939883,2.017383316707127
1505.319349,-3.836741200114539
1508.694146,2.3824852576154782
1512.064286,24.746213209878796
1515.429781,49.80526695811735
1518.790642,54.595313069490956
1522.146879,32.879825918673816
1525.498505,3.1172170002596076
1528.845529,-8.190732529213555
1532.187965,1.1085966397194937
1535.525822,7.087911507430745
1538.859112,-0.5342843699554543
1542.187846,-3.710091604539018
1545.512036,9.747862146105987
1548.831693,19.623163873416285
1552.146829,3.5513978083006403
1555.457453,-16.018881032558788
1558.763579,4.049768546694536
1562.065216,64.79133154976334
1565.362377,130.9610014112613
1568.655073,180.15005354835793
1571.943315,208.18676901357702
1575.227114,217.2813686475444
1578.506482,223.65324592198894
1581.781431,246.9967737784022
1585.051971,282.7278522116072
1588.318114,304.13149512862753
1591.579872,294.6422648982353
1594.837255,267.4551952256266
1598.090275,237.44197247400413
1601.338945,182.39874762935915
1604.583274,84.57940682786592
1607.823275,-0.0694926587832907
1611.058959,-10.542606234989435
1614.290338,10.034420589952116
1617.517422,-2.529960643511256
1620.740224,-17.17721333849281
1623.958755,6.3981925494393685
1627.173027,31.732938096569814
1630.38305,25.106486211878348
1633.588838,8.910763196490613
1636.7904,8.800506633041262
1639.987749,23.86194878750985
1643.180896,44.60811250482081
1646.369853,60.78005817550553
1649.554632,61.777449916143226
1652.735244,49.78930898043335
1655.9117,42.59133759578212
1659.084013,46.63046952320873
1662.252193,43.97720730740904
1665.416254,24.94217029792754
1668.576205,5.395857330048949
1671.732059,-2.93872552691757
1674.883828,-5.358761957234396
1678.031523,-6.011358510217539
1681.175157,-3.6040739932696457
1684.314739,6.668584800367183
1687.450284,31.46311375453148
1690.581801,59.915158949884606
1693.709304,68.64388547017288
1696.832803,65.4715403694437
1699.952311,81.86357815073843
1703.067839,111.91208076236097
1706.179399,122.54698634376368
1709.287003,113.37776143208038
1712.390663,98.34655025280591
1715.49039,69.29550046376286
1718.586197,30.981146144442363
1721.678095,10.086169071148134
1724.766096,9.813510756625046
1727.850213,9.681402883732826
1730.930456,-2.2117896370821626
1734.006838,-19.43550666044623
1737.079372,-17.20565350194532
1740.148067,27.203059845454852
1743.212938,96.9329410280304
1746.273996,144.60162124918187
1749.331252,146.41846751051713
1752.384718,121.14042307555427
1755.434408,101.08285845669829
1758.480332,101.86520727682438
1761.522503,107.38527896351694
1764.560933,87.1165905566734
1767.595634,41.73051142836312
1770.626618,7.981483672506827
1773.653896,7.81444328428248
1776.677482,24.315232639759202
1779.697388,36.20158456544826
1782.713625,45.892189835619426
1785.726205,56.85658746409417
1788.735141,47.51673739189139
1791.740445,6.888314075495977
1794.742129,-22.209051722362066
1797.740206,3.467534270306011
1800.734687,54.72313123969526
1803.725585,77.68613982864154
1806.712912,74.48617263219133
1809.69668,72.62227615330353
1812.676902,66.37266384295614
1815.65359,40.84810575817066
1818.626756,10.700022516562273
1821.596413,-0.9308932569978685
1824.562573,3.5225980340676513
1827.525247,5.230359249478297
1830.48445,-2.030368419004681
1833.440192,-7.058843542936199
1836.392487,2.151526467776616
1839.341347,24.377604467241333
1842.286784,44.385612681614504
1845.22881,50.283026691198124
1848.167439,49.01712316595418
1851.102682,50.78298012417864
1854.034553,50.417426095216896
1856.963063,45.895121005786095
1859.888226,52.55209994265908
1862.810053,69.36012856957487
1865.728557,62.46796050984558
1868.643751,21.586015288302384
1871.555648,-4.508726697165088
1874.46426,25.89897613485672
1877.369599,84.5515871340312
1880.271679,114.27559120909675
1883.170512,93.80777290667378
1886.06611,41.802611248264014
1888.958487,-5.471412504962984
1891.847655,-17.116632741104212
1894.733626,3.6846206106552586
1897.616414,22.32312750136004
1900.496032,18.28411896276607
1903.372491,10.25982597392049
1906.245805,19.681340573327297
1909.115987,31.75279966596903
1911.983049,23.34907725852402
1914.847004,7.528643034286701
1917.707866,10.023782262685476
1920.565646,22.186598107498632
1923.420359,17.603368991513868
1926.272016,-0.8123543211029274
1929.120631,-7.798337342569787
1931.966216,-1.2052431283917784
1934.808786,-0.39191260088429125
1937.648351,-3.36700613228201
1940.484927,7.56820366907662
1943.318525,23.326005553490855
1946.149158,19.976767287557387
1948.97684,2.796609345124628
1951.801584,-3.9582892697932195
1954.623403,1.6073899243506307
1957.44231,2.0683128809751716
1960.258318,-5.152627908346427
1963.071439,-6.078435316023733
1965.881688,2.009162487599493
1968.689078,5.4963965575560465
1971.493621,-2.3101613419636227
