Raman shift cm-1,4ATP_100nM_rep1_acc3_processed_intensity
-93.47115107,8.625457723549175
-87.69374369,27.623550263326898
-81.9253076,-1.911048911873074
-76.16582701,-59.75449088083137
-70.41528615,48.611035475293534
-64.67366933,-32.26554655465799
-58.94096086,10.90061507960462
-53.21714512,18.971386190362466
-47.50220652,36.52361994997909
-41.79612954,0.07964537815013273
-36.09889866,70.72634313733198
-30.41049843,14.241882936915943
-24.73091343,-10.247515829826227
-19.0601283,-31.06288549596229
-13.39812769,13.692977705911403
-7.744896327,12.79899238498183
-2.100418946,3.349816762137152
3.535319659,-3.7562055385992608
9.162334658,-28.776106770389788
14.78064118,-2.019035583124605
20.39025432,32.97803320038395
25.99118913,42.74857124594166
31.58346061,106.87633215132223
37.16708375,6.047221416471189
42.74207347,15.329639155490781
48.30844468,3.0430926761308683
53.86621222,-45.20627121745213
59.41539093,-10.527219977430605
64.95599558,-36.082323790202054
70.48804091,16.01189344564932
76.01154164,-10.35347935588652
81.52651243,-35.47815399127808
87.03296792,23.636414600031912
92.5309227,32.158885877970306
98.02039134,15.116269268659607
103.5013884,28.40645483250364
108.9739282,179.71085408738463
114.4380255,172.00777393542944
119.8936944,134.29733191358355
125.3409495,218.871147830896
130.779805,175.7468319048919
136.2102753,243.0278269059488
141.6323747,305.19391274338204
147.0461174,324.5327713148033
152.4515176,387.1028090157615
157.8485895,376.71858043441216
163.2373472,450.8986303019194
168.6178049,546.5672114404572
173.9899766,569.2440927749319
179.3538764,675.4488370618792
184.7095182,758.8557625663409
190.0569161,908.3141284988205
195.396084,856.6558096704066
200.7270358,983.98873579006
206.0497854,980.2141209469005
211.3643466,1002.8836626296403
216.6707333,1116.9730943157263
221.9689593,1262.9046010860516
227.2590382,1286.2238409583483
232.5409839,1332.864798098965
237.8148101,1413.986685966709
243.0805303,1507.1154947684213
248.3381582,1529.7576831079182
253.5877075,1651.071092871331
258.8291917,1650.5057680352593
264.0626244,1753.5186002577743
269.288019,1807.961035842108
274.5053891,1851.8652660903595
279.7147481,1910.2612665538982
284.9161094,1935.0097308051822
290.1094865,2014.442568787951
295.2948927,1797.4043080341442
300.4723414,1311.1491595172727
305.6418459,637.5072626666986
310.8034194,149.0369958411814
315.9570752,27.38406499518146
321.1028267,81.63601101219929
326.2406869,-1.99663022131395
331.370669,95.84823263338535
336.4927863,124.93865869373994
341.6070517,-42.946570848097295
346.7134786,-16.554733560722624
351.8120798,107.34205231824113
356.9028684,80.06748092766976
361.9858576,158.1772498613438
367.0610602,175.52586112255324
372.1284892,242.79041408061627
377.1881577,416.7063863175333
382.2400784,814.4753960022889
387.2842644,1262.651857628797
392.3207284,1382.0875567919954
397.3494833,1148.2194982676583
402.370542,934.6988747956976
407.3839172,506.6971890727696
412.3896217,248.4854369220024
417.3876683,258.2741329234147
422.3780697,95.25416795284036
427.3608386,-15.582255147867414
432.3359876,31.233107563495043
437.3035295,55.23389198786593
442.2634769,-1.3488273321852127
447.2158423,-23.612096898398995
452.1606383,10.695645455416823
457.0978776,64.00379031412982
462.0275727,21.70614950080367
466.9497361,32.6172548238234
471.8643802,77.27273951953404
476.7715176,31.37482747986799
481.6711608,93.64750536286459
486.5633221,-10.170689930458014
491.448014,-33.06637103670728
496.3252488,49.592563608324355
501.195039,15.538535965829016
506.0573969,-29.13866472709052
510.9123349,68.9901172418783
515.7598651,-96.54001863388969
520.6,22.562219301768266
525.4327518,120.65077736075264
530.2581327,0.8669953236316408
535.076155,13.551315446481764
539.8868309,8.620679562946595
544.6901726,34.13233029012896
549.4861922,26.239864057225013
554.2749019,25.56310078866233
559.0563139,13.528732077554881
563.8304402,5.656132452035184
568.597293,-53.216502508863606
573.3568844,103.00595316577439
578.1092263,81.05211707716312
582.8543308,4.158271872401655
587.5922101,15.58483025497582
592.322876,-38.59789350214135
597.0463405,23.60922474049549
601.7626157,-17.366956470513834
606.4717135,24.717833418414997
611.1736458,78.33484906470756
615.8684246,8.43033407843317
620.5560617,43.77490009538587
625.2365691,14.712001121511824
629.9099585,-53.03803315021298
634.5762419,-73.62631847661949
639.2354312,119.40629592527041
643.887538,78.98494846777514
648.5325743,71.98853408090514
653.1705518,34.90688276988552
657.8014823,18.440186093444122
662.4253775,27.065677347161238
667.0422493,27.60014681103561
671.6521092,65.2458707630974
676.2549691,65.55660583248542
680.8508407,-5.476721560160332
685.4397355,25.876086506863988
690.0216654,4.7484318654175475
694.5966419,-31.944144354740306
699.1646767,19.966202213476514
703.7257814,85.51580968311323
708.2799676,-12.242918568649912
712.827247,9.613138105456102
717.367631,-4.677789771859409
721.9011314,-51.585050357013
726.4277595,96.13897384375221
730.9475271,107.72551110134211
735.4604456,132.02056523197237
739.9665264,67.13863334381195
744.4657813,70.44758356057359
748.9582215,54.58695467446793
753.4438587,17.153758161893393
757.9227042,-6.741147443818392
762.3947696,59.35763498762293
766.8600662,-6.25945648102239
771.3186056,93.06981763018939
775.770399,24.908441227437507
780.215458,14.491249742122626
784.6537939,73.8236168718154
789.0854181,-56.980947377365936
793.510342,65.75843351629516
797.9285769,108.30503758341382
802.3401342,225.98332121098866
806.7450253,77.55475165117296
811.1432614,25.58518172795658
815.5348538,52.18822595704398
819.9198139,23.919809090825183
824.2981531,12.628530130437422
828.6698824,155.85997301115572
833.0350133,130.68951290510026
837.393557,28.757204792839175
841.7455248,-18.500300847268893
846.0909278,27.60712955478725
850.4297774,58.84375194078156
854.7620848,-65.38589772611937
859.0878611,5.178471983083199
863.4071176,-47.484921442661786
867.7198655,95.48992609826402
872.026116,112.32849465690202
876.3258802,70.96360100316622
880.6191693,62.116385571040716
884.9059946,127.99156774160488
889.186367,25.32665278647875
893.4602979,54.73134040883582
897.7277982,36.46024154872532
901.9888793,96.1643771459601
906.2435521,20.6964903246021
910.4918277,-26.27953013996682
914.7337174,-30.33306040057399
918.9692321,22.872833275765004
923.1983831,89.40073963446626
927.4211813,-21.563321202816127
931.6376378,147.82228230395017
935.8477637,46.98403178350722
940.0515701,28.084771291673874
944.249068,-15.805096621672295
948.4402684,4.639212283443424
952.6251825,63.71650714139065
956.8038212,23.924695918471272
960.9761955,-23.653898249361326
965.1423166,6.089969772023424
969.3021953,-14.802060434906686
973.4558427,-15.681167404651305
977.6032699,58.72885529686217
981.7444877,98.05433214439206
985.8795072,72.06520577372629
990.0083394,25.8984258161465
994.1309953,19.62539063030826
998.2474857,-19.998826142542242
1002.357822,1.6527052307136896
1006.462014,33.79323091316405
1010.560075,-19.630554123160135
1014.652013,-10.468821120523671
1018.737841,17.31428111702014
1022.81757,-46.90685169729031
1026.891209,-11.58217031480051
1030.958771,9.826943371275533
1035.020266,65.12487474679278
1039.075705,8.455505304337048
1043.1251,-0.5580799610131031
1047.16846,120.45939985907953
1051.205797,13.277769928564481
1055.237121,56.543066735850296
1059.262444,4.454862653637186
1063.281777,17.212108922062427
1067.295131,154.49687412243833
1071.302515,425.29008503036187
1075.303942,654.5601504646522
1079.299422,734.378800514635
1083.288966,609.7568936490003
1087.272585,293.3008972789466
1091.250289,89.26538837797082
1095.222091,-48.842961580357695
1099.187999,126.67346137495144
1103.148026,95.35843481071002
1107.102183,-3.526677567367294
1111.050479,19.415330753910666
1114.992927,26.892145441920327
1118.929536,-14.417061389113677
1122.860318,51.802311152147375
1126.785283,13.848626333619006
1130.704443,-4.3133779389129
1134.617808,57.620200526192875
1138.52539,48.457567385378965
1142.427198,-1.4127441292820997
1146.323244,67.69737642127703
1150.213538,-46.963559494180366
1154.098093,163.80814460477234
1157.976917,101.4475564613122
1161.850023,29.256849843788938
1165.717421,132.0430088498629
1169.579121,70.52592911029542
1173.435135,150.49598479987463
1177.285474,125.41832920546504
1181.130148,178.3572125082786
1184.969169,192.9312183056553
1188.802547,22.38780966681133
1192.630292,8.437598296865321
1196.452416,72.05422359054242
1200.26893,0.22848433766254672
1204.079844,34.8498038477957
1207.88517,-21.301758714285068
1211.684917,-18.900652822262987
1215.479098,-26.062075033323215
1219.267722,9.467971921989715
1223.050801,-8.130598420071276
1226.828346,17.527688316691865
1230.600366,-38.08039087974005
1234.366874,103.56370241738122
1238.12788,115.02261569021093
1241.883395,106.59164050504286
1245.633429,123.77117088884984
1249.377994,156.16876907236949
1253.1171,21.33275170318009
1256.850759,35.31149977462312
1260.578981,19.74705788460889
1264.301776,53.0192320434851
1268.019157,-20.162257309691128
1271.731133,16.41805803486386
1275.437715,-31.370896911058445
1279.138915,-30.78817710461274
1282.834743,-10.09790919578013
1286.52521,24.044569370857392
1290.210328,23.125578417985743
1293.890106,-17.69508293898328
1297.564555,-41.15643976054217
1301.233688,-8.67890423667479
1304.897514,35.53939439656087
1308.556044,72.12660330219207
1312.209289,49.110273906427814
1315.857261,-49.86370977160637
1319.499969,32.164530327547695
1323.137425,33.78824219964659
1326.769641,33.58250169545621
1330.396626,0.35856776930951817
1334.018391,14.637297575412134
1337.634948,-30.267476166084855
1341.246307,57.45788362673377
1344.85248,-12.9860590384836
1348.453477,82.03770595512647
1352.049309,-25.37054998394563
1355.639987,53.384714910574296
1359.225522,17.38085073078628
1362.805925,66.96702291920471
1366.381207,16.471015539707277
1369.951379,126.4857643884173
1373.516452,-60.63795775665183
1377.076436,9.600278845656073
1380.631343,35.939345559742264
1384.181184,-22.063647628461148
1387.725969,17.626030146830956
1391.26571,8.571950896363555
1394.800417,130.60407893795136
1398.330102,16.131912055064873
1401.854776,116.63741543317441
1405.374448,-12.193879319490986
1408.889132,35.34636066300668
1412.398837,-39.83410282180432
1415.903574,-17.349745568831818
1419.403355,76.56313280090419
1422.89819,54.806397330348304
1426.388091,19.52978617680802
1429.873069,-30.598233842768355
1433.353134,66.0689950101106
1436.828298,69.78416765545069
1440.298571,30.8644392355465
1443.763965,-8.610072743363855
1447.224491,36.12108327981815
1450.68016,-17.554762375058402
1454.130983,-19.3568881131149
1457.576971,-1.9574002657892287
1461.018135,-17.658977870629432
1464.454486,-4.453763728973687
1467.886036,32.9636191626785
1471.312794,80.13853593149425
1474.734774,-24.846940122239804
1478.151985,9.465117036097311
1481.564439,57.46099485471877
1484.972146,105.94467289783054
1488.375119,30.19812598039144
1491.773368,55.01482313226864
1495.166904,-19.537430562484595
1498.555739,-13.935419933335034
1501.939883,95.03327117879667
1505.319349,-16.449451344283574
1508.694146,5.735011757732382
1512.064286,50.33321846371473
1515.429781,56.5485570014577
1518.790642,4.813802398805465
1522.146879,28.24495287762948
1525.498505,24.128177928127162
1528.845529,-58.17916783507096
1532.187965,30.372648907773204
1535.525822,45.24233437544807
1538.859112,74.02672291009435
1542.187846,17.67511868187838
1545.512036,97.80234780634972
1548.831693,137.2160075852409
1552.146829,71.35716268199462
1555.457453,-13.783824419990395
1558.763579,217.27844635797078
1562.065216,269.40549950246526
1565.362377,244.33302375148497
1568.655073,308.7883607787012
1571.943315,401.78484200027145
1575.227114,400.5626772401329
1578.506482,471.914376795639
1581.781431,480.1187951090222
1585.051971,630.0342063177116
1588.318114,614.350888585478
1591.579872,639.9688439483645
1594.837255,595.2845043197783
1598.090275,475.12926513282855
1601.338945,321.272453854239
1604.583274,228.57921084178426
1607.823275,117.4756479466528
1611.058959,-48.91683912664672
1614.290338,344.71151289043735
1617.517422,-14.914583865117521
1620.740224,141.40165040343425
1623.958755,195.93037589738978
1627.173027,86.1632109994315
1630.38305,74.09470449131206
1633.588838,98.25009480315583
1636.7904,35.44533277620667
1639.987749,193.04502872017756
1643.180896,35.95374204184248
1646.369853,-7.022312804116609
1649.554632,83.09743599732512
1652.735244,20.334359666465467
1655.9117,49.1660157904213
1659.084013,-10.083089589469864
1662.252193,2.366999360604723
1665.416254,-25.923024268070392
1668.576205,1.655812575484255
1671.732059,-22.93718747180128
1674.883828,-8.139999960417867
1678.031523,23.374598189912593
1681.175157,30.20062777888186
1684.314739,-28.22129385279919
1687.450284,21.03461403906102
1690.581801,31.91507618175191
1693.709304,1.4571416602865845
1696.832803,-24.779684589846006
1699.952311,82.24671264603585
1703.067839,59.360846305930245
1706.179399,158.95451215649382
1709.287003,60.38989336850912
1712.390663,82.23797000660039
1715.49039,130.2482587109547
1718.586197,68.16071392285312
1721.678095,-2.5482234856326897
1724.766096,-76.8877787880956
1727.850213,11.477049917524411
1730.930456,29.532931253846264
1734.006838,-41.82569456831668
1737.079372,6.105768917957235
1740.148067,63.952210538470396
1743.212938,93.30388095450209
1746.273996,103.01322633111162
1749.331252,33.14460431037174
1752.384718,20.75811180196021
1755.434408,11.799192799015929
1758.480332,116.94734737815327
1761.522503,138.4845972331595
1764.560933,18.416803127807437
1767.595634,-48.25304859795307
1770.626618,24.999283559602357
1773.653896,82.85657352632958
1776.677482,22.248300784038797
1779.697388,29.47398049066277
1782.713625,-40.53752933645644
1785.726205,94.21602398930357
1788.735141,0.5958260605092494
1791.740445,-32.57477869307205
1794.742129,52.71038473182821
1797.740206,147.37906292816635
1800.734687,92.0184432887771
1803.725585,-48.755536900181866
1806.712912,9.842492809371633
1809.69668,126.95137339986114
1812.676902,85.05707686740344
1815.65359,32.339279585583505
1818.626756,34.62838129707868
1821.596413,22.462372658885208
1824.562573,29.625254798342187
1827.525247,14.219816407981554
1830.48445,-9.320329919718663
1833.440192,-41.37369825725662
1836.392487,-64.01380491488507
1839.341347,-10.82872069065753
1842.286784,112.4325836477949
1845.22881,65.9230753145679
1848.167439,77.42545410476657
1851.102682,31.794476325510693
1854.034553,27.068972881970115
1856.963063,-22.986881303840565
1859.888226,120.75466222144632
1862.810053,14.578363173472615
1865.728557,81.47067792913622
1868.643751,21.98531792658426
1871.555648,-25.696592567474067
1874.46426,-18.406275422133405
1877.369599,-11.02485482759466
1880.271679,69.48616079794246
1883.170512,34.85799356001133
1886.06611,-31.174107436658133
1888.958487,8.4482735900495
1891.847655,34.173296003222454
1894.733626,1.5296965321055787
1897.616414,8.65593206836085
1900.496032,-14.090338303958575
1903.372491,50.163610809100014
1906.245805,-27.773268165803458
1909.115987,71.18210605069191
1911.983049,-28.12485867363228
1914.847004,18.649411494885072
1917.707866,128.46435821741719
1920.565646,76.26326043016228
1923.420359,29.01526525516509
1926.272016,44.0683812727103
1929.120631,21.40630841838412
1931.966216,-15.637109448631886
1934.808786,-1.6624148928349065
1937.648351,-40.561564182356065
1940.484927,28.69455199040489
1943.318525,92.25962310452327
1946.149158,94.7643151242058
1948.97684,53.383336823956284
1951.801584,94.33927951968857
1954.623403,111.45584678455089
1957.44231,-9.561775171751911
1960.258318,54.2270846465591
1963.071439,58.808117136564874
1965.881688,-3.22018208271939
1968.689078,17.601537673360873
1971.493621,-7.5271072597693305
