Raman shift cm-1,4ATP_10pM_rep3_acc1_processed_intensity
-93.47115107,-31.659811255648368
-87.69374369,15.481785403528825
-81.9253076,26.429222522509477
-76.16582701,7.150615756726097
-70.41528615,27.360606032467928
-64.67366933,34.027376124811894
-58.94096086,-54.333164852078966
-53.21714512,-54.12957891951686
-47.50220652,88.38443421951735
-41.79612954,96.18823637377238
-36.09889866,12.482883046884751
-30.41049843,60.70256106235155
-24.73091343,102.99669477217827
-19.0601283,48.21777769303969
-13.39812769,0.10022173865422701
-7.744896327,-9.198249323411574
-2.100418946,16.87658228415512
3.535319659,11.073666473068329
9.162334658,-17.397775099173373
14.78064118,14.573794141944404
20.39025432,24.63818805140761
25.99118913,17.762279203719345
31.58346061,72.41252178955006
37.16708375,66.99845046174266
42.74207347,-20.216701187488297
48.30844468,-45.78343682966545
53.86621222,-9.649547114817892
59.41539093,-2.2156846072014105
64.95599558,9.785617290449181
70.48804091,78.16959068393999
76.01154164,74.46243796046701
81.52651243,-5.528308074186953
87.03296792,7.748396751033624
92.5309227,12.814634593200935
98.02039134,-43.75409243927379
103.5013884,-6.705342421132173
108.9739282,30.733954749345003
114.4380255,10.133082257266778
119.8936944,12.830470411761326
125.3409495,21.844793696534907
130.779805,107.4290302877123
136.2102753,195.03665284059525
141.6323747,160.1246726000304
147.0461174,190.0830361842668
152.4515176,284.43957693954235
157.8485895,309.9660149265558
163.2373472,366.967358524495
168.6178049,420.4248688534153
173.9899766,429.6220945793266
179.3538764,521.1319426948205
184.7095182,628.8030756365388
190.0569161,666.866617912304
195.396084,709.600646989702
200.7270358,755.2775277310955
206.0497854,795.2837773090387
211.3643466,877.0953450274656
216.6707333,964.4827771307091
221.9689593,1015.3472701250873
227.2590382,1066.8947178279054
232.5409839,1153.916277383545
237.8148101,1250.6521614887374
243.0805303,1288.3869104577905
248.3381582,1290.3781947036848
253.5877075,1367.075068199159
258.8291917,1490.1013982508007
264.0626244,1579.051830360564
269.288019,1660.006036676908
274.5053891,1739.9634565849415
279.7147481,1829.4379480059272
284.9161094,1906.9823516158267
290.1094865,1836.3717929558447
295.2948927,1579.2961738611514
300.4723414,1139.994301998394
305.6418459,538.6884208032398
310.8034194,104.72276645152326
315.9570752,32.182437018935815
321.1028267,12.84210777878451
326.2406869,-40.495426253902146
331.370669,29.021106377514172
336.4927863,43.97304090007045
341.6070517,-48.2087385066955
346.7134786,-21.18009553049211
351.8120798,64.49387534832506
356.9028684,66.6124446389063
361.9858576,65.50058038710388
367.0610602,110.70927767599872
372.1284892,174.91808080535696
377.1881577,322.2839271325812
382.2400784,687.0831188090258
387.2842644,1197.0103679763693
392.3207284,1514.8287241865776
397.3494833,1452.6083914574588
402.370542,1106.2300003771336
407.3839172,665.5952810276303
412.3896217,342.4779538703983
417.3876683,184.7843399252735
422.3780697,80.66245734834997
427.3608386,19.25349426655636
432.3359876,2.5864070178347234
437.3035295,-12.317720669988788
442.2634769,0.23015018204503335
447.2158423,4.3606895584958565
452.1606383,-5.843337536371395
457.0978776,55.606037261752036
462.0275727,94.53382067678714
466.9497361,31.396588767883593
471.8643802,11.959733240000302
476.7715176,92.96580773595674
481.6711608,140.76162438835044
486.5633221,107.47088520761102
491.448014,114.47793146300187
496.3252488,132.9005728001986
501.195039,18.741523553186138
506.0573969,-81.2283192965283
510.9123349,-21.942701652853422
515.7598651,21.314355082829316
520.6,-3.3241327240764456
525.4327518,26.52614254850138
530.2581327,69.6011722894765
535.076155,98.03322932450419
539.8868309,124.70619130677218
544.6901726,86.59398713868035
549.4861922,78.55196043806926
554.2749019,121.2748740350149
559.0563139,32.561888213770615
563.8304402,-54.779038341057266
568.597293,13.738888228082452
573.3568844,35.97360321106719
578.1092263,4.759821661375568
582.8543308,24.672766783764445
587.5922101,-2.174803632458598
592.322876,-21.78953742228858
597.0463405,9.563510202715651
601.7626157,-10.871496204790104
606.4717135,-8.543551890806466
611.1736458,14.641922194108783
615.8684246,-18.486347836306013
620.5560617,2.113713005482796
625.2365691,9.660723083105964
629.9099585,-59.68992024560479
634.5762419,-8.496128297503414
639.2354312,86.735938069751
643.887538,53.12803485396037
648.5325743,27.413937036768743
653.1705518,55.90127191082671
657.8014823,33.04122527807523
662.4253775,-9.642018736727081
667.0422493,10.434783812978488
671.6521092,43.92569097713772
676.2549691,4.853597218153423
680.8508407,-21.001369941037517
685.4397355,22.090706444172042
690.0216654,5.304449658928148
694.5966419,-50.380565770026735
699.1646767,-17.654715536659804
703.7257814,36.3038860718682
708.2799676,34.989851470175765
712.827247,17.144050616060305
717.367631,-3.3077160291291645
721.9011314,-29.537214849744515
726.4277595,-37.80531868628423
730.9475271,-8.965178969009571
735.4604456,28.3660053231487
739.9665264,27.393568441807474
744.4657813,5.923788980167393
748.9582215,3.092759690081241
753.4438587,-9.878654827776215
757.9227042,-32.1255152352628
762.3947696,-15.045979035206788
766.8600662,-12.840100275162524
771.3186056,-25.45336830729682
775.770399,29.61737211836822
780.215458,57.932148654772135
784.6537939,12.876562847172842
789.0854181,30.562132798007113
793.510342,109.21067435984051
797.9285769,153.27534623013653
802.3401342,150.04017483624446
806.7450253,95.25426381077125
811.1432614,19.643675128084535
815.5348538,-7.9262368120447775
819.9198139,16.05753385862308
824.2981531,59.97181991645452
828.6698824,67.12203242888171
833.0350133,-2.943745520820218
837.393557,-44.005470527407226
841.7455248,7.975606033383995
846.0909278,29.25976205641147
850.4297774,-10.8554963940229
854.7620848,-29.09325441809066
859.0878611,-20.037972823535952
863.4071176,5.791739249769108
867.7198655,62.96723164383372
872.026116,136.63111776855433
876.3258802,128.84995567834787
880.6191693,24.452945911982255
884.9059946,11.88128977035521
889.186367,98.97569777330892
893.4602979,117.96479691140205
897.7277982,91.08157158454125
901.9888793,60.35378507484799
906.2435521,17.880039107165842
910.4918277,7.349945451198463
914.7337174,-0.671310244442247
918.9692321,-32.61194949589187
923.1983831,-17.16749509543545
927.4211813,78.91704282350754
931.6376378,139.00301890669724
935.8477637,54.375820162834
940.0515701,-13.265961292809507
944.249068,59.81446977135132
948.4402684,67.03118610235481
952.6251825,-9.56888212274044
956.8038212,36.76159323363599
960.9761955,105.45967676927307
965.1423166,69.81425319675118
969.3021953,30.080716721621748
973.4558427,-1.3519141881039616
977.6032699,-12.11280655390808
981.7444877,52.3256369472683
985.8795072,62.856586301399794
990.0083394,-5.371781780782605
994.1309953,17.912891255177282
998.2474857,81.03440171732774
1002.357822,57.36857002824909
1006.462014,6.357407897488603
1010.560075,-13.349776198343271
1014.652013,-12.41158681130905
1018.737841,-26.666427415690695
1022.81757,-29.345239454375115
1026.891209,33.86137688184524
1030.958771,82.42848216641936
1035.020266,51.1461778255101
1039.075705,-1.3332704271966787
1043.1251,-11.10818914652154
1047.16846,32.082807589586075
1051.205797,51.160339030601705
1055.237121,5.947007147376773
1059.262444,-1.855005897031397
1063.281777,116.15925120423331
1067.295131,346.67203367088536
1071.302515,623.0674464400498
1075.303942,843.8095834807949
1079.299422,898.863055482593
1083.288966,761.0856243455203
1087.272585,483.1166000356366
1091.250289,149.0785361162503
1095.222091,-34.23316278393154
1099.187999,24.07311232028904
1103.148026,64.10206117367008
1107.102183,5.616966013711092
1111.050479,31.627392326607236
1114.992927,35.00790733841085
1118.929536,-57.63700629356916
1122.860318,-32.28240500990641
1126.785283,92.3758363095746
1130.704443,181.28946455234296
1134.617808,270.79745990077197
1138.52539,319.6212309455818
1142.427198,276.4345386902271
1146.323244,211.11948383878195
1150.213538,151.5061163170277
1154.098093,106.57000274815537
1157.976917,87.71538682936804
1161.850023,51.02431042034324
1165.717421,2.060028532600299
1169.579121,3.1900701009384598
1173.435135,36.851642468479184
1177.285474,66.41228090650802
1181.130148,148.22260112752622
1184.969169,240.68509584470448
1188.802547,204.6854420299062
1192.630292,89.50057547218253
1196.452416,6.398531031099717
1200.26893,-25.364123884743137
1204.079844,1.8995604932977805
1207.88517,19.261940828843876
1211.684917,-23.896549286271664
1215.479098,-39.7599319844262
1219.267722,3.0726070584966667
1223.050801,26.34507592357177
1226.828346,1.7794590034284354
1230.600366,-20.60482662534808
1234.366874,16.100646713835026
1238.12788,100.66969383896117
1241.883395,148.44939186383073
1245.633429,97.3905654368585
1249.377994,13.040272427023076
1253.1171,15.740847130372977
1256.850759,50.80163943777113
1260.578981,26.073797556117952
1264.301776,32.86199687733148
1268.019157,69.51187133480894
1271.731133,9.218545646749039
1275.437715,-78.83320279206339
1279.138915,-63.04734337501849
1282.834743,2.7814258091379855
1286.52521,19.044342655710505
1290.210328,-1.268603190447454
1293.890106,16.12657321815501
1297.564555,77.21701065421472
1301.233688,99.92378718459678
1304.897514,71.25657660599232
1308.556044,60.36596613784413
1312.209289,62.62928788774913
1315.857261,28.855116945923736
1319.499969,-8.957459850868535
1323.137425,19.16746135162235
1326.769641,75.92126969224933
1330.396626,70.39673637748277
1334.018391,23.317120206160737
1337.634948,-8.621977572022308
1341.246307,-23.12386993996555
1344.85248,-25.25089353450322
1348.453477,-16.911373667267913
1352.049309,6.489886541713817
1355.639987,18.919549967352495
1359.225522,-7.522674665198149
1362.805925,-19.97336243906842
1366.381207,10.157353852698527
1369.951379,26.19391137211421
1373.516452,18.684033676075373
1377.076436,53.57920436719609
1380.631343,106.91275831717236
1384.181184,97.52766345028901
1387.725969,93.91603243026259
1391.26571,137.41967864252763
1394.800417,150.50841203078318
1398.330102,162.98973263146914
1401.854776,156.92170475562438
1405.374448,65.40261964625043
1408.889132,-6.3084520503424955
1412.398837,-22.125365460395713
1415.903574,-16.64638071354217
1419.403355,60.552208467262325
1422.89819,152.05042105614314
1426.388091,181.80431292768623
1429.873069,190.31632051725057
1433.353134,174.00411760550077
1436.828298,101.118105410855
1440.298571,27.78648142824298
1443.763965,14.726509053360337
1447.224491,20.685938649236366
1450.68016,-2.3761015866530872
1454.130983,-28.940641688407542
1457.576971,-25.1423466547947
1461.018135,12.27912231711525
1464.454486,21.0753135625639
1467.886036,-28.831862868133676
1471.312794,-29.455237735050893
1474.734774,34.562049665930175
1478.151985,48.644241730503886
1481.564439,8.494799813579473
1484.972146,-31.64194045308211
1488.375119,-22.938677016137557
1491.773368,34.26072097753031
1495.166904,22.47855158037318
1498.555739,-14.865898658563758
1501.939883,36.17390930811786
1505.319349,23.20332252324181
1508.694146,-42.48180763332867
1512.064286,24.768181024191584
1515.429781,73.6245158871935
1518.790642,28.658578145472795
1522.146879,14.413588321207708
1525.498505,-36.56225435937566
1528.845529,-75.53086209534686
1532.187965,-10.32156918470866
1535.525822,10.30207354295976
1538.859112,-12.30099615678067
1542.187846,11.704517773558399
1545.512036,31.102165744061832
1548.831693,49.899345498634624
1552.146829,27.98968757864211
1555.457453,-6.9307121228632
1558.763579,107.5253750844766
1562.065216,218.65799199086533
1565.362377,209.44936112977229
1568.655073,284.42377361850447
1571.943315,381.81746026414567
1575.227114,359.3119359761909
1578.506482,350.3310548095324
1581.781431,413.4626872466645
1585.051971,481.7551569977433
1588.318114,548.5380733061191
1591.579872,603.3065444056782
1594.837255,532.2001969797622
1598.090275,355.2785734910738
1601.338945,279.61331353037696
1604.583274,187.3663030477368
1607.823275,-27.87927244479829
1611.058959,-23.76233599682399
1614.290338,114.257650308482
1617.517422,52.81456147959329
1620.740224,33.93594060923583
1623.958755,105.88275531840861
1627.173027,15.531130629136747
1630.38305,-65.76307755583066
1633.588838,-2.887733537845154
1636.7904,37.168030970208726
1639.987749,21.171394816195367
1643.180896,24.406291790914395
1646.369853,53.52193390634656
1649.554632,77.49235124046959
1652.735244,87.66027626524452
1655.9117,75.05661164518212
1659.084013,10.073867251474802
1662.252193,-34.53211994054527
1665.416254,-5.247157293743875
1668.576205,1.5149972311537212
1671.732059,-1.0779875288287855
1674.883828,35.50828346973642
1678.031523,11.623763230238715
1681.175157,-52.20834280102014
1684.314739,-39.55411598974546
1687.450284,5.715142298380588
1690.581801,21.380323393925842
1693.709304,24.075413454380644
1696.832803,-5.174830416173469
1699.952311,-9.560711310921437
1703.067839,73.90334933373711
1706.179399,93.27976584088628
1709.287003,25.919936025141343
1712.390663,21.989191110663654
1715.49039,22.839122678127197
1718.586197,4.978984414905337
1721.678095,15.787345971292732
1724.766096,-30.744748511901335
1727.850213,-68.50495335132044
1730.930456,-1.6701432023987195
1734.006838,59.995930561854934
1737.079372,70.49333709294638
1740.148067,95.81004991338911
1743.212938,137.97699616066768
1746.273996,124.50063504265108
1749.331252,50.63245222833052
1752.384718,3.6960920703313036
1755.434408,28.908075306235844
1758.480332,114.44766135404514
1761.522503,160.29774358339415
1764.560933,72.77953534925815
1767.595634,-16.326628500772365
1770.626618,27.816505259234003
1773.653896,80.72920990879918
1776.677482,21.635739639558366
1779.697388,-54.9868237534298
1782.713625,-42.103975818173524
1785.726205,14.285120112025876
1788.735141,13.146593759095332
1791.740445,-26.053728123005357
1794.742129,-14.194747295859862
1797.740206,20.61364558855118
1800.734687,23.602937439467
1803.725585,22.64400435295667
1806.712912,28.338197937023494
1809.69668,30.678764147580992
1812.676902,24.537554802172686
1815.65359,-14.689067935536144
1818.626756,-56.922539563575285
1821.596413,-28.82011792324778
1824.562573,22.339683070233768
1827.525247,14.435086702878614
1830.48445,-4.1743626932620295
1833.440192,-0.2587708389348311
1836.392487,4.448750921356705
1839.341347,-6.595130537173353
1842.286784,-36.39311976628616
1845.22881,14.434729216657825
1848.167439,95.93210189349067
1851.102682,15.160014492761935
1854.034553,-64.28500091777747
1856.963063,25.81605209939063
1859.888226,72.40287803123356
1862.810053,29.515312357029877
1865.728557,34.71533360222581
1868.643751,20.322159599398628
1871.555648,-39.15077609160758
1874.46426,-36.0775842128069
1877.369599,13.213488962773997
1880.271679,24.311950901234056
1883.170512,-3.5248946875036573
1886.06611,-7.331781369970917
1888.958487,21.804455518504508
1891.847655,14.06759715835985
1894.733626,-32.14140222221287
1897.616414,-51.08973555588447
1900.496032,-23.049372354863877
1903.372491,20.91943201853019
1906.245805,45.36615196522508
1909.115987,35.42291701452785
1911.983049,8.509066783393392
1914.847004,27.248235035923074
1917.707866,54.54659536468757
1920.565646,4.781151644109022
1923.420359,-10.778234834881406
1926.272016,43.16187588915202
1929.120631,26.004130268346998
1931.966216,-20.950083542441835
1934.808786,-21.938809230868827
1937.648351,-27.91581767718366
1940.484927,-2.3061101969135605
1943.318525,66.76936909781773
1946.149158,66.71542177930527
1948.97684,9.972512416966495
1951.801584,0.8650485393111997
1954.623403,18.918259172145955
1957.44231,13.839072100795569
1960.258318,5.082175011466684
1963.071439,-2.6600236988111368
1965.881688,-12.45724059103356
1968.689078,-8.651319483931303
1971.493621,2.7726314236101937
