Raman shift cm-1,4ATP_100pM_rep3_acc1_processed_intensity
-93.47115107,-3.3021413832306834
-87.69374369,11.788207715740498
-81.9253076,-10.85981836515213
-76.16582701,4.6540329925197526
-70.41528615,57.6884603624153
-64.67366933,43.72647774305861
-58.94096086,-12.760712372460148
-53.21714512,-3.387626919895638
-47.50220652,28.04670673985646
-41.79612954,12.122629510396052
-36.09889866,29.32295409572265
-30.41049843,86.07841222625649
-24.73091343,75.61475957659633
-19.0601283,18.538824611863618
-13.39812769,-19.582017359844315
-7.744896327,-30.26398145311282
-2.100418946,14.451361865488593
3.535319659,67.0738477677661
9.162334658,41.0870317984228
14.78064118,-7.914319728238297
20.39025432,-8.692183989684395
25.99118913,8.82365874255595
31.58346061,18.69316467052522
37.16708375,15.215408681371741
42.74207347,-1.9511613915573207
48.30844468,-8.001681991393411
53.86621222,8.435390934641418
59.41539093,42.59826311843187
64.95599558,99.69254075952938
70.48804091,160.74030512543402
76.01154164,177.2109954205265
81.52651243,157.9603135114703
87.03296792,169.14210262907795
92.5309227,201.38987226982078
98.02039134,208.5292130424234
103.5013884,251.6917601389888
108.9739282,343.122099208543
114.4380255,353.80120845979025
119.8936944,325.6389462139357
125.3409495,415.87878060299215
130.779805,521.710453179679
136.2102753,518.4463757633621
141.6323747,522.8838528327528
147.0461174,591.9849362444698
152.4515176,639.7055299306144
157.8485895,646.7474947138294
163.2373472,677.4513191670392
168.6178049,768.4509037669858
173.9899766,853.4762836427822
179.3538764,883.9344668606632
184.7095182,931.2301758426074
190.0569161,999.3084511418325
195.396084,1005.3080987047114
200.7270358,987.8536615889577
206.0497854,1034.4466628525802
211.3643466,1138.7532513698484
216.6707333,1248.933094481297
221.9689593,1292.802741849771
227.2590382,1261.477870590224
232.5409839,1276.8992842265639
237.8148101,1369.9503171447275
243.0805303,1416.9770321080468
248.3381582,1426.3024802728671
253.5877075,1496.9627839203931
258.8291917,1574.3488270485875
264.0626244,1601.424987902923
269.288019,1630.8695368172596
274.5053891,1668.9448343871045
279.7147481,1710.007504941467
284.9161094,1777.8622019394593
290.1094865,1771.3787587058696
295.2948927,1528.7790353598652
300.4723414,1073.7315654418724
305.6418459,612.0208720217646
310.8034194,295.83350947859225
315.9570752,102.74285204410705
321.1028267,-5.044826208042129
326.2406869,11.975888271319684
331.370669,79.46796562338308
336.4927863,45.80805346497313
341.6070517,-27.908759928436538
346.7134786,5.915470107499345
351.8120798,88.86218764927199
356.9028684,102.29287562474698
361.9858576,78.77455266745928
367.0610602,93.65316094431587
372.1284892,150.42349376029247
377.1881577,320.19744735221633
382.2400784,792.5231956836229
387.2842644,1477.256188272925
392.3207284,1849.657410043221
397.3494833,1616.7337330909602
402.370542,1094.2394241247214
407.3839172,649.402609500862
412.3896217,344.07514086385225
417.3876683,170.9562883577799
422.3780697,115.36076057638681
427.3608386,67.1616666574772
432.3359876,-4.700503360447385
437.3035295,-12.305727636525745
442.2634769,11.27891291587741
447.2158423,0.2437648679012927
452.1606383,20.149215417915297
457.0978776,57.313330657927466
462.0275727,30.179430251823568
466.9497361,-7.527727291338076
471.8643802,19.878931378174705
476.7715176,92.4854428925391
481.6711608,122.88048404439081
486.5633221,72.7570618898342
491.448014,55.12996145362966
496.3252488,97.96559014388768
501.195039,75.50835903504003
506.0573969,7.514072023875137
510.9123349,-20.574179643844303
515.7598651,-14.337317478941308
520.6,30.35252089776478
525.4327518,91.40422077047648
530.2581327,132.14336649507155
535.076155,153.9289880866836
539.8868309,166.0579021058656
544.6901726,215.27916965319235
549.4861922,287.8608510433369
554.2749019,277.9150821116836
559.0563139,205.8986285587716
563.8304402,184.62203630039934
568.597293,192.3667269913492
573.3568844,145.42321003828178
578.1092263,58.10145769953925
582.8543308,20.019643493882988
587.5922101,67.16307204769325
592.322876,94.77021551110094
597.0463405,39.04012367165571
601.7626157,1.9371242219953082
606.4717135,34.64895136405683
611.1736458,84.90151072621569
615.8684246,119.36152438236073
620.5560617,95.68892202452142
625.2365691,9.47316030480151
629.9099585,-34.080336338393444
634.5762419,27.12415922343183
639.2354312,111.38894137148725
643.887538,133.03716557989833
648.5325743,105.46373743785685
653.1705518,75.93658284895918
657.8014823,50.1870308658483
662.4253775,9.931895688193158
667.0422493,-20.69269879921984
671.6521092,10.330094911895221
676.2549691,84.87372430883744
680.8508407,110.53722023142792
685.4397355,60.76716030890958
690.0216654,14.589211984803029
694.5966419,7.394463772443599
699.1646767,17.18050342382261
703.7257814,64.1184072457974
708.2799676,121.79854697266836
712.827247,107.7514664984826
717.367631,45.339943270225746
721.9011314,7.025480425022685
726.4277595,-17.371235314422847
730.9475271,-36.02506554100194
735.4604456,-8.414629681246169
739.9665264,42.77187116872765
744.4657813,50.12639052085201
748.9582215,17.851190337767832
753.4438587,-3.941581134214424
757.9227042,11.236895217158
762.3947696,34.62181273688603
766.8600662,32.79879774401969
771.3186056,43.721508325372675
775.770399,57.74668041507608
780.215458,14.075413408083314
784.6537939,-8.695621223386635
789.0854181,69.19085378721765
793.510342,151.97089463458673
797.9285769,181.1505800741848
802.3401342,216.24500649130292
806.7450253,237.13526953353744
811.1432614,199.99037090728933
815.5348538,175.03426766309315
819.9198139,187.07903449917058
824.2981531,184.8140410647196
828.6698824,193.21040786033012
833.0350133,210.6426089048572
837.393557,170.26361001578613
841.7455248,121.57684138600021
846.0909278,128.61053942953333
850.4297774,105.49059961246607
854.7620848,13.17655537310661
859.0878611,-18.129540740968174
863.4071176,79.91953694638237
867.7198655,174.34223819097764
872.026116,162.35051866117368
876.3258802,137.807262617098
880.6191693,163.44456678247508
884.9059946,146.63716194207421
889.186367,69.51687141085449
893.4602979,53.98507269630839
897.7277982,130.06887426105823
901.9888793,172.30931005177754
906.2435521,101.48960537666946
910.4918277,2.2790164834132796
914.7337174,0.08443056663216453
918.9692321,73.16235024258161
923.1983831,107.14664165596697
927.4211813,114.13118733666127
931.6376378,164.11218065173455
935.8477637,201.56133859127144
940.0515701,168.48469186344144
944.249068,131.60784279705962
948.4402684,148.67877854884782
952.6251825,172.68740407002423
956.8038212,176.3533531150029
960.9761955,192.26863097893568
965.1423166,199.20101306729865
969.3021953,196.33522984596135
973.4558427,208.40222941965382
977.6032699,168.91516829145905
981.7444877,103.65464085214829
985.8795072,120.30166043121632
990.0083394,157.01497335468565
994.1309953,135.86599592664717
998.2474857,121.8571520090417
1002.357822,160.71417231994113
1006.462014,182.21071143785005
1010.560075,116.91816148331198
1014.652013,31.649346796375326
1018.737841,7.311669262487634
1022.81757,-0.2971799906667627
1026.891209,-5.766254106805434
1030.958771,32.964281789741854
1035.020266,67.83626175354046
1039.075705,75.73950509551983
1043.1251,115.66831080686282
1047.16846,150.37998137472084
1051.205797,120.82440513968291
1055.237121,90.62587871076357
1059.262444,122.92279132663732
1063.281777,234.4571316727197
1067.295131,464.6435812185891
1071.302515,814.4339921507091
1075.303942,1156.5289410307735
1079.299422,1273.0938153554748
1083.288966,1044.8603234487284
1087.272585,594.5312398402879
1091.250289,189.17476146988184
1095.222091,27.577134386786405
1099.187999,71.88732310766984
1103.148026,96.15459059196448
1107.102183,10.145752020940101
1111.050479,-36.4421926146302
1114.992927,15.658141645474775
1118.929536,35.50610783420309
1122.860318,7.366821810292443
1126.785283,74.24996170394058
1130.704443,259.72561206067655
1134.617808,433.2308907762341
1138.52539,512.4454201165798
1142.427198,485.8153924397171
1146.323244,356.9145339785031
1150.213538,219.72876486617636
1154.098093,163.99137481004283
1157.976917,134.23801582534662
1161.850023,96.5402844792967
1165.717421,91.48612857677604
1169.579121,115.04314405036807
1173.435135,170.5707614915939
1177.285474,245.63534453177553
1181.130148,281.9137108947832
1184.969169,276.69983974011393
1188.802547,236.28758268005438
1192.630292,157.2268136809647
1196.452416,78.64210527883348
1200.26893,16.429306095281884
1204.079844,-4.6250855090381755
1207.88517,44.9277219585652
1211.684917,83.40258909701214
1215.479098,51.808933551589206
1219.267722,7.966141854703437
1223.050801,-18.68329070860575
1226.828346,3.0972956308795503
1230.600366,113.59091985527598
1234.366874,200.36351728189288
1238.12788,155.58797327972778
1241.883395,92.44056398159609
1245.633429,109.54351931695962
1249.377994,127.04795271274685
1253.1171,107.39627275340223
1256.850759,94.57263321095778
1260.578981,91.70995121849398
1264.301776,105.18222474204171
1268.019157,94.77493314057699
1271.731133,8.898527618455113
1275.437715,-29.187598916742743
1279.138915,36.04796096323894
1282.834743,49.1040950807106
1286.52521,9.265453522699758
1290.210328,18.980636098582735
1293.890106,10.486915010304408
1297.564555,-26.128399067366225
1301.233688,29.253637262574728
1304.897514,140.38709410291946
1308.556044,170.47387014927534
1312.209289,115.90029663194758
1315.857261,57.7663051235255
1319.499969,68.37779558029817
1323.137425,146.9883811132944
1326.769641,164.69588266014816
1330.396626,72.49240750336887
1334.018391,0.28086326013061935
1337.634948,7.653197045430298
1341.246307,38.51309675925809
1344.85248,43.589540237771786
1348.453477,8.110577227363077
1352.049309,-5.703784912552578
1355.639987,41.27843437184447
1359.225522,88.69557148299629
1362.805925,131.6435948435702
1366.381207,177.0946345642792
1369.951379,160.796001056065
1373.516452,134.13255438749246
1377.076436,181.28801226070806
1380.631343,243.17313097090425
1384.181184,297.5177548182594
1387.725969,337.06430436147735
1391.26571,277.8304292244146
1394.800417,182.07430547191888
1398.330102,163.96625841468486
1401.854776,143.26355057388795
1405.374448,55.17010735814795
1408.889132,-11.843274632928384
1412.398837,0.6818940448743191
1415.903574,69.72228862969408
1419.403355,149.68466013756873
1422.89819,208.90240879785844
1426.388091,264.18418573911356
1429.873069,314.3774422018643
1433.353134,293.8936460520478
1436.828298,183.96366080153348
1440.298571,71.45232464928947
1443.763965,18.953792977142395
1447.224491,-7.362039912905139
1450.68016,-20.777297134077465
1454.130983,4.9236587648204875
1457.576971,34.493442284164004
1461.018135,24.732930023224426
1464.454486,16.429390107153328
1467.886036,43.068408477799466
1471.312794,41.19947510520372
1474.734774,-4.465311863989722
1478.151985,4.605320906835374
1481.564439,49.77182811041614
1484.972146,17.66035247132826
1488.375119,-20.713484772977548
1491.773368,41.511332287031145
1495.166904,107.71487300277617
1498.555739,105.22419314387757
1501.939883,102.74245383659844
1505.319349,104.49710739763717
1508.694146,84.97640921371485
1512.064286,77.9506638540602
1515.429781,69.23657866598401
1518.790642,45.48342806250439
1522.146879,37.03101712568821
1525.498505,14.545857881241364
1528.845529,-26.385695674446694
1532.187965,-14.622052107612099
1535.525822,28.741077013682485
1538.859112,25.171825831322522
1542.187846,9.010987410113257
1545.512036,36.74425993514067
1548.831693,53.95138685864269
1552.146829,15.92517569085118
1555.457453,11.082270336042306
1558.763579,96.97207929881907
1562.065216,177.32480071246812
1565.362377,222.343680538109
1568.655073,310.0237681067155
1571.943315,404.6764890040672
1575.227114,454.20678906097083
1578.506482,518.8040965341329
1581.781431,597.4671989046069
1585.051971,630.1781680780684
1588.318114,646.1809141373316
1591.579872,652.4432491188106
1594.837255,563.397783981535
1598.090275,399.70454913773597
1601.338945,263.8534681856013
1604.583274,111.13884632859549
1607.823275,-37.67376935337873
1611.058959,2.517368490231661
1614.290338,97.92465399027247
1617.517422,17.4644640064414
1620.740224,-31.410655842811224
1623.958755,66.93600783920172
1627.173027,95.56511149745705
1630.38305,39.78964746918035
1633.588838,19.20751282297656
1636.7904,17.195191814531576
1639.987749,4.676588726969886
1643.180896,-2.8603279825795696
1646.369853,13.103238027095458
1649.554632,44.175955938081074
1652.735244,65.18719536384049
1655.9117,81.61019040881416
1659.084013,88.11909483749342
1662.252193,55.630248623841766
1665.416254,3.602068286123078
1668.576205,-13.208256253660629
1671.732059,5.941517241609608
1674.883828,8.052831894670735
1678.031523,-15.596142285991755
1681.175157,-23.925487054249515
1684.314739,-7.373785779738558
1687.450284,19.995111035860752
1690.581801,43.45411792201839
1693.709304,38.358160230003776
1696.832803,19.517279402167663
1699.952311,35.66590583476051
1703.067839,75.29119194484046
1706.179399,85.68506310033474
1709.287003,79.28106456391086
1712.390663,88.73411795441316
1715.49039,74.23092952917753
1718.586197,19.679854705415558
1721.678095,-19.680369270030923
1724.766096,-23.37719463413643
1727.850213,10.878386290083185
1730.930456,61.744501802938316
1734.006838,45.332264522743124
1737.079372,-2.5386626043566594
1740.148067,44.770002579569024
1743.212938,128.33670496560043
1746.273996,124.87406317582264
1749.331252,77.63554091997194
1752.384718,67.2222103254708
1755.434408,94.25680097605257
1758.480332,130.87161284937116
1761.522503,124.92450813365824
1764.560933,42.07514483919746
1767.595634,-24.884258165404937
1770.626618,16.81077428033118
1773.653896,64.50051818779227
1776.677482,27.70439788138019
1779.697388,-0.7637498526861357
1782.713625,11.889008913778607
1785.726205,4.485892338655786
1788.735141,-5.921795946797653
1791.740445,-3.3162137278915527
1794.742129,6.90539785424781
1797.740206,46.1967674964242
1800.734687,71.13590105793241
1803.725585,55.739702600680495
1806.712912,58.29180389431363
1809.69668,62.1781515074997
1812.676902,25.860928596297484
1815.65359,-6.401166827181668
1818.626756,-7.862783130543649
1821.596413,6.525228735938813
1824.562573,19.016642388375367
1827.525247,14.187470723055792
1830.48445,2.565084849047523
1833.440192,-3.5912730723045376
1836.392487,-5.451431329448077
1839.341347,-10.987158526682451
1842.286784,-14.687368527175476
1845.22881,30.138148826809598
1848.167439,111.75191069795397
1851.102682,120.78820879602173
1854.034553,34.40090418362446
1856.963063,-24.783633729958943
1859.888226,18.511179948586538
1862.810053,82.8642618755547
1865.728557,79.15973324457246
1868.643751,40.901195431944025
1871.555648,12.291684612418308
1874.46426,-7.921310761115377
1877.369599,6.870362021419144
1880.271679,43.91771110311409
1883.170512,38.87291071317186
1886.06611,9.350327121433594
1888.958487,13.71588974177125
1891.847655,33.93023731343561
1894.733626,15.153019555857153
1897.616414,-28.467811958189355
1900.496032,-17.77207791641585
1903.372491,45.48950345406579
1906.245805,85.8767798413793
1909.115987,100.27468763180353
1911.983049,98.04312019165567
1914.847004,52.39075663164252
1917.707866,6.50254833135115
1920.565646,30.307997582541947
1923.420359,71.84567156136681
1926.272016,35.88308450708018
1929.120631,-1.5406954794408527
1931.966216,52.60797244437583
1934.808786,74.14580338657902
1937.648351,7.219109919934063
1940.484927,-9.43577764215533
1943.318525,33.070523159584596
1946.149158,42.91409263789769
1948.97684,26.047163422777057
1951.801584,9.290495666019815
1954.623403,3.527878443323056
1957.44231,13.944405444428696
1960.258318,4.018297686403961
1963.071439,-29.074495166611577
1965.881688,-21.304256950677082
1968.689078,14.921883329483231
1971.493621,10.012239308006894
