Raman shift cm-1,4ATP_100uM_rep2_acc3_processed_intensity
-93.47115107,9.712358345253293
-87.69374369,37.29390941606931
-81.9253076,-1.6298373006712001
-76.16582701,-10.46483692252012
-70.41528615,54.90556436772788
-64.67366933,86.0807638727552
-58.94096086,51.7901656530492
-53.21714512,13.473058707537092
-47.50220652,-15.212293334729083
-41.79612954,-12.591296292769584
-36.09889866,30.410548360662403
-30.41049843,41.1497573111381
-24.73091343,13.790021157686851
-19.0601283,26.944503412118706
-13.39812769,63.265001571006735
-7.744896327,73.92919840114803
-2.100418946,84.82749817920342
3.535319659,84.19342346364147
9.162334658,36.43999507554861
14.78064118,-15.858972577583586
20.39025432,-9.256003852571098
25.99118913,57.37958950784207
31.58346061,106.57358392480364
37.16708375,77.45259222480274
42.74207347,26.797051854818733
48.30844468,16.697959177566304
53.86621222,13.784750452173967
59.41539093,-3.5627936389954584
64.95599558,8.252946178653929
70.48804091,67.56024931606396
76.01154164,130.74019187432737
81.52651243,164.52963601389865
87.03296792,185.29352649095097
92.5309227,202.39824257439625
98.02039134,207.79333789344298
103.5013884,230.54611246179695
108.9739282,292.6602565559806
114.4380255,347.96300083147696
119.8936944,356.00828122043856
125.3409495,355.6455800384674
130.779805,407.38541176820695
136.2102753,479.7622625450414
141.6323747,491.4492170429153
147.0461174,490.07335382850454
152.4515176,579.4324909459397
157.8485895,707.6751979871352
163.2373472,771.7617008467074
168.6178049,787.142311182522
173.9899766,810.7387617608621
179.3538764,851.2232004999292
184.7095182,889.5068437419111
190.0569161,928.294545204284
195.396084,992.4151062894036
200.7270358,1037.535107736202
206.0497854,1005.421488023329
211.3643466,1003.6952501404203
216.6707333,1123.5720746472286
221.9689593,1220.352924947142
227.2590382,1203.5553177093975
232.5409839,1211.642801434018
237.8148101,1315.4923984577665
243.0805303,1403.5866766243762
248.3381582,1423.993348210397
253.5877075,1466.5824952695157
258.8291917,1569.3918363246107
264.0626244,1653.7385846029292
269.288019,1665.6643250457566
274.5053891,1657.7676993123696
279.7147481,1711.5441827425066
284.9161094,1776.4848810314065
290.1094865,1702.0855407475758
295.2948927,1456.3122924477557
300.4723414,1072.491974853072
305.6418459,557.7198904553971
310.8034194,112.3908897883116
315.9570752,-12.372511253724145
321.1028267,87.6613311590374
326.2406869,198.95921406121968
331.370669,274.59162428734317
336.4927863,286.36127266628716
341.6070517,273.7212206256928
346.7134786,356.7227685108027
351.8120798,468.64128595068917
356.9028684,494.2116702378891
361.9858576,549.6748585062716
367.0610602,717.184558288561
372.1284892,1027.8963958914085
377.1881577,2052.132830638956
382.2400784,4352.766966959071
387.2842644,6927.749541408764
392.3207284,7796.361774017456
397.3494833,6454.0573710732415
402.370542,4242.101483280996
407.3839172,2464.6724139338753
412.3896217,1421.643241956057
417.3876683,885.2403417808962
422.3780697,573.0541284237213
427.3608386,333.95576030167047
432.3359876,210.24621259020188
437.3035295,248.42227114959778
442.2634769,316.78841966832726
447.2158423,255.25625259250938
452.1606383,104.32976313986924
457.0978776,8.35817593493649
462.0275727,-0.08295219081970373
466.9497361,36.62298543535101
471.8643802,109.35498150046007
476.7715176,189.66717963404903
481.6711608,203.6822767451762
486.5633221,170.79084201749697
491.448014,203.12415212876436
496.3252488,272.75376981640875
501.195039,249.3363673047356
506.0573969,177.2701979682078
510.9123349,169.90922201745008
515.7598651,181.81382537798834
520.6,174.67167815467758
525.4327518,206.32706421535556
530.2581327,251.4468311096154
535.076155,251.55863748729033
539.8868309,235.24271414011147
544.6901726,205.50993611969474
549.4861922,140.44835072319222
554.2749019,83.2272501025476
559.0563139,57.096800637485686
563.8304402,49.02392796758691
568.597293,50.30047291716713
573.3568844,30.579344749029715
578.1092263,-0.7668430220936013
582.8543308,-5.51693177302257
587.5922101,-5.2969314181409715
592.322876,-11.494143828203029
597.0463405,1.0837233747953547
601.7626157,9.065156208403089
606.4717135,-0.7811758111725382
611.1736458,5.784882543480705
615.8684246,10.064300561573333
620.5560617,-8.909621574805229
625.2365691,34.16424840775588
629.9099585,235.3457719564799
634.5762419,518.0777100281849
639.2354312,636.5698761416908
643.887538,473.4873647197176
648.5325743,236.4683402539432
653.1705518,162.38605771924725
657.8014823,182.7771172687505
662.4253775,124.80269803704644
667.0422493,23.760499303687567
671.6521092,-2.2749605752191258
676.2549691,38.73085956858955
680.8508407,56.33895919301523
685.4397355,13.367079050169565
690.0216654,-6.613760680330529
694.5966419,92.37894913322177
699.1646767,244.6291103944359
703.7257814,292.8176504873244
708.2799676,236.45526620426742
712.827247,189.52194840660638
717.367631,149.11536824937716
721.9011314,81.57717780322591
726.4277595,32.47161160240688
730.9475271,10.589307173954964
735.4604456,6.7526765250733405
739.9665264,21.578407866389867
744.4657813,11.273075252677017
748.9582215,-15.661207891373166
753.4438587,-0.5869760802049058
757.9227042,31.04152584911013
762.3947696,24.261528114276757
766.8600662,-8.89025296242383
771.3186056,-20.013579590473
775.770399,13.308780757443053
780.215458,54.35980204910324
784.6537939,78.48525981708877
789.0854181,145.70039153911574
793.510342,298.7373536992374
797.9285769,466.3095742603018
802.3401342,563.7993597995895
806.7450253,600.8354421932214
811.1432614,608.7180917294224
815.5348538,567.934571040008
819.9198139,483.7182814449678
824.2981531,412.2798241083972
828.6698824,361.2184030183841
833.0350133,287.8674819170823
837.393557,201.31835890632007
841.7455248,133.1516215113151
846.0909278,67.66811690242645
850.4297774,8.089613986230638
854.7620848,-13.414912326073036
859.0878611,5.219093401534998
863.4071176,51.937009810981394
867.7198655,83.59490494687695
872.026116,56.85207142268614
876.3258802,12.563774746969742
880.6191693,-6.216685356155059
884.9059946,-9.933039816607428
889.186367,5.131540697173763
893.4602979,40.03559574171852
897.7277982,87.89944904260166
901.9888793,148.70404240921124
906.2435521,179.9463794329415
910.4918277,172.43153963584837
914.7337174,213.71283392706636
918.9692321,305.7780360285479
923.1983831,335.29438968737725
927.4211813,319.8856124061001
931.6376378,369.5555644314868
935.8477637,426.5844285951722
940.0515701,382.1072066604089
944.249068,333.9477437350557
948.4402684,404.8850868827455
952.6251825,502.3821284321118
956.8038212,523.8661657348779
960.9761955,516.965677301943
965.1423166,534.4763284901611
969.3021953,591.834440844811
973.4558427,656.1376000026723
977.6032699,645.1282834355771
981.7444877,604.7062330082008
985.8795072,631.5256131799853
990.0083394,661.6839608907603
994.1309953,708.665715094229
998.2474857,975.3736108442333
1002.357822,1378.179469756217
1006.462014,1444.9281544475518
1010.560075,1005.3570928270393
1014.652013,448.603338476789
1018.737841,113.02074867192658
1022.81757,4.138412751740219
1026.891209,35.65933307916836
1030.958771,81.87380161298074
1035.020266,65.59452583080261
1039.075705,83.20454079647654
1043.1251,158.42497997231402
1047.16846,168.0012495524375
1051.205797,169.22709417758114
1055.237121,346.05003748429306
1059.262444,683.5117095089402
1063.281777,1206.4650405963241
1067.295131,2371.7440025607752
1071.302515,4584.327213875151
1075.303942,7136.325303901358
1079.299422,8213.723605125157
1083.288966,6733.953044565993
1087.272585,3812.462605326036
1091.250289,1478.9301436445046
1095.222091,471.3204784295883
1099.187999,195.6685270985698
1103.148026,75.44920258582526
1107.102183,1.5185359737222086
1111.050479,-8.76087976392624
1114.992927,28.899243738042408
1118.929536,89.04223415282713
1122.860318,192.5185182854391
1126.785283,413.855169552361
1130.704443,813.4484147999077
1134.617808,1419.2224063126953
1138.52539,2043.0394239467414
1142.427198,2200.3515447393534
1146.323244,1729.2127238154903
1150.213538,1105.219736114372
1154.098093,718.0413697719447
1157.976917,532.0038479476008
1161.850023,478.7034419996297
1165.717421,510.6811920038072
1169.579121,566.1890020399767
1173.435135,688.0844091152201
1177.285474,864.1119534652611
1181.130148,952.2862484413438
1184.969169,870.7561253198294
1188.802547,657.4695568236522
1192.630292,413.96977128482393
1196.452416,225.46202781004268
1200.26893,96.70097446961067
1204.079844,14.521063903597497
1207.88517,-10.937456129864051
1211.684917,0.6848198373126131
1215.479098,9.455915184919991
1219.267722,1.7588757708672205
1223.050801,-1.8526898364079778
1226.828346,26.674138114488255
1230.600366,69.19198389382775
1234.366874,93.32842657325591
1238.12788,130.01586421156262
1241.883395,193.12963139768448
1245.633429,216.64610476115027
1249.377994,183.87050986427403
1253.1171,147.81315974206592
1256.850759,116.19223492541627
1260.578981,72.50590567822462
1264.301776,24.866274732383317
1268.019157,-16.466861997977034
1271.731133,-28.6236963622107
1275.437715,8.694931920424732
1279.138915,51.39698976928922
1282.834743,41.12157277828566
1286.52521,12.985138367428815
1290.210328,16.018398811151123
1293.890106,29.653264478451238
1297.564555,76.75242443163748
1301.233688,183.37094756013917
1304.897514,260.7075333166292
1308.556044,249.5077659263423
1312.209289,173.2399842460372
1315.857261,62.287482886997324
1319.499969,16.46843371133598
1323.137425,79.91276302830192
1326.769641,110.54766952094596
1330.396626,45.672888585272716
1334.018391,-9.474211418888473
1337.634948,-16.27403553103763
1341.246307,3.604114000422868
1344.85248,64.48534351794912
1348.453477,136.1719816464714
1352.049309,165.87155370035686
1355.639987,180.67867024189664
1359.225522,219.22058526217995
1362.805925,266.2538298031906
1366.381207,312.13861142064906
1369.951379,353.63144870817166
1373.516452,373.47245139938457
1377.076436,402.5209088688077
1380.631343,543.8492024338107
1384.181184,831.3681617921584
1387.725969,1082.9376797391324
1391.26571,1074.6882598717345
1394.800417,812.8222883664316
1398.330102,478.2482297068593
1401.854776,220.07205601828304
1405.374448,64.6591745030036
1408.889132,-11.419196428989355
1412.398837,16.316995689601832
1415.903574,168.19891028871675
1419.403355,446.62518636369145
1422.89819,835.1690745625018
1426.388091,1187.182466727027
1429.873069,1350.865732881965
1433.353134,1325.1848623448725
1436.828298,1098.8926521135452
1440.298571,709.1587305368438
1443.763965,398.87327866689463
1447.224491,270.3237053367977
1450.68016,150.38595926644464
1454.130983,13.22390318389716
1457.576971,-12.465707441839557
1461.018135,35.257404484190786
1464.454486,67.34502707601112
1467.886036,105.47443738461949
1471.312794,153.0867934202889
1474.734774,168.8515165495818
1478.151985,181.7008994464769
1481.564439,272.33476790447423
1484.972146,438.4675276088983
1488.375119,569.2879321113969
1491.773368,551.4925899235052
1495.166904,376.56965892438143
1498.555739,184.51453110490064
1501.939883,115.61215913981776
1505.319349,124.54863301638288
1508.694146,110.20455442268442
1512.064286,82.13473568575964
1515.429781,63.80870950207906
1518.790642,41.53361144755491
1522.146879,11.223549161948881
1525.498505,-18.66414190617021
1528.845529,1.955431202433374
1532.187965,93.49484690432733
1535.525822,163.5256933106642
1538.859112,175.7273145638285
1542.187846,227.96555485189018
1545.512036,339.8138564060602
1548.831693,395.0708605509511
1552.146829,373.8050525165784
1555.457453,425.1039428325013
1558.763579,601.829237718533
1562.065216,774.1879902318002
1565.362377,892.1337490835341
1568.655073,1035.9251819308456
1571.943315,1232.686367874331
1575.227114,1456.5826732917146
1578.506482,1701.2388474166214
1581.781431,1965.2703204051104
1585.051971,2267.3350885588256
1588.318114,2592.397733778959
1591.579872,2773.8597506022033
1594.837255,2622.5573215953746
1598.090275,2141.318635229563
1601.338945,1464.707896692711
1604.583274,756.4981206650543
1607.823275,276.3800056842761
1611.058959,203.65263544855844
1614.290338,279.08662828021374
1617.517422,174.32025857815452
1620.740224,49.19704895105668
1623.958755,83.88086929982572
1627.173027,102.09543868722227
1630.38305,38.095728783102324
1633.588838,6.334650940599488
1636.7904,10.320987493001375
1639.987749,9.406289920853006
1643.180896,2.328969550710223
1646.369853,10.57733440999257
1649.554632,55.539958746078185
1652.735244,80.41764453462208
1655.9117,24.336190799603685
1659.084013,-46.03641657376573
1662.252193,-39.3294578023932
1665.416254,11.42222563284863
1668.576205,27.08823167913964
1671.732059,15.886403554566225
1674.883828,15.469849314893178
1678.031523,12.20761593088801
1681.175157,-5.1249364265203
1684.314739,-5.921802486351906
1687.450284,36.22517583616416
1690.581801,74.29237349897852
1693.709304,46.585190766455725
1696.832803,14.602274769408641
1699.952311,58.7513587380264
1703.067839,114.04031255170267
1706.179399,108.25863412485089
1709.287003,89.50805119031048
1712.390663,99.8019540780571
1715.49039,100.72291128529675
1718.586197,69.45011725881389
1721.678095,44.00371004397648
1724.766096,39.06032472579204
1727.850213,17.313227838995488
1730.930456,-17.80784928490636
1734.006838,-13.205011267339259
1737.079372,40.08615991882197
1740.148067,95.53351144925695
1743.212938,119.45346513503185
1746.273996,131.33762076416843
1749.331252,149.63884849523964
1752.384718,142.4650034162901
1755.434408,135.3204755590899
1758.480332,189.69248861234058
1761.522503,208.88960187784605
1764.560933,114.94519036409673
1767.595634,63.49975989208145
1770.626618,128.30124677156448
1773.653896,159.14525590825983
1776.677482,92.31624666461154
1779.697388,8.354772238783848
1782.713625,-15.818319210405164
1785.726205,37.81201144058427
1788.735141,81.45755698761536
1791.740445,45.480170239999055
1794.742129,11.645976998075358
1797.740206,56.47771852419103
1800.734687,129.8181447281949
1803.725585,140.88739439122554
1806.712912,74.99195290529494
1809.69668,9.91920325894373
1812.676902,-7.081004210771149
1815.65359,1.379568806577602
1818.626756,26.13259768633182
1821.596413,53.34355365360099
1824.562573,59.177366741124615
1827.525247,59.471694255044525
1830.48445,45.31847066480836
1833.440192,4.719250537729186
1836.392487,0.9639139758464532
1839.341347,37.105858896240306
1842.286784,46.99569670353294
1845.22881,52.15548606706104
1848.167439,66.84680148042655
1851.102682,41.467313482306096
1854.034553,-1.7727651489820282
1856.963063,-17.392843658265956
1859.888226,-0.15013532491506254
1862.810053,60.7204461748608
1865.728557,108.24118297887046
1868.643751,65.76680973782679
1871.555648,0.8450387551889555
1874.46426,12.724785370839092
1877.369599,75.35305611013604
1880.271679,88.61161309143367
1883.170512,16.417717516941583
1886.06611,-23.244907411415326
1888.958487,29.51317854256252
1891.847655,37.244309197124196
1894.733626,-8.823570933848952
1897.616414,10.66708703272472
1900.496032,28.094262747885903
1903.372491,3.668458626107654
1906.245805,54.31001566611848
1909.115987,134.99230826286345
1911.983049,120.3018783332394
1914.847004,65.78659927096581
1917.707866,60.47290164426132
1920.565646,90.24366251704217
1923.420359,107.91469783289999
1926.272016,83.07333651383875
1929.120631,31.10267396637593
1931.966216,-6.982883087475823
1934.808786,-15.110009393827246
1937.648351,15.924226567948725
1940.484927,76.5014908233114
1943.318525,102.93549620719931
1946.149158,57.64312596659426
1948.97684,7.005042852763575
1951.801584,43.347552551344734
1954.623403,129.05894285394623
1957.44231,118.05303258158762
1960.258318,12.075583928979318
1963.071439,-14.967940419213535
1965.881688,71.04075259451108
1968.689078,127.02275652596157
1971.493621,94.42742867761464
