Raman shift cm-1,4ATP_10uM_rep1_acc2_processed_intensity
-93.47115107,3.0026469052200824
-87.69374369,131.02961254189532
-81.9253076,18.917990249573283
-76.16582701,-13.12861835823832
-70.41528615,46.85320556097834
-64.67366933,82.36209383173454
-58.94096086,16.045121247481344
-53.21714512,-39.905613556052515
-47.50220652,61.53696614256843
-41.79612954,111.76958497782482
-36.09889866,61.591522254284655
-30.41049843,72.36789053255083
-24.73091343,68.39419351884963
-19.0601283,-8.461820299503527
-13.39812769,2.134260617235719
-7.744896327,9.668233870014909
-2.100418946,16.125735919675787
3.535319659,16.842144098954243
9.162334658,-12.61708688387242
14.78064118,62.28402029309062
20.39025432,-15.296372662112963
25.99118913,-2.454842342554551
31.58346061,89.87954244649083
37.16708375,-7.103885457412234
42.74207347,8.161730984675541
48.30844468,20.195001054305312
53.86621222,26.919747712736765
59.41539093,-14.438804649247523
64.95599558,1.224908280318341
70.48804091,48.458101375180064
76.01154164,-24.169290570522183
81.52651243,3.9170105820808025
87.03296792,-16.32802567741283
92.5309227,52.956260973625405
98.02039134,60.22577866472861
103.5013884,23.072857415331526
108.9739282,121.06857156562398
114.4380255,64.66851645693336
119.8936944,1.5605421328334046
125.3409495,-38.90431327641592
130.779805,5.856886694553271
136.2102753,12.108895523044632
141.6323747,-25.738441972989477
147.0461174,5.934169554594716
152.4515176,1.5174744237884843
157.8485895,77.06653030920818
163.2373472,24.413138292389533
168.6178049,14.454940545548201
173.9899766,69.11686985496104
179.3538764,-2.9331065177712414
184.7095182,100.92488332660514
190.0569161,89.77290173344362
195.396084,-32.995395285958836
200.7270358,33.47227353829827
206.0497854,6.8026323456828575
211.3643466,22.2999228634403
216.6707333,91.57436669064494
221.9689593,10.42497846268743
227.2590382,20.408466156867902
232.5409839,58.0791304697208
237.8148101,22.80674925068487
243.0805303,-1.9988751594480796
248.3381582,-35.56954693086385
253.5877075,-13.51911093789078
258.8291917,24.267308670505365
264.0626244,-36.83672846174861
269.288019,1.955825442656895
274.5053891,80.15424387074509
279.7147481,-4.151500039384299
284.9161094,65.29753086965341
290.1094865,382.9277575800224
295.2948927,1350.495113252642
300.4723414,3758.03361985575
305.6418459,7208.570920277766
310.8034194,10215.426786928876
315.9570752,11795.876665255926
321.1028267,12290.051539930693
326.2406869,12666.462216147784
331.370669,13286.360419164914
336.4927863,13777.32001582349
341.6070517,14242.11268644335
346.7134786,15004.64273915128
351.8120798,15744.604991410868
356.9028684,15817.898636533677
361.9858576,15425.402085938786
367.0610602,15570.514227209069
372.1284892,16699.396094546824
377.1881577,20098.712394460268
382.2400784,26979.490933946032
387.2842644,34813.03730639052
392.3207284,38194.58622576511
397.3494833,34609.50927283651
402.370542,28262.47162204709
407.3839172,22754.462060539016
412.3896217,18032.647094829725
417.3876683,14855.948140520995
422.3780697,12715.926069375404
427.3608386,11137.795718219842
432.3359876,10338.172787560092
437.3035295,9665.788241527229
442.2634769,9099.964797871195
447.2158423,8620.462112843985
452.1606383,8215.323017294677
457.0978776,7922.544176483091
462.0275727,7874.07843893132
466.9497361,7876.4007963215845
471.8643802,8024.614686995519
476.7715176,9232.624122043264
481.6711608,10998.758859874657
486.5633221,11748.21820666847
491.448014,10869.14143153584
496.3252488,9248.382893067008
501.195039,7796.859482732622
506.0573969,6768.998164931417
510.9123349,6352.833049489409
515.7598651,6032.159607106443
520.6,5517.354417130606
525.4327518,5363.423540123398
530.2581327,5361.020044581037
535.076155,5629.221632846258
539.8868309,6113.542482235531
544.6901726,5444.037073625018
549.4861922,4191.5206870401935
554.2749019,3495.580595855254
559.0563139,3116.097291108984
563.8304402,2939.7433592679113
568.597293,2801.1841145225094
573.3568844,2635.9618513462424
578.1092263,2442.4782719122645
582.8543308,2452.1362968657777
587.5922101,2428.5958053030936
592.322876,2174.7364536277123
597.0463405,2224.367722129225
601.7626157,2143.5451897925486
606.4717135,1953.1246103463682
611.1736458,1909.9874095273126
615.8684246,1698.554053618912
620.5560617,1860.2354235258776
625.2365691,2172.2110265632573
629.9099585,2069.5042246285584
634.5762419,2087.4471481833098
639.2354312,2283.0458093489638
643.887538,1992.527343898238
648.5325743,1483.500049021262
653.1705518,1387.3444260201773
657.8014823,1213.011434955638
662.4253775,968.674061441624
667.0422493,935.8858704644963
671.6521092,774.2729895288594
676.2549691,679.3934624430376
680.8508407,671.9101682874802
685.4397355,746.2623888641133
690.0216654,853.7260437368
694.5966419,1035.191519583147
699.1646767,1853.6291563708132
703.7257814,2656.2157236902967
708.2799676,3188.3365800209745
712.827247,3927.5304837707763
717.367631,3704.1171446660387
721.9011314,2261.1940577588507
726.4277595,1164.7633406887376
730.9475271,670.8915526335118
735.4604456,298.1891154222503
739.9665264,252.52614072039705
744.4657813,285.3318225990224
748.9582215,137.7045772397164
753.4438587,22.634933282961356
757.9227042,47.05731579642247
762.3947696,29.16450578759145
766.8600662,-0.24672732473345604
771.3186056,154.5496227272913
775.770399,139.07407952560084
780.215458,187.13017517612752
784.6537939,491.94338307463477
789.0854181,795.5477201415802
793.510342,1344.4677948549624
797.9285769,2020.5519528762336
802.3401342,2383.6401608123833
806.7450253,2141.184811491154
811.1432614,1773.8428365826403
815.5348538,1689.545394307503
819.9198139,1501.4260721508326
824.2981531,1281.9581576378512
828.6698824,938.005722971593
833.0350133,414.1659139427145
837.393557,229.9343746570268
841.7455248,184.16133601452293
846.0909278,-39.702405039991476
850.4297774,-69.44013707503046
854.7620848,20.74665732512642
859.0878611,25.276253641094325
863.4071176,198.58865964945704
867.7198655,436.53637245562015
872.026116,492.194107244718
876.3258802,476.89073736953236
880.6191693,525.9857821822201
884.9059946,523.6214080008615
889.186367,649.4437400989583
893.4602979,796.2833821148156
897.7277982,822.8709743575541
901.9888793,1110.9486909016327
906.2435521,1405.2298156474897
910.4918277,1820.9760034442795
914.7337174,2361.5036552125307
918.9692321,2767.14396558063
923.1983831,2883.2645546308736
927.4211813,2632.5245468735775
931.6376378,2687.519155715621
935.8477637,2640.9134262884468
940.0515701,2659.316641788193
944.249068,2985.557414360191
948.4402684,2808.5862063146246
952.6251825,2935.526408666232
956.8038212,3293.4828851635652
960.9761955,3117.24492703783
965.1423166,3015.5995126796256
969.3021953,2955.403858408335
973.4558427,2835.53550121474
977.6032699,2775.9585662530026
981.7444877,2535.7863746821968
985.8795072,2285.696577234595
990.0083394,2206.0292029661086
994.1309953,2332.35975827474
998.2474857,2857.103452141595
1002.357822,4178.273712223863
1006.462014,4831.511974216257
1010.560075,3191.7978654559697
1014.652013,1129.181998163861
1018.737841,164.6754735631382
1022.81757,-21.370652087963776
1026.891209,20.57537423061092
1030.958771,25.180901079083014
1035.020266,231.0796093790933
1039.075705,498.74949235572035
1043.1251,884.1046519671045
1047.16846,1334.635916418647
1051.205797,2518.10903141387
1055.237121,5366.164911597497
1059.262444,10368.960017840242
1063.281777,19014.43521605741
1067.295131,29833.659518219818
1071.302515,37600.180977288765
1075.303942,38255.388449791826
1079.299422,31571.19937607217
1083.288966,21145.997922453716
1087.272585,11324.572958552475
1091.250289,5140.61979227462
1095.222091,2592.90994896985
1099.187999,1392.8596731594553
1103.148026,959.9114558529026
1107.102183,1086.0194177202989
1111.050479,1484.4650243849937
1114.992927,2555.0708794535954
1118.929536,4333.9916779544055
1122.860318,7825.634905686254
1126.785283,13815.735277018472
1130.704443,22795.836319349935
1134.617808,32868.351146440815
1138.52539,37907.528110540305
1142.427198,34605.88858421373
1146.323244,24993.2927544764
1150.213538,15039.340827265216
1154.098093,9238.731623476602
1157.976917,6322.481440394185
1161.850023,5204.91491635923
1165.717421,4979.786826065389
1169.579121,4777.634489279905
1173.435135,5178.887890230674
1177.285474,5664.641309561681
1181.130148,6554.074861764349
1184.969169,7318.757187146075
1188.802547,6964.587360613895
1192.630292,5990.9589533287335
1196.452416,4020.6824797499867
1200.26893,2049.2283854821353
1204.079844,1009.2572478001481
1207.88517,444.45381988585564
1211.684917,171.1394924781245
1215.479098,-8.583923373755283
1219.267722,40.071359670363165
1223.050801,-17.249259764447146
1226.828346,23.89657887347616
1230.600366,113.68654261976013
1234.366874,168.62327611639864
1238.12788,494.15244884100787
1241.883395,572.7630569482147
1245.633429,689.8279281617059
1249.377994,693.187306627688
1253.1171,498.1093362816129
1256.850759,314.4384133991012
1260.578981,93.19386288239832
1264.301776,113.38767611764588
1268.019157,7.352853397299775
1271.731133,-35.88013165912631
1275.437715,19.87257525450623
1279.138915,132.00153270374233
1282.834743,310.64360167125125
1286.52521,310.35029597873574
1290.210328,557.865998781357
1293.890106,1179.6365506747263
1297.564555,2008.0130540412733
1301.233688,2683.8852340825156
1304.897514,2961.745981231038
1308.556044,2517.434279844688
1312.209289,1766.68888801835
1315.857261,1295.5844373091643
1319.499969,897.5711896303384
1323.137425,825.8820313861702
1326.769641,864.3982361130949
1330.396626,815.8297291856135
1334.018391,891.8569461193019
1337.634948,1106.292478373832
1341.246307,1315.1654324671379
1344.85248,1549.128310869182
1348.453477,1929.7115461857836
1352.049309,2342.8940886055148
1355.639987,2689.8658169537953
1359.225522,3072.3971924698676
1362.805925,3415.5921642115213
1366.381207,3741.3457994988403
1369.951379,4473.131795157993
1373.516452,5527.4135294186735
1377.076436,7573.400226452473
1380.631343,10865.088757375044
1384.181184,14747.182945616125
1387.725969,17726.22544094973
1391.26571,17090.225461545608
1394.800417,12701.179568533893
1398.330102,7836.964132679286
1401.854776,4746.1730259351625
1405.374448,3169.6535236594773
1408.889132,2968.0864406782684
1412.398837,3747.0641670821406
1415.903574,6081.496821419421
1419.403355,10343.698093309898
1422.89819,15668.91031984824
1426.388091,20590.24001344681
1429.873069,23123.870458283953
1433.353134,22846.003626753754
1436.828298,19809.39950265186
1440.298571,15500.059119377596
1443.763965,11297.644509102902
1447.224491,7811.798847348483
1450.68016,5345.739148724673
1454.130983,3509.977977783945
1457.576971,2684.683781726883
1461.018135,2244.846665859446
1464.454486,2091.1515576367046
1467.886036,2550.2060398380668
1471.312794,2822.576412463747
1474.734774,2496.7293979679125
1478.151985,1604.5097804498778
1481.564439,938.5652120353009
1484.972146,679.9919858201812
1488.375119,445.94877415682777
1491.773368,346.05668393133817
1495.166904,112.17935984817973
1498.555739,-16.69945773837776
1501.939883,9.591450847235933
1505.319349,13.490927867083428
1508.694146,60.04989965620689
1512.064286,184.17175843385564
1515.429781,448.3412327954313
1518.790642,512.8205557098922
1522.146879,594.7548894009658
1525.498505,723.5232776719431
1528.845529,880.8002725250471
1532.187965,1238.4355276216743
1535.525822,1593.5630293077083
1538.859112,1929.3750049139558
1542.187846,2379.737370051709
1545.512036,2896.2645774243247
1548.831693,3344.724076678777
1552.146829,4116.139694496192
1555.457453,5052.365899711275
1558.763579,6173.850077447114
1562.065216,7691.300993694541
1565.362377,9175.53750007529
1568.655073,10732.456277231162
1571.943315,11995.202714596326
1575.227114,12458.743612849637
1578.506482,12351.783113178008
1581.781431,11916.21346667464
1585.051971,11345.484774356539
1588.318114,10652.195580644824
1591.579872,9102.42600739343
1594.837255,6594.885119240945
1598.090275,4294.704139158692
1601.338945,2699.5529730244866
1604.583274,1864.1562134487694
1607.823275,1276.3609050955386
1611.058959,943.197372296442
1614.290338,1111.3748134588616
1617.517422,812.6065066339863
1620.740224,573.8150918730742
1623.958755,710.9473376714761
1627.173027,566.9286120230588
1630.38305,445.62371952318057
1633.588838,381.95995808245124
1636.7904,338.65740639122725
1639.987749,342.1285172516802
1643.180896,247.81805161138323
1646.369853,127.50875023172938
1649.554632,131.3181402793668
1652.735244,165.22567601105737
1655.9117,79.3315275289313
1659.084013,-6.80614128453368
1662.252193,-6.018942200425357
1665.416254,6.390123635815343
1668.576205,25.975886032280783
1671.732059,56.24205028111072
1674.883828,5.338812257372183
1678.031523,-16.999742267546893
1681.175157,23.67537962670042
1684.314739,-31.89440481965498
1687.450284,-21.285590134229693
1690.581801,13.461499995374178
1693.709304,3.882547519719906
1696.832803,67.8222911872513
1699.952311,60.567102095146346
1703.067839,128.72908791665068
1706.179399,191.42419929226529
1709.287003,91.59064032946989
1712.390663,85.0170016571376
1715.49039,75.34986985205308
1718.586197,-9.052391907078501
1721.678095,-4.259342702199859
1724.766096,25.519614141689445
1727.850213,-24.871316345528044
1730.930456,0.3087224235314636
1734.006838,71.78495611306337
1737.079372,9.499704761406008
1740.148067,41.50021351227623
1743.212938,133.62031072778268
1746.273996,69.36834380583608
1749.331252,108.5984029527363
1752.384718,159.44736526902625
1755.434408,144.23108474474972
1758.480332,217.9536612371918
1761.522503,98.23577553987596
1764.560933,-23.595850919677346
1767.595634,6.535007247411151
1770.626618,21.345078366839058
1773.653896,124.16847641913965
1776.677482,88.59904702436533
1779.697388,22.67273450095251
1782.713625,48.45544780084839
1785.726205,-23.079540802731152
1788.735141,47.35131791388166
1791.740445,74.9798403643911
1794.742129,-1.3294756977910378
1797.740206,128.80472168266832
1800.734687,166.89772636757877
1803.725585,61.665409563052464
1806.712912,36.99542850844397
1809.69668,52.407494896156706
1812.676902,81.50226188248385
1815.65359,13.647582733051397
1818.626756,-18.09009028532322
1821.596413,20.209157817399973
1824.562573,-43.01906584661763
1827.525247,25.406276372713613
1830.48445,55.36617029065462
1833.440192,-15.165871285985904
1836.392487,17.72074632425467
1839.341347,7.6629897698073925
1842.286784,15.964844271775963
1845.22881,-28.16591509568856
1848.167439,-34.08976931971904
1851.102682,38.91332746062824
1854.034553,24.823700746424976
1856.963063,12.225871283010427
1859.888226,22.21829443499393
1862.810053,20.447619354044644
1865.728557,14.5811600664432
1868.643751,32.63985787960425
1871.555648,-40.73741571323893
1874.46426,-47.216859396908504
1877.369599,18.829140161130763
1880.271679,-1.8230000922378053
1883.170512,15.373119795537887
1886.06611,35.36518080577909
1888.958487,16.28424401339185
1891.847655,-19.811656544052852
1894.733626,1.0332230538696834
1897.616414,40.07670426701323
1900.496032,65.50454312239768
1903.372491,8.834753806808749
1906.245805,1.064961758153487
1909.115987,117.65565192848618
1911.983049,102.7739786851298
1914.847004,80.36928565631293
1917.707866,108.74012017791307
1920.565646,96.01330685474383
1923.420359,98.58077429904547
1926.272016,131.78662679923124
1929.120631,55.31377262243277
1931.966216,45.13742113599552
1934.808786,90.31047567428166
1937.648351,-31.045058970162955
1940.484927,4.715428702597329
1943.318525,84.83405722365079
1946.149158,71.15820279857596
1948.97684,94.39455680778306
1951.801584,87.84052325282256
1954.623403,49.323814303628765
1957.44231,26.794015740596564
1960.258318,21.298965052070628
1963.071439,-17.239187078540922
1965.881688,-10.50017105862717
1968.689078,5.026494095647884
1971.493621,-5.769157873941591
