Raman shift cm-1,4ATP_100fM_rep3_acc4_processed_intensity
-93.47115107,24.107865765612203
-87.69374369,20.50238897503613
-81.9253076,-23.371033353442435
-76.16582701,-35.05003566963323
-70.41528615,14.126637702058375
-64.67366933,37.72054774740231
-58.94096086,0.3235042409455673
-53.21714512,-10.500885989721894
-47.50220652,59.69794227660259
-41.79612954,102.30361741632538
-36.09889866,53.85854243135367
-30.41049843,57.59593352363714
-24.73091343,137.27552393246424
-19.0601283,118.39288808796192
-13.39812769,8.602376916943797
-7.744896327,-31.00233660101634
-2.100418946,5.0503379009949185
3.535319659,14.57292398179402
9.162334658,-8.757545561595862
14.78064118,-3.350285204565921
20.39025432,29.468889401680713
25.99118913,49.74046269310861
31.58346061,38.51322630579466
37.16708375,9.71619522988533
42.74207347,6.277947856841365
48.30844468,18.674520384057246
53.86621222,-2.9325361163396337
59.41539093,-20.765239288901626
64.95599558,18.353903469698025
70.48804091,29.13316304132013
76.01154164,-42.87340357143671
81.52651243,-52.72391934191626
87.03296792,47.102255964156825
92.5309227,68.43180018625037
98.02039134,-23.88713076511476
103.5013884,-44.133451181757664
108.9739282,26.477722344514177
114.4380255,44.54288375817032
119.8936944,11.646263765239837
125.3409495,10.326215270424882
130.779805,20.508572847896858
136.2102753,12.749983638928597
141.6323747,7.968547915442969
147.0461174,10.274415118948127
152.4515176,23.52526570499367
157.8485895,64.31559875827111
163.2373472,126.14178180002295
168.6178049,202.26905651610014
173.9899766,285.2332355179301
179.3538764,342.93070092612993
184.7095182,383.9988531622207
190.0569161,443.7532772127529
195.396084,495.85799064913795
200.7270358,511.8108217185347
206.0497854,528.2004404110245
211.3643466,601.3881392420222
216.6707333,711.9872213422316
221.9689593,754.7841791148479
227.2590382,735.908927508642
232.5409839,788.6637430800952
237.8148101,902.4940254971107
243.0805303,976.4347563275577
248.3381582,1049.1737659128983
253.5877075,1160.6303275816567
258.8291917,1250.1670643246148
264.0626244,1323.7322802434458
269.288019,1417.7099220175833
274.5053891,1474.647850310159
279.7147481,1482.4311265568326
284.9161094,1512.701960460321
290.1094865,1526.73163406419
295.2948927,1389.299960343907
300.4723414,1026.1502750024674
305.6418459,513.602778240916
310.8034194,111.56430965241894
315.9570752,-18.19123273663842
321.1028267,-20.047936554546407
326.2406869,1.4394567956031965
331.370669,61.3079995680498
336.4927863,52.28335351757674
341.6070517,-18.701923309874367
346.7134786,15.707287877661052
351.8120798,101.4595371865739
356.9028684,109.96121032423802
361.9858576,112.40359226148166
367.0610602,157.76632049732166
372.1284892,214.7614649684502
377.1881577,400.2619530136367
382.2400784,875.3682048607056
387.2842644,1500.0633595035404
392.3207284,1865.484253865474
397.3494833,1728.5590870200283
402.370542,1223.3828288139273
407.3839172,661.9061348007906
412.3896217,297.23445800332144
417.3876683,170.97972351122544
422.3780697,113.71334950258736
427.3608386,30.18419874987391
432.3359876,23.799762694563903
437.3035295,92.10839942165796
442.2634769,75.70066619674753
447.2158423,-15.229028047879343
452.1606383,-39.02625982388168
457.0978776,-5.8605988788134376
462.0275727,-5.223357495015449
466.9497361,-16.844502616759012
471.8643802,22.64010067890879
476.7715176,97.51604650257326
481.6711608,120.40728005811638
486.5633221,58.97228159267202
491.448014,14.938756102952716
496.3252488,29.05654077865356
501.195039,16.82846083314371
506.0573969,-5.6209341947071065
510.9123349,-8.501082382428077
515.7598651,-29.167712252633383
520.6,12.434588139165783
525.4327518,116.08719063803645
530.2581327,117.02615468149378
535.076155,63.981134839026566
539.8868309,106.30050734334532
544.6901726,160.95833142538086
549.4861922,135.8435058981442
554.2749019,88.8330549514616
559.0563139,58.33199603478615
563.8304402,62.51771525848138
568.597293,103.47055807792253
573.3568844,96.2926845380857
578.1092263,12.315695266153043
582.8543308,-37.06535126990883
587.5922101,11.779003945084018
592.322876,74.95406548697045
597.0463405,65.28402399094907
601.7626157,5.6782431645888565
606.4717135,-26.307576997549532
611.1736458,20.872887435202685
615.8684246,105.37726628192715
620.5560617,100.44034704386458
625.2365691,3.229364623050741
629.9099585,-20.89262950817448
634.5762419,57.97693032417382
639.2354312,102.41431794978183
643.887538,80.73199683186536
648.5325743,50.334056391767945
653.1705518,16.955555255640547
657.8014823,-13.405859888111308
662.4253775,-6.821212896045431
667.0422493,19.1700805093164
671.6521092,15.705838819018155
676.2549691,4.8412717259791265
680.8508407,19.870220113940803
685.4397355,14.550341250200312
690.0216654,-24.23274664301111
694.5966419,-27.55409896678951
699.1646767,8.06562064901857
703.7257814,17.753056893270227
708.2799676,6.466901348470328
712.827247,12.185969595843792
717.367631,7.821215394257592
721.9011314,-29.804896273694574
726.4277595,-38.87586847593791
730.9475271,24.442650578543812
735.4604456,72.99815051404502
739.9665264,21.899930808055203
744.4657813,-48.667734924267585
748.9582215,-20.768557290938592
753.4438587,48.40798052702792
757.9227042,29.34890136447823
762.3947696,-12.325550073019695
766.8600662,29.61990758814525
771.3186056,38.256096306208775
775.770399,-27.21121866758361
780.215458,1.4668524593469598
784.6537939,72.21136669217458
789.0854181,12.27045671790873
793.510342,-13.277562686643813
797.9285769,157.26518058757793
802.3401342,265.3837303827514
806.7450253,135.1355933117528
811.1432614,5.147007125462675
815.5348538,16.980311448493534
819.9198139,27.22178730260144
824.2981531,-6.773859873081014
828.6698824,1.8526709437558706
833.0350133,25.206040294429865
837.393557,8.809470020563515
841.7455248,14.872321016055826
846.0909278,43.76965388994977
850.4297774,-4.668151381315113
854.7620848,-66.99935488167628
859.0878611,-10.647785300701585
863.4071176,71.43605895470607
867.7198655,86.80358987045237
872.026116,133.2397224176828
876.3258802,187.82388094796949
880.6191693,143.24479183581536
884.9059946,107.81606562024147
889.186367,158.47399238547308
893.4602979,159.11189253716748
897.7277982,96.49712175468557
901.9888793,79.34695086367599
906.2435521,59.96907146508221
910.4918277,-1.8707972686452905
914.7337174,-19.867621724032876
918.9692321,15.227712984012927
923.1983831,45.92661903753515
927.4211813,57.87140391688779
931.6376378,66.06343155599978
935.8477637,82.50629977349375
940.0515701,71.27271588001179
944.249068,20.96462022867938
948.4402684,-2.575111255298303
952.6251825,7.451562388648597
956.8038212,5.943660906185123
960.9761955,-3.8858711016752707
965.1423166,-11.247293665244868
969.3021953,3.9833172174151343
973.4558427,40.098372679748344
977.6032699,30.008254002924716
981.7444877,-11.70271021191731
985.8795072,-4.940508803276483
990.0083394,16.61420678563951
994.1309953,-5.85565968778581
998.2474857,-28.37665422723907
1002.357822,-1.6677446582341697
1006.462014,35.103621389235954
1010.560075,29.317915408557855
1014.652013,11.197265069154408
1018.737841,5.31826893871585
1022.81757,-28.008903083806196
1026.891209,-56.09388588841618
1030.958771,-3.130697317151494
1035.020266,60.88053858120929
1039.075705,27.88168637158534
1043.1251,-18.31208604641752
1047.16846,28.47101268042271
1051.205797,66.48083442895349
1055.237121,13.355761188465237
1059.262444,-27.724113746519066
1063.281777,29.153751840370667
1067.295131,227.64489320778057
1071.302515,585.2909816582177
1075.303942,916.2667080922731
1079.299422,988.8855087030269
1083.288966,803.4706547037022
1087.272585,475.82006093700267
1091.250289,152.0592939913208
1095.222091,3.493872307530939
1099.187999,11.908846430848646
1103.148026,15.838345562972854
1107.102183,-4.452858003188364
1111.050479,-11.581201380786183
1114.992927,-34.04773344064304
1118.929536,-39.24631941682769
1122.860318,0.4315194917601417
1126.785283,23.997970892883785
1130.704443,22.692850579102974
1134.617808,37.484238267534906
1138.52539,51.11006025694383
1142.427198,21.91832729515268
1146.323244,-21.637536534213567
1150.213538,5.750825384129166
1154.098093,90.0897322020306
1157.976917,126.46892325532761
1161.850023,123.58552356376987
1165.717421,145.60439714847917
1169.579121,161.29536038703185
1173.435135,177.19580472104678
1177.285474,263.52285708291186
1181.130148,353.65210433502534
1184.969169,296.828227873259
1188.802547,121.00383256498016
1192.630292,7.3120245749725825
1196.452416,-1.6174261163170005
1200.26893,-10.475625718323414
1204.079844,-17.17361309696569
1207.88517,27.3635632904259
1211.684917,39.54774496873915
1215.479098,-11.041072835985585
1219.267722,-20.193493369494703
1223.050801,5.92182981164919
1226.828346,9.925773260036376
1230.600366,46.75858991394224
1234.366874,90.96218397233284
1238.12788,58.66098029614309
1241.883395,41.959159047030084
1245.633429,103.16515720120155
1249.377994,105.37994898399609
1253.1171,21.79917012113509
1256.850759,-0.7933083977831431
1260.578981,52.72319290827596
1264.301776,75.66104850887984
1268.019157,47.88426923629859
1271.731133,11.924955516363601
1275.437715,-9.478818172097036
1279.138915,-2.540187325566418
1282.834743,9.694099392277412
1286.52521,-17.090143747725342
1290.210328,-36.905440622258745
1293.890106,-1.7510001003996223
1297.564555,21.3549290381305
1301.233688,19.142559857278233
1304.897514,59.4055141896454
1308.556044,108.92789018165146
1312.209289,77.34560988894646
1315.857261,-4.847640367002569
1319.499969,-4.771381541875407
1323.137425,80.24234643197754
1326.769641,113.11015082273545
1330.396626,96.14968261182368
1334.018391,123.49060578519679
1337.634948,145.1081580903898
1341.246307,104.04371587531139
1344.85248,77.13372423065324
1348.453477,88.29314090007026
1352.049309,58.9304322225555
1355.639987,-1.1621535956003015
1359.225522,-19.215984862464882
1362.805925,-9.998714312883909
1366.381207,-7.852761305216124
1369.951379,3.551741197659863
1373.516452,21.12268314773211
1377.076436,18.73501785021236
1380.631343,3.6546250661417234
1384.181184,8.307152592966895
1387.725969,38.46305805526604
1391.26571,52.15160480568806
1394.800417,25.06217301139256
1398.330102,14.432932791654196
1401.854776,60.6572766264521
1405.374448,78.54291118367229
1408.889132,-3.5220537915695758
1412.398837,-77.45216416012417
1415.903574,-9.56363960323624
1419.403355,115.08275931002316
1422.89819,112.54157633883293
1426.388091,16.78241424817991
1429.873069,7.970531939525763
1433.353134,83.00234221347398
1436.828298,100.46703398416642
1440.298571,50.023293412314345
1443.763965,20.437605516593397
1447.224491,14.565231064207818
1450.68016,-7.382758110753688
1454.130983,-12.820460259775626
1457.576971,1.4093138508895233
1461.018135,-14.06633958515588
1464.454486,-9.012694476051191
1467.886036,52.02601394650888
1471.312794,74.04751387131219
1474.734774,38.16389860768567
1478.151985,14.833292402436335
1481.564439,0.2246321493194401
1484.972146,-22.19754468088557
1488.375119,-16.28548472322461
1491.773368,24.19809214536599
1495.166904,40.013689259631136
1498.555739,15.875061487119446
1501.939883,16.587776067809706
1505.319349,43.491852204116356
1508.694146,53.01241934284802
1512.064286,46.76391637074556
1515.429781,18.07254059225821
1518.790642,-0.18845078704278428
1522.146879,24.978441012950494
1525.498505,10.128356585759008
1528.845529,-55.815802016257294
1532.187965,-51.845334716684775
1535.525822,27.67724699307045
1538.859112,71.00228482394998
1542.187846,61.65726870810343
1545.512036,86.10778773434211
1548.831693,123.62011563345555
1552.146829,68.35039818602922
1555.457453,11.099540559122737
1558.763579,89.63614005790848
1562.065216,188.69203318837322
1565.362377,231.10814955718368
1568.655073,321.2277952165252
1571.943315,416.19998747491746
1575.227114,427.2080215354429
1578.506482,460.244387286662
1581.781431,571.2050129003521
1585.051971,662.4025171853812
1588.318114,688.0085687970846
1591.579872,644.057711428608
1594.837255,519.5863936271163
1598.090275,395.00184439692316
1601.338945,316.29851849019605
1604.583274,164.23142910304915
1607.823275,-8.69430297723719
1611.058959,20.344715732799596
1614.290338,100.67424501959087
1617.517422,11.496469802359258
1620.740224,-36.92987782183758
1623.958755,45.64329835672516
1627.173027,48.32482005469489
1630.38305,-13.855356316071578
1633.588838,14.666761159528871
1636.7904,90.42879330292372
1639.987749,84.31223649465163
1643.180896,15.252169793389294
1646.369853,16.289496482941484
1649.554632,84.59517668271864
1652.735244,81.03689403578574
1655.9117,6.208062330615782
1659.084013,-22.80695998459399
1662.252193,-9.674117969492551
1665.416254,-16.04011888831536
1668.576205,-17.395868929706538
1671.732059,5.919229237475772
1674.883828,17.950865277134017
1678.031523,10.256183033220807
1681.175157,0.08842405332805825
1684.314739,2.6855962042064156
1687.450284,23.892431800539622
1690.581801,22.618745524536394
1693.709304,-12.384449167119833
1696.832803,3.6418147301857005
1699.952311,93.63900570111292
1703.067839,147.29416245662514
1706.179399,113.39983476375538
1709.287003,88.56622491371388
1712.390663,126.20684514095825
1715.49039,134.78175117372845
1718.586197,68.36256376924645
1721.678095,-6.614435525067179
1724.766096,-56.33018298794363
1727.850213,-53.47717538001933
1730.930456,26.665351457037048
1734.006838,75.55152263577992
1737.079372,26.616267706998123
1740.148067,12.87186016612014
1743.212938,73.0821984456342
1746.273996,83.89773444211946
1749.331252,41.06341411477996
1752.384718,13.524034052597436
1755.434408,11.89260657763134
1758.480332,45.96124203859987
1761.522503,62.55365898462024
1764.560933,5.226655340373338
1767.595634,-30.546364267224977
1770.626618,-1.5427109929091074
1773.653896,10.648536524002104
1776.677482,15.770356888293747
1779.697388,21.56754790943092
1782.713625,-8.832697046720746
1785.726205,-13.168350795086248
1788.735141,9.268696461831212
1791.740445,-11.626353016350475
1794.742129,-14.344931937835852
1797.740206,50.27014070563302
1800.734687,104.03018774694833
1803.725585,86.70369356624248
1806.712912,36.90205415203221
1809.69668,27.397326004715122
1812.676902,28.369298026178853
1815.65359,-15.697431492573934
1818.626756,-40.45300354830421
1821.596413,-17.120053284483863
1824.562573,-0.13561468795888842
1827.525247,14.84249903399581
1830.48445,27.239003446243046
1833.440192,7.778291837323026
1836.392487,-6.028919905256078
1839.341347,-7.910793231816889
1842.286784,-30.22743079786544
1845.22881,4.337286249792517
1848.167439,95.38424315319124
1851.102682,86.92698481141481
1854.034553,10.638106779533379
1856.963063,1.2143355755793275
1859.888226,7.989892528255313
1862.810053,0.8021981247328969
1865.728557,41.45494578616966
1868.643751,68.78195137131804
1871.555648,20.938132818182126
1874.46426,-0.07177732623638278
1877.369599,44.52059821209329
1880.271679,40.916620083851065
1883.170512,-8.840422689298116
1886.06611,-6.107219491704807
1888.958487,8.42498168762689
1891.847655,-19.08772017164519
1894.733626,-30.093596424411153
1897.616414,-11.847831341801179
1900.496032,1.9983169807408423
1903.372491,26.76335813195458
1906.245805,54.42557488141761
1909.115987,43.708671774284845
1911.983049,10.031068224115288
1914.847004,11.70878806794407
1917.707866,67.89604161932196
1920.565646,119.12649724547694
1923.420359,85.83824818386084
1926.272016,0.14305076692417307
1929.120631,-23.92781976687029
1931.966216,9.303127417814846
1934.808786,11.419233930033403
1937.648351,-3.928976507613675
1940.484927,12.731303469585537
1943.318525,44.42858396532388
1946.149158,60.64968142102701
1948.97684,36.683156602651664
1951.801584,-5.394265675458944
1954.623403,1.1994471768277961
1957.44231,21.63431314838647
1960.258318,-13.527998184567869
1963.071439,-42.278053157125186
1965.881688,-13.432771013478156
1968.689078,17.606154206117235
1971.493621,20.969518749207108
