Raman shift cm-1,4ATP_1pM_rep1_acc5_processed_intensity
-93.47115107,82.20206184483129
-87.69374369,1.2328708335753618
-81.9253076,-25.98838695033748
-76.16582701,35.562881759365695
-70.41528615,64.36573948229268
-64.67366933,-0.6947927146073525
-58.94096086,-12.133937809045175
-53.21714512,-7.236616424466991
-47.50220652,3.416167271846671
-41.79612954,1.9749668322494127
-36.09889866,-38.14369931069314
-30.41049843,40.132423632441586
-24.73091343,66.87600885151268
-19.0601283,-16.244234818728867
-13.39812769,7.720695168047577
-7.744896327,-4.014488830226108
-2.100418946,4.883168596559031
3.535319659,33.48103966068854
9.162334658,-24.322865302786767
14.78064118,1.7969219524684878
20.39025432,39.89182557055271
25.99118913,78.87893749942171
31.58346061,77.02066335100146
37.16708375,4.0818395385422335
42.74207347,76.07600299082489
48.30844468,72.1102266466178
53.86621222,-62.776322320732035
59.41539093,-15.168773563759409
64.95599558,16.947263220521023
70.48804091,43.064996231726
76.01154164,56.508300728557685
81.52651243,-57.65030461318796
87.03296792,24.627239536021886
92.5309227,80.2278440450661
98.02039134,-29.670293062802834
103.5013884,31.655515826120016
108.9739282,99.412010675733
114.4380255,15.256310882911325
119.8936944,-19.238247616074478
125.3409495,18.858790800737708
130.779805,23.29490784784433
136.2102753,-23.69947488645461
141.6323747,-58.57000133474803
147.0461174,-8.231460207168226
152.4515176,13.82000533748922
157.8485895,-32.78007052494229
163.2373472,22.810056950479094
168.6178049,73.63908618224269
173.9899766,25.352188439344616
179.3538764,14.325359113628451
184.7095182,7.199357293310413
190.0569161,67.73093969074824
195.396084,74.90654470056995
200.7270358,-16.130515853792133
206.0497854,25.831859811841184
211.3643466,13.14653746253822
216.6707333,90.8504553935648
221.9689593,192.5660478754869
227.2590382,147.57259030559283
232.5409839,225.88825778893204
237.8148101,229.08767200478195
243.0805303,201.67574490876808
248.3381582,248.97713176505272
253.5877075,366.77102414812737
258.8291917,414.5879366338405
264.0626244,338.7583390867419
269.288019,461.36225814570366
274.5053891,585.7872339922484
279.7147481,575.7249711144165
284.9161094,576.5403307715952
290.1094865,535.0388795847823
295.2948927,422.9350464929585
300.4723414,269.1236204865013
305.6418459,36.96851255984895
310.8034194,-64.71079438013652
315.9570752,42.27250868839638
321.1028267,69.36937178558846
326.2406869,-39.26043619192811
331.370669,89.092036777851
336.4927863,260.44363937367854
341.6070517,196.11695179316757
346.7134786,361.57582245247295
351.8120798,446.0815483480668
356.9028684,434.45477555617447
361.9858576,442.8417355736526
367.0610602,445.24809419388686
372.1284892,562.0837977410741
377.1881577,663.6934599957748
382.2400784,1428.5244116130818
387.2842644,2470.01127071183
392.3207284,2930.4311013327806
397.3494833,2638.299764402051
402.370542,1933.1297962017284
407.3839172,1244.4068235776115
412.3896217,686.3356533993866
417.3876683,472.5718269526128
422.3780697,224.5683429184375
427.3608386,136.0523574875562
432.3359876,80.85679371384346
437.3035295,-13.029710758573515
442.2634769,93.76360766299968
447.2158423,-4.8393170472761255
452.1606383,-19.997404288999462
457.0978776,16.605443846176755
462.0275727,21.13213538040138
466.9497361,17.712381280403434
471.8643802,10.521456782699357
476.7715176,89.47295304284364
481.6711608,141.2856057292359
486.5633221,160.38430317307
491.448014,11.139549575552085
496.3252488,82.15779839690957
501.195039,110.24414244160607
506.0573969,-76.86104821429551
510.9123349,15.092958822704919
515.7598651,10.109979341087044
520.6,11.784562116692728
525.4327518,67.89149704000344
530.2581327,-3.903816347889629
535.076155,19.53385396254632
539.8868309,55.838994010634195
544.6901726,26.500814067621747
549.4861922,-19.157264692394236
554.2749019,34.40920754099258
559.0563139,10.427654150137736
563.8304402,-100.91178110088916
568.597293,-8.079096370173115
573.3568844,96.65478532338682
578.1092263,30.667664357856314
582.8543308,7.976388753898929
587.5922101,57.277442843213905
592.322876,-3.5049544751485975
597.0463405,15.235617353257172
601.7626157,95.98656626951939
606.4717135,21.803172296774616
611.1736458,34.85105876256046
615.8684246,112.13940667650843
620.5560617,61.423134551446694
625.2365691,6.692373985936072
629.9099585,-61.93311531572976
634.5762419,-34.068566523091334
639.2354312,151.2529531778975
643.887538,109.62117747457714
648.5325743,-16.90846181078846
653.1705518,80.63421458958004
657.8014823,117.87787991788082
662.4253775,20.859589394807344
667.0422493,-9.210770653778594
671.6521092,25.210978322129286
676.2549691,10.909299611454635
680.8508407,-17.927577793675965
685.4397355,25.346058693814868
690.0216654,12.149481915882234
694.5966419,-50.12546659245648
699.1646767,38.88812312291337
703.7257814,93.48007903028314
708.2799676,31.696081271542152
712.827247,28.738653105413956
717.367631,53.21460121710581
721.9011314,7.161473914911705
726.4277595,-73.11133635261046
730.9475271,-4.728895469257328
735.4604456,70.37869443965222
739.9665264,42.77595075166125
744.4657813,-23.631040559991472
748.9582215,-87.80115005420969
753.4438587,-37.49940156937707
757.9227042,43.24357229567182
762.3947696,15.042932605616349
766.8600662,22.834161690146555
771.3186056,41.49548262171717
775.770399,-8.190242540207931
780.215458,84.98436011699366
784.6537939,81.9792334803843
789.0854181,17.423614958706217
793.510342,141.40102769872146
797.9285769,329.81559370428306
802.3401342,367.7607500637818
806.7450253,302.1448381789079
811.1432614,286.1015898031526
815.5348538,211.05511321911462
819.9198139,209.7547453050038
824.2981531,209.7289845984477
828.6698824,143.19390064381224
833.0350133,104.40007583280867
837.393557,114.211345920022
841.7455248,115.6420363635759
846.0909278,72.71568837669373
850.4297774,1.500432883173275
854.7620848,-72.06035766974475
859.0878611,-17.302062347798966
863.4071176,0.4096909354555436
867.7198655,36.35544137479098
872.026116,128.5849263525306
876.3258802,166.14788532734724
880.6191693,116.33580539795284
884.9059946,-3.02655941956764
889.186367,23.055921856100966
893.4602979,48.82416107567879
897.7277982,101.91043374272768
901.9888793,129.36010962617743
906.2435521,41.23800138476753
910.4918277,7.510204117622592
914.7337174,-60.05790219552084
918.9692321,89.8162090481751
923.1983831,123.76517348129593
927.4211813,10.011262507219982
931.6376378,151.3805627690753
935.8477637,108.60950235287379
940.0515701,120.63654874671053
944.249068,89.23180663194401
948.4402684,8.74766104344559
952.6251825,166.56744895321052
956.8038212,130.97026689298642
960.9761955,180.22483618019584
965.1423166,192.35611439829572
969.3021953,90.21110971048608
973.4558427,182.6567356761621
977.6032699,130.4356759158856
981.7444877,32.04351159652782
985.8795072,103.23782060231204
990.0083394,113.71006571344158
994.1309953,68.77102657594294
998.2474857,149.14268021116962
1002.357822,135.06626555583992
1006.462014,187.59773776326165
1010.560075,197.63558588878402
1014.652013,13.157607756087252
1018.737841,-24.121453848512456
1022.81757,-96.63595218280861
1026.891209,38.01789208803821
1030.958771,117.39315132067807
1035.020266,5.069960781121203
1039.075705,31.656706494269987
1043.1251,-14.836354261480906
1047.16846,126.50864522767044
1051.205797,124.42102887143126
1055.237121,29.754693007637314
1059.262444,94.73418686101806
1063.281777,165.63081521192873
1067.295131,660.1343093367578
1071.302515,1175.2447522507214
1075.303942,1663.3991723238473
1079.299422,1940.5189683309713
1083.288966,1498.3905867652147
1087.272585,848.787313987245
1091.250289,273.93200422471926
1095.222091,129.12683414940483
1099.187999,98.05264572463898
1103.148026,-30.752330235044607
1107.102183,30.261017625866398
1111.050479,-11.764584659573881
1114.992927,-21.475524428081016
1118.929536,-20.670550023098965
1122.860318,7.753523259418827
1126.785283,65.76981442152078
1130.704443,125.04315693114587
1134.617808,345.57783055909437
1138.52539,409.28709567266094
1142.427198,334.8055625848934
1146.323244,229.6750244248231
1150.213538,79.83278352259643
1154.098093,34.83094429504011
1157.976917,59.21266300800555
1161.850023,26.24188229378359
1165.717421,-17.06617103627032
1169.579121,106.90048497504448
1173.435135,168.72421830071073
1177.285474,212.94933802676312
1181.130148,384.73987876725045
1184.969169,329.968051142352
1188.802547,225.35347746346986
1192.630292,117.97269587739878
1196.452416,23.054128625159265
1200.26893,27.408737255954783
1204.079844,-27.0218683028668
1207.88517,57.63890915300903
1211.684917,27.801141195031107
1215.479098,-48.864994941065916
1219.267722,-26.94120771078463
1223.050801,-6.238904697901134
1226.828346,70.04528785151746
1230.600366,61.29428487384114
1234.366874,235.10011670609381
1238.12788,229.18529218576614
1241.883395,128.9126701359224
1245.633429,229.01813718694677
1249.377994,165.15742659927167
1253.1171,97.67104340324774
1256.850759,7.195987892140714
1260.578981,107.42988299440421
1264.301776,123.77938551958795
1268.019157,31.801897964996368
1271.731133,93.99792975220983
1275.437715,33.32121294179264
1279.138915,4.996576573414977
1282.834743,-33.41931857378976
1286.52521,-5.316043733912316
1290.210328,-48.46254180955053
1293.890106,-8.26523657362273
1297.564555,79.86325495623373
1301.233688,10.023534258326386
1304.897514,87.9051154540115
1308.556044,91.81327735535272
1312.209289,75.14762444866551
1315.857261,17.806693559099706
1319.499969,-22.690259984096265
1323.137425,60.6120000930111
1326.769641,41.36265159470315
1330.396626,-0.34563955022339243
1334.018391,34.42536860084789
1337.634948,18.488146793945514
1341.246307,-1.319360649305274
1344.85248,-17.515389873559894
1348.453477,-60.634376949919854
1352.049309,17.294735296713597
1355.639987,-19.001531046955705
1359.225522,-55.2290872168874
1362.805925,39.12746810894822
1366.381207,89.18281222070183
1369.951379,34.18141616928328
1373.516452,20.171996497735822
1377.076436,112.19139422436935
1380.631343,71.11008610926957
1384.181184,124.28691047771095
1387.725969,241.2574538934248
1391.26571,260.87622858837847
1394.800417,213.04253950971
1398.330102,141.20422921304794
1401.854776,156.67015441690165
1405.374448,33.490966204877
1408.889132,-40.44411001260339
1412.398837,2.118181961256738
1415.903574,-31.022633867292896
1419.403355,145.2793739687835
1422.89819,240.64884611013147
1426.388091,250.54312317455435
1429.873069,347.60064446267944
1433.353134,275.86891991641465
1436.828298,296.89817280827555
1440.298571,214.23011461354298
1443.763965,133.2851710966057
1447.224491,128.56727495458057
1450.68016,38.7107168843204
1454.130983,55.36249647584076
1457.576971,-18.018051222167976
1461.018135,10.924478841514542
1464.454486,-9.497159606060407
1467.886036,-37.63233145674414
1471.312794,87.78754387418026
1474.734774,62.47098615899728
1478.151985,26.018664955209335
1481.564439,63.39282353549771
1484.972146,39.42394967529818
1488.375119,-15.628338193582636
1491.773368,102.71119942951215
1495.166904,78.28484315469755
1498.555739,-23.436980570715537
1501.939883,22.06433927800382
1505.319349,-22.656426942533496
1508.694146,-7.070011808101606
1512.064286,38.358266275634875
1515.429781,22.265278513169676
1518.790642,-2.2522135362223246
1522.146879,-26.581601300994627
1525.498505,-22.363568931974115
1528.845529,-31.111431326423407
1532.187965,-28.366284738508106
1535.525822,-13.964298227405852
1538.859112,11.11494227409477
1542.187846,40.00871879085917
1545.512036,32.75492222578082
1548.831693,57.87273141388769
1552.146829,40.11731129784209
1555.457453,-29.599149424760686
1558.763579,74.92086852681118
1562.065216,269.14382206043354
1565.362377,357.8554656578759
1568.655073,445.582113984878
1571.943315,522.1200537820747
1575.227114,548.9687146432434
1578.506482,678.6218220791751
1581.781431,826.9428356963117
1585.051971,885.2622125672816
1588.318114,1043.5090086818668
1591.579872,1010.1431488741008
1594.837255,751.2821290604782
1598.090275,607.6516904429348
1601.338945,369.25084161504236
1604.583274,266.2687031677177
1607.823275,30.67298039800842
1611.058959,-73.11342167103473
1614.290338,180.4464909146635
1617.517422,-4.717315967150633
1620.740224,-31.53058851900161
1623.958755,160.6792411989982
1627.173027,107.60145868166757
1630.38305,18.68245223433181
1633.588838,33.7165726753467
1636.7904,68.76905696002838
1639.987749,69.14477112267623
1643.180896,32.6760770035457
1646.369853,-38.1397134334521
1649.554632,-4.555630561579694
1652.735244,23.881859391640496
1655.9117,37.16415455800292
1659.084013,7.708047235023951
1662.252193,-21.734249328470085
1665.416254,-10.03226325781413
1668.576205,0.7683889393804328
1671.732059,8.330514836961791
1674.883828,-23.34839924802707
1678.031523,-18.43349497185804
1681.175157,10.063177273424104
1684.314739,-19.03007314771989
1687.450284,-2.620494718931368
1690.581801,36.64817245902199
1693.709304,-16.12487606012138
1696.832803,-8.284731625716738
1699.952311,32.964760775305365
1703.067839,60.66060346430737
1706.179399,109.61316243312604
1709.287003,82.14710558642028
1712.390663,16.976031531649234
1715.49039,67.79310446600925
1718.586197,23.832958751707388
1721.678095,-22.230758160364516
1724.766096,71.52573575264684
1727.850213,-40.528664672225865
1730.930456,-80.14104503951322
1734.006838,18.62866151676807
1737.079372,13.804731004485312
1740.148067,29.88780459180492
1743.212938,58.00203793898717
1746.273996,63.20659992631366
1749.331252,112.21603468830897
1752.384718,80.38904908374175
1755.434408,22.9298254170928
1758.480332,91.0989759260372
1761.522503,18.91254558963517
1764.560933,-17.315285360436445
1767.595634,43.16433880537954
1770.626618,-24.27088162490565
1773.653896,-33.674865548508684
1776.677482,18.00649008647557
1779.697388,-14.777674096833342
1782.713625,-4.625966551867917
1785.726205,33.659988763644925
1788.735141,-1.6153518756203642
1791.740445,33.10618237620513
1794.742129,-52.57612227766782
1797.740206,-24.070409617215702
1800.734687,109.94209575620951
1803.725585,69.14219579877846
1806.712912,95.65480464303494
1809.69668,26.239681827566105
1812.676902,-6.311534467904641
1815.65359,3.1613731435662107
1818.626756,13.722112088393361
1821.596413,21.57302505620763
1824.562573,-32.07129034621213
1827.525247,14.254932582549493
1830.48445,-17.356748722165708
1833.440192,6.313053572598944
1836.392487,27.825461395475617
1839.341347,-34.73005893436293
1842.286784,-13.382011967464194
1845.22881,-20.929007030784955
1848.167439,24.51471454846608
1851.102682,50.99933748161624
1854.034553,14.252565956333736
1856.963063,6.659498017922251
1859.888226,-11.377487194213602
1862.810053,61.26221836896667
1865.728557,31.00919137216771
1868.643751,-21.46824256016453
1871.555648,12.343970312242073
1874.46426,-44.91127234842034
1877.369599,3.388334436366314
1880.271679,37.15415594505127
1883.170512,41.226395639768164
1886.06611,76.10218965858647
1888.958487,-28.60089256492162
1891.847655,-59.91261196276611
1894.733626,-11.010513338449044
1897.616414,-10.2701808779209
1900.496032,39.225751922636775
1903.372491,3.99318564304334
1906.245805,-2.4873016805711927
1909.115987,59.739655918299064
1911.983049,4.853058368517771
1914.847004,-5.705916363228074
1917.707866,21.57261364666165
1920.565646,39.77906487213724
1923.420359,65.73381859523644
1926.272016,52.355247089203424
1929.120631,-31.716991215403706
1931.966216,-60.973043214281354
1934.808786,-20.153486684439848
1937.648351,3.163109703086617
1940.484927,22.852970505837803
1943.318525,35.60126639837645
1946.149158,41.29057889237191
1948.97684,-23.292440894667386
1951.801584,-5.189125167338682
1954.623403,33.21728980445236
1957.44231,11.555042172932376
1960.258318,-20.52186804926485
1963.071439,-57.41244143326837
1965.881688,-4.687897251236995
1968.689078,9.99020365939447
1971.493621,18.784890962982534
