Raman shift cm-1,4ATP_100fM_rep3_acc5_processed_intensity
-93.47115107,-14.060706820244647
-87.69374369,15.620136576525212
-81.9253076,-2.608229293153329
-76.16582701,38.78199602988839
-70.41528615,26.762293260901245
-64.67366933,-25.080858777640714
-58.94096086,15.68685651716956
-53.21714512,-6.5665214518741095
-47.50220652,-61.531469071586855
-41.79612954,8.636640253764597
-36.09889866,44.46799980957036
-30.41049843,12.17044337757494
-24.73091343,28.455886854962955
-19.0601283,13.654226479022782
-13.39812769,-15.242146434098515
-7.744896327,23.471832091682984
-2.100418946,36.23632429661791
3.535319659,21.145020649638468
9.162334658,14.01240019155182
14.78064118,-30.92202083132304
20.39025432,-11.632054720380665
25.99118913,83.50795450478472
31.58346061,102.35253635649951
37.16708375,87.24535193680242
42.74207347,87.60689781174074
48.30844468,58.133829831326125
53.86621222,48.913497722549664
59.41539093,36.572670437447755
64.95599558,-18.174977148742755
70.48804091,-29.793978784681485
76.01154164,-16.60343953114409
81.52651243,-20.612505086583383
87.03296792,17.537558959989042
92.5309227,48.34946803154776
98.02039134,23.27682797950058
103.5013884,8.07814309451885
108.9739282,-5.530145506912959
114.4380255,-18.55812904722643
119.8936944,7.552257987896155
125.3409495,19.560974979544426
130.779805,4.521338834460948
136.2102753,8.910843936303763
141.6323747,26.088615389245888
147.0461174,81.69944047410786
152.4515176,173.20725067032026
157.8485895,183.6399124311431
163.2373472,145.7687894252506
168.6178049,205.05667711650312
173.9899766,303.3320386801263
179.3538764,365.96827317935936
184.7095182,431.39866147508974
190.0569161,488.99878747708283
195.396084,543.5505543478914
200.7270358,596.2637083362786
206.0497854,605.2824823314307
211.3643466,626.3160250623757
216.6707333,724.3228514736866
221.9689593,826.2507201412365
227.2590382,862.1010952866451
232.5409839,900.9758755359584
237.8148101,991.0007429079434
243.0805303,1066.7761837461542
248.3381582,1134.0811225404886
253.5877075,1208.360628539211
258.8291917,1245.9545781638997
264.0626244,1320.4844132752994
269.288019,1432.9944630329328
274.5053891,1451.965925574571
279.7147481,1448.5360261232709
284.9161094,1545.2261624967766
290.1094865,1584.4245907641503
295.2948927,1352.6870602187678
300.4723414,893.868263253107
305.6418459,401.6299434712448
310.8034194,62.05465943395082
315.9570752,-36.06935291755073
321.1028267,7.763577097456654
326.2406869,50.260999504383825
331.370669,18.67424133541076
336.4927863,-36.42767082339333
341.6070517,19.23911414958573
346.7134786,102.06342344259448
351.8120798,78.69695095833063
356.9028684,64.96426336996426
361.9858576,91.13324969447793
367.0610602,99.2812335220618
372.1284892,190.36808563829203
377.1881577,407.97994985780895
382.2400784,790.406518890051
387.2842644,1370.0430018619463
392.3207284,1811.7387466077041
397.3494833,1746.2155308901208
402.370542,1274.9527808564947
407.3839172,752.2432331940325
412.3896217,413.85928837552956
417.3876683,253.46163858595162
422.3780697,132.16687788053264
427.3608386,3.896597192922137
432.3359876,-40.48701511321781
437.3035295,8.888882521294896
442.2634769,23.6951410960004
447.2158423,4.692881392454122
452.1606383,18.215121101409935
457.0978776,-2.795747082835458
462.0275727,-5.918673250427744
466.9497361,102.71557586866001
471.8643802,159.38613842674167
476.7715176,99.75832880526458
481.6711608,85.77676582622665
486.5633221,79.8399178088287
491.448014,15.623954746874155
496.3252488,48.65986726267043
501.195039,110.38092302229592
506.0573969,26.376533898285338
510.9123349,-45.061594905840835
515.7598651,4.354539593273074
520.6,109.13679658495127
525.4327518,209.07791429334648
530.2581327,178.9404748315115
535.076155,91.17140604840374
539.8868309,106.97783355816424
544.6901726,112.38215193884486
549.4861922,95.73031847890203
554.2749019,136.67779508756132
559.0563139,74.17233454985177
563.8304402,-23.749317375568644
568.597293,59.7856334508439
573.3568844,129.97130444889495
578.1092263,58.62154332367615
582.8543308,14.890748851627105
587.5922101,1.2646947745886248
592.322876,-14.712931923128156
597.0463405,19.905307949148977
601.7626157,45.10824564003434
606.4717135,13.498677009776126
611.1736458,-20.590753377464075
615.8684246,15.094489249336341
620.5560617,94.2780526791089
625.2365691,66.43399626272938
629.9099585,-21.72997456823204
634.5762419,15.947021036325696
639.2354312,87.81775815586528
643.887538,82.98566187159054
648.5325743,83.538444073283
653.1705518,84.48949968729195
657.8014823,42.37684137967727
662.4253775,-10.095002623936223
667.0422493,8.740807829869217
671.6521092,88.6144193697057
676.2549691,58.43919441691864
680.8508407,-9.742069160570644
685.4397355,40.36526118309983
690.0216654,47.78632518652658
694.5966419,-5.445007740695771
699.1646767,9.904952470195905
703.7257814,22.841091345725125
708.2799676,18.056396776677797
712.827247,27.001302596346896
717.367631,-7.519280978358555
721.9011314,-51.82245760976218
726.4277595,-12.111839580271162
730.9475271,45.69418994787813
735.4604456,-2.334684657877677
739.9665264,-42.918607469096855
744.4657813,21.483101598822206
748.9582215,41.94950009817762
753.4438587,8.63024003470602
757.9227042,10.998604405897215
762.3947696,18.045167581766666
766.8600662,51.78746091737703
771.3186056,59.75044369477961
775.770399,-10.663283942336587
780.215458,1.2932669192928152
784.6537939,46.82155298202657
789.0854181,-20.23504677107762
793.510342,27.677379890609945
797.9285769,229.74855410760713
802.3401342,262.12912245708844
806.7450253,178.28694974853173
811.1432614,175.51983701785258
815.5348538,152.35831230488753
819.9198139,114.06407528407611
824.2981531,115.05987385207521
828.6698824,92.71612990054807
833.0350133,84.46265625426247
837.393557,75.11906311856141
841.7455248,21.271025391909564
846.0909278,20.289257053731813
850.4297774,55.08107548839931
854.7620848,-2.352619081180322
859.0878611,-65.14803782058434
863.4071176,12.416873223769663
867.7198655,104.32662438806614
872.026116,107.9168056162209
876.3258802,135.86573734756624
880.6191693,170.2761480634092
884.9059946,135.08932104212835
889.186367,93.21802637468002
893.4602979,83.60259710572828
897.7277982,110.91235978716938
901.9888793,146.9952895545022
906.2435521,118.16156182968761
910.4918277,48.919207617444776
914.7337174,7.553634316199993
918.9692321,7.4388902085728965
923.1983831,48.78204788062402
927.4211813,104.53972870228695
931.6376378,133.22440648074317
935.8477637,89.18412555475636
940.0515701,-19.87944802245535
944.249068,-59.53578185772377
948.4402684,10.932268012709201
952.6251825,50.19759312674563
956.8038212,20.560853917953864
960.9761955,14.068685095944147
965.1423166,19.760698976747847
969.3021953,4.796441368484665
973.4558427,23.81170941829697
977.6032699,25.512545904186567
981.7444877,-16.63943689203549
985.8795072,18.37732866569762
990.0083394,43.488440222166446
994.1309953,-12.184648094525414
998.2474857,34.53560318642735
1002.357822,91.79478884995764
1006.462014,9.591912152054718
1010.560075,-31.13714247040613
1014.652013,-14.808280437148227
1018.737841,-4.799586931708344
1022.81757,70.26926420313711
1026.891209,90.34998288938289
1030.958771,46.56411321328359
1035.020266,105.43841723900583
1039.075705,139.185862822951
1043.1251,42.350231634657234
1047.16846,-17.457104417771042
1051.205797,-3.465009233561717
1055.237121,2.1916209555730135
1059.262444,23.71400195298634
1063.281777,90.85317860117388
1067.295131,245.3740400393608
1071.302515,554.196746957774
1075.303942,922.5825962036826
1079.299422,1074.4835132854616
1083.288966,860.5531395740531
1087.272585,492.845689145649
1091.250289,194.6834084317365
1095.222091,4.0578991845040004
1099.187999,3.88602949837035
1103.148026,87.1667611010937
1107.102183,27.88472932373579
1111.050479,-50.48411098302995
1114.992927,-9.087179717204538
1118.929536,17.26454577695795
1122.860318,-10.086094990274214
1126.785283,21.35736460916271
1130.704443,57.70041906115603
1134.617808,42.88059729095429
1138.52539,123.99293121552326
1142.427198,195.67432439296041
1146.323244,64.61215897837394
1150.213538,-4.031127446143057
1154.098093,128.25028681955516
1157.976917,209.05631514998777
1161.850023,164.79560368869886
1165.717421,109.48775122879744
1169.579121,138.75657869786008
1173.435135,213.10396909436867
1177.285474,235.3310158558954
1181.130148,283.1013662237601
1184.969169,323.90138358262607
1188.802547,235.81436047806363
1192.630292,160.87927251105552
1196.452416,159.67368614518432
1200.26893,91.93158484845472
1204.079844,-4.339173695350651
1207.88517,-6.682311075911766
1211.684917,47.40907800691166
1215.479098,70.07499082340408
1219.267722,40.47844423478847
1223.050801,-3.794381286646173
1226.828346,25.950228016781534
1230.600366,118.3113026183542
1234.366874,142.0600513913926
1238.12788,122.82923387952891
1241.883395,158.97269274322872
1245.633429,187.52515770645792
1249.377994,186.95173053744787
1253.1171,185.77139431404817
1256.850759,120.32415807175917
1260.578981,72.0691205180373
1264.301776,113.45755343029083
1268.019157,88.73264567843289
1271.731133,2.751871439633696
1275.437715,-21.242262694232195
1279.138915,1.155874365925186
1282.834743,45.70332968871348
1286.52521,54.843464165965685
1290.210328,0.15835442988995752
1293.890106,-20.213337482409536
1297.564555,9.390281481242782
1301.233688,35.60729961271961
1304.897514,93.35091347742522
1308.556044,141.1937094869211
1312.209289,66.35065813854752
1315.857261,-19.48177594563034
1319.499969,24.923030642525823
1323.137425,74.10824160259968
1326.769641,41.53524308329859
1330.396626,10.41960151711713
1334.018391,4.944189110375582
1337.634948,26.954107630231796
1341.246307,56.33015884596107
1344.85248,50.57758161734953
1348.453477,98.5156878390019
1352.049309,163.20050097840024
1355.639987,58.14650876881562
1359.225522,-43.899081644604685
1362.805925,71.83945879465988
1366.381207,154.75285213382426
1369.951379,57.90826033788009
1373.516452,-8.839113189005436
1377.076436,2.6811495547967557
1380.631343,4.463304823321244
1384.181184,21.90779805156159
1387.725969,50.54740279377215
1391.26571,44.60303000595359
1394.800417,69.7339261751733
1398.330102,149.403521336298
1401.854776,131.99013503884012
1405.374448,22.72285311237204
1408.889132,-13.609841750978198
1412.398837,-10.999200509329047
1415.903574,-9.915085656663713
1419.403355,45.80559272146047
1422.89819,85.60757065049921
1426.388091,57.419384352251015
1429.873069,45.55743794457369
1433.353134,92.15930599528804
1436.828298,102.68459726796583
1440.298571,20.59252370590785
1443.763965,-36.05911398462223
1447.224491,-8.714428262285752
1450.68016,9.203718761334812
1454.130983,0.36174857281125306
1457.576971,7.280311304013206
1461.018135,12.877121820278639
1464.454486,7.734840075781854
1467.886036,3.838037036249381
1471.312794,-4.496023462735237
1474.734774,-12.89481864680726
1478.151985,5.996880920631121
1481.564439,28.567287668866875
1484.972146,-15.20407052525561
1488.375119,-49.988467346646885
1491.773368,21.41532245146357
1495.166904,57.1506458252486
1498.555739,12.362120570354481
1501.939883,22.127531976103267
1505.319349,13.148625404776466
1508.694146,-28.297502155540716
1512.064286,35.9609450881669
1515.429781,93.7649917550969
1518.790642,55.99226869033922
1522.146879,18.246724468656872
1525.498505,-10.763102437405964
1528.845529,-27.077936556578017
1532.187965,-10.606486026128088
1535.525822,21.50217273228861
1538.859112,36.3750919955164
1542.187846,-3.260208630253958
1545.512036,-14.074348121920083
1548.831693,48.31216983262633
1552.146829,60.344366773871535
1555.457453,26.391987857642214
1558.763579,52.93257023676264
1562.065216,121.11412612360733
1565.362377,222.0468082059259
1568.655073,340.1986691447732
1571.943315,363.6218045161414
1575.227114,351.295223537822
1578.506482,439.47901057193025
1581.781431,514.7977165526826
1585.051971,530.1437645445927
1588.318114,628.1437964385467
1591.579872,699.2024550588853
1594.837255,545.1721101725661
1598.090275,332.2674046333912
1601.338945,274.2159428421382
1604.583274,184.83558514631264
1607.823275,-14.863243344033773
1611.058959,4.1873582230867825
1614.290338,125.0765572227011
1617.517422,22.00227263095177
1620.740224,-17.41678621106477
1623.958755,88.73017650906246
1627.173027,47.0140009833877
1630.38305,-13.185046918500353
1633.588838,57.38123629545614
1636.7904,104.7616188514335
1639.987749,78.59138759362611
1643.180896,46.60764765072897
1646.369853,51.280758757557244
1649.554632,81.76687857932458
1652.735244,64.97077834412649
1655.9117,14.340499153689823
1659.084013,8.895952803775181
1662.252193,13.027506325028877
1665.416254,-4.904563890032282
1668.576205,-5.4067137673921675
1671.732059,-10.158420885016966
1674.883828,-17.042562255208225
1678.031523,11.710289433305391
1681.175157,6.89726255049651
1684.314739,-27.213760613545777
1687.450284,17.988876626251717
1690.581801,56.897120561698316
1693.709304,9.366635962847173
1696.832803,8.623604865410357
1699.952311,66.21111503600315
1703.067839,82.49697888350026
1706.179399,80.69554908295268
1709.287003,82.36311377523529
1712.390663,71.83181576117963
1715.49039,54.21378753509519
1718.586197,27.104197883800666
1721.678095,7.0163227632024885
1724.766096,-15.319713681376264
1727.850213,-37.51051954210694
1730.930456,-17.149196166740317
1734.006838,-6.481263778563289
1737.079372,-11.231970440997209
1740.148067,37.926525657122404
1743.212938,55.344761072855164
1746.273996,24.291854837748225
1749.331252,52.97729999087504
1752.384718,63.79105456851435
1755.434408,24.22717877590558
1758.480332,67.40043291845348
1761.522503,125.87116890087711
1764.560933,57.908626183818086
1767.595634,-23.237353402825846
1770.626618,0.36216965443325755
1773.653896,25.657368351443424
1776.677482,2.0671072281135405
1779.697388,27.948507948168675
1782.713625,85.758895400256
1785.726205,47.03006848382326
1788.735141,-39.359534386781505
1791.740445,-24.48616415313185
1794.742129,46.92473355000736
1797.740206,95.04888673121125
1800.734687,143.0810976616447
1803.725585,121.12832211097708
1806.712912,21.24525129913871
1809.69668,10.404244191504407
1812.676902,47.99968678822066
1815.65359,-0.16164959751959174
1818.626756,-5.130859854605692
1821.596413,54.04009983310153
1824.562573,46.767511531273094
1827.525247,57.90973429605981
1830.48445,78.0084353073324
1833.440192,7.044212184607132
1836.392487,-1.9998387769124264
1839.341347,58.733779731050575
1842.286784,21.41978933482632
1845.22881,-22.753712364022423
1848.167439,0.9173275265969743
1851.102682,-5.440754634772908
1854.034553,-24.954439338958903
1856.963063,6.903854279217839
1859.888226,73.90454843069247
1862.810053,102.73371277486422
1865.728557,65.09413876780651
1868.643751,38.64082664774351
1871.555648,25.05226348225677
1874.46426,9.654160126803873
1877.369599,51.37114319646325
1880.271679,73.48062969107673
1883.170512,10.38313020438439
1886.06611,-30.23686007594317
1888.958487,-3.7719000154988436
1891.847655,15.268309873000888
1894.733626,-17.164411052932785
1897.616414,-16.885926530991867
1900.496032,62.64848510675992
1903.372491,67.92354132059724
1906.245805,21.90522079448119
1909.115987,81.77846395434742
1911.983049,105.39067020408716
1914.847004,61.15722827176187
1917.707866,98.22346882932496
1920.565646,112.84904847113587
1923.420359,68.09995911704922
1926.272016,39.895063230601295
1929.120631,1.224393983862658
1931.966216,17.417564936165768
1934.808786,65.66607018475169
1937.648351,8.204371008896082
1940.484927,-43.83199873288255
1943.318525,44.49334626641633
1946.149158,106.44003000170704
1948.97684,26.24604044698895
1951.801584,-17.68333336927666
1954.623403,28.196578358000764
1957.44231,22.177904474214536
1960.258318,-21.800767346235364
1963.071439,-31.669428784791435
1965.881688,-12.210209836809579
1968.689078,25.534448716394024
1971.493621,60.954694068150246
