Raman shift cm-1,4ATP_100pM_rep2_acc5_processed_intensity
-93.47115107,0.014463803547508647
-87.69374369,24.31585366848725
-81.9253076,64.52696737466323
-76.16582701,118.04793691887642
-70.41528615,166.53983300009997
-64.67366933,200.1947806721559
-58.94096086,231.12705080769388
-53.21714512,275.79799967372827
-47.50220652,334.83522470395366
-41.79612954,397.043255634357
-36.09889866,452.90074461376736
-30.41049843,499.6781126312928
-24.73091343,542.3508750535943
-19.0601283,591.427548311252
-13.39812769,652.7777711602704
-7.744896327,718.4166794430522
-2.100418946,771.2592491956202
3.535319659,801.8255195324688
9.162334658,820.5437047673306
14.78064118,849.7077444465483
20.39025432,901.1289367992562
25.99118913,964.9613009599984
31.58346061,1021.6886143367287
37.16708375,1061.3693694397643
42.74207347,1089.2390018485016
48.30844468,1115.649638133633
53.86621222,1145.476370470923
59.41539093,1179.4978846903643
64.95599558,1219.6508394914204
70.48804091,1265.3993774727444
76.01154164,1311.748566178922
81.52651243,1356.480934301798
87.03296792,1399.0972644557803
92.5309227,1433.6527188066118
98.02039134,1459.461896463404
103.5013884,1493.4856563787494
108.9739282,1550.6885820193552
114.4380255,1617.9837262283186
119.8936944,1668.5951054643228
125.3409495,1696.7963691956093
130.779805,1720.3145306315876
136.2102753,1753.460543903691
141.6323747,1794.0005438485575
147.0461174,1834.3197665764208
152.4515176,1873.0612847232308
157.8485895,1913.8385937376006
163.2373472,1958.3590927656621
168.6178049,2003.9652920486105
173.9899766,2047.1701403064903
179.3538764,2086.889418490682
184.7095182,2122.421324701815
190.0569161,2150.4139606894087
195.396084,2167.1855798858114
200.7270358,2175.2677898122547
206.0497854,2187.1823553423856
211.3643466,2218.336518016937
216.6707333,2270.3721359564074
221.9689593,2323.8651194185645
227.2590382,2354.4137782089306
232.5409839,2356.567494421989
237.8148101,2349.4934867949064
243.0805303,2359.7546386508625
248.3381582,2398.3224091480843
253.5877075,2451.5033395228998
258.8291917,2493.549313243934
264.0626244,2509.9200328962706
269.288019,2509.022285119968
274.5053891,2512.580884114564
279.7147481,2531.020283481275
284.9161094,2533.2071090958607
290.1094865,2435.9846345233823
295.2948927,2147.4602027373303
300.4723414,1649.7480190048484
305.6418459,1049.525538819907
310.8034194,530.9996433514975
315.9570752,227.8318138220656
321.1028267,130.05961818272255
326.2406869,122.15066535326389
331.370669,101.16385580526656
336.4927863,47.77641215111051
341.6070517,1.9821555802210113
346.7134786,-1.3895807960498416
351.8120798,33.29677623668157
356.9028684,74.08883279538446
361.9858576,89.58607713758545
367.0610602,74.2010580239748
372.1284892,65.05987975631395
377.1881577,127.43113665197748
382.2400784,295.10485644733365
387.2842644,514.6807183556232
392.3207284,666.3781227774878
397.3494833,658.7777609592017
402.370542,505.8800436115446
407.3839172,308.2771502487135
412.3896217,163.0860950407719
417.3876683,96.92426968423487
422.3780697,78.24083568534806
427.3608386,74.40496455930052
432.3359876,81.83469690942576
437.3035295,105.05372885125246
442.2634769,127.18469607950709
447.2158423,121.37908095973258
452.1606383,88.46528053478492
457.0978776,60.8196237448535
462.0275727,63.447881042577265
466.9497361,88.41582021680239
471.8643802,110.86503294315835
476.7715176,113.6172427649318
481.6711608,93.24615988393009
486.5633221,56.81415626579239
491.448014,18.99704520569298
496.3252488,-3.6167658624007046
501.195039,-2.586983338890102
506.0573969,15.406900341527692
510.9123349,35.31986156928561
515.7598651,49.26221980408361
520.6,60.6298388906769
525.4327518,73.40532797077503
530.2581327,84.66880055195601
535.076155,89.26013843817557
539.8868309,87.57688026256812
544.6901726,83.97913743959863
549.4861922,76.36557051451612
554.2749019,56.35600566896661
559.0563139,26.363009181218047
563.8304402,3.749122311689689
568.597293,-1.9964021319444498
573.3568844,-0.1939989969888245
578.1092263,1.6808901128987799
582.8543308,7.270231577211099
587.5922101,14.132586219072408
592.322876,12.348094173195555
597.0463405,4.106570904299954
601.7626157,5.056717076448798
606.4717135,23.57103312610172
611.1736458,46.82225280315528
615.8684246,50.51445859679268
620.5560617,25.746815897343787
625.2365691,-5.362293962258265
629.9099585,-9.420318920962448
634.5762419,22.941310102451595
639.2354312,69.99605692949228
643.887538,105.92143389375971
648.5325743,123.25858848323446
653.1705518,126.50277205714298
657.8014823,118.35220248431435
662.4253775,100.7348477637016
667.0422493,80.0931292879101
671.6521092,65.0357879684795
676.2549691,60.18716924350089
680.8508407,60.61640509627577
685.4397355,53.32562823669427
690.0216654,30.59864644952827
694.5966419,2.2381370726680814
699.1646767,-11.092179642377861
703.7257814,0.332111432188686
708.2799676,22.454154785960135
712.827247,30.897629477640315
717.367631,18.822014530183424
721.9011314,4.592410882018356
726.4277595,7.27002683683877
730.9475271,22.8402727074853
735.4604456,32.197475621659386
739.9665264,24.821798013203505
744.4657813,7.333117684087272
748.9582215,-6.581285353530343
753.4438587,-9.915794127756346
757.9227042,-5.57909617014312
762.3947696,0.36731683283576266
766.8600662,4.2479392655788235
771.3186056,4.913159159964921
775.770399,2.713783202503265
780.215458,0.39662242571501116
784.6537939,5.45255457588342
789.0854181,27.663747103843686
793.510342,68.95257731720072
797.9285769,116.46873335196746
802.3401342,147.67768923880223
806.7450253,145.04423276714454
811.1432614,112.67642989721612
815.5348538,78.28029110206151
819.9198139,69.64174100315562
824.2981531,88.46769907316667
828.6698824,111.87008999379344
833.0350133,116.17614354459204
837.393557,96.0202786072148
841.7455248,62.23315217656541
846.0909278,26.62832877537622
850.4297774,-1.9947652915367442
854.7620848,-10.070429269052163
859.0878611,14.750999378959591
863.4071176,64.4863889949971
867.7198655,108.539709051812
872.026116,119.51424055860495
876.3258802,99.433641611268
880.6191693,73.586804215761
884.9059946,62.002113532345525
889.186367,67.67299144596191
893.4602979,84.72115411922972
897.7277982,100.2018958201491
901.9888793,94.99139404032903
906.2435521,62.764592041871765
910.4918277,24.353128232858175
914.7337174,7.457459824311906
918.9692321,15.426037099318677
923.1983831,27.869572417556643
927.4211813,28.442504359162992
931.6376378,20.095988036753567
935.8477637,12.517720155230453
940.0515701,6.095654664578503
944.249068,-2.5307938945221364
948.4402684,-5.061730379377363
952.6251825,13.904986038311264
956.8038212,53.8390085072682
960.9761955,90.84688095865219
965.1423166,98.23051470399557
969.3021953,70.05408266878527
973.4558427,26.561827054674367
977.6032699,-0.1808910517458262
981.7444877,6.695507787962988
985.8795072,32.397791355572735
990.0083394,48.47188873602543
994.1309953,46.53757181192649
998.2474857,42.64008539374982
1002.357822,48.957424969903194
1006.462014,54.88508663314303
1010.560075,42.66752911690412
1014.652013,13.917275460400715
1018.737841,-9.06022187833556
1022.81757,-6.42299108120028
1026.891209,20.514997979132687
1030.958771,51.79642491128959
1035.020266,68.58311952601491
1039.075705,71.03314344885622
1043.1251,72.54869884139971
1047.16846,76.39344675774595
1051.205797,68.43092607012612
1055.237121,39.52896257507659
1059.262444,7.46937362984314
1063.281777,7.117265764453602
1067.295131,58.6839425007138
1071.302515,148.43906326293023
1075.303942,236.9926957434996
1079.299422,280.8463109066042
1083.288966,253.54240255236869
1087.272585,165.30433782677255
1091.250289,65.65252950168207
1095.222091,6.829377932706327
1099.187999,-4.077496234237943
1103.148026,-1.7228193611967262
1107.102183,-9.238867493520166
1111.050479,-12.228024801809216
1114.992927,5.93821276433361
1118.929536,29.446544265738567
1122.860318,31.50616268722527
1126.785283,13.916061704172877
1130.704443,1.407232867808787
1134.617808,3.8985211008660468
1138.52539,6.731949848502753
1142.427198,0.3489903215578174
1146.323244,-0.9695652316735863
1150.213538,18.84302956017048
1154.098093,52.0450890138093
1157.976917,77.51602214883309
1161.850023,86.76170307425248
1165.717421,88.62946832281912
1169.579121,93.68386939326348
1173.435135,102.45391055040056
1177.285474,110.71948289364524
1181.130148,117.93919391152674
1184.969169,121.23193520920057
1188.802547,109.19999046446908
1192.630292,74.69477244313188
1196.452416,29.766524373651144
1200.26893,-0.7694949237986428
1204.079844,-0.8404056279007079
1207.88517,22.104844657021157
1211.684917,43.40170615109915
1215.479098,45.33044716496243
1219.267722,35.660146211250265
1223.050801,38.9344505510589
1226.828346,68.31764381728973
1230.600366,108.6967572989611
1234.366874,132.30804462005352
1238.12788,131.00531241114436
1241.883395,123.37246700004262
1245.633429,126.68308202488649
1249.377994,135.85705944693086
1253.1171,135.95068116558105
1256.850759,119.84320890922646
1260.578981,87.76997316307512
1264.301776,44.85612187082466
1268.019157,5.477450312587493
1271.731133,-11.553444133609396
1275.437715,0.12299196708188731
1279.138915,25.40272956631135
1282.834743,38.761232778674064
1286.52521,27.217447347961194
1290.210328,4.263276817132262
1293.890106,-1.8469405396503475
1297.564555,22.402146265386914
1301.233688,60.81040225601843
1304.897514,84.60982342831758
1308.556044,81.79793905356667
1312.209289,67.18362390213
1315.857261,63.531086498657835
1319.499969,74.86659121801694
1323.137425,83.86291458844909
1326.769641,74.99996635903396
1330.396626,50.637854770219384
1334.018391,23.305565042033283
1337.634948,3.4921515159523224
1341.246307,-2.4461184608561464
1344.85248,6.189294199653525
1348.453477,19.941847019272
1352.049309,26.184675599045015
1355.639987,26.985207598018896
1359.225522,38.31246208413205
1362.805925,63.78891143562063
1366.381207,82.77796854345387
1369.951379,76.02347082684189
1373.516452,52.342084629698576
1377.076436,37.535316670645244
1380.631343,43.30825081898199
1384.181184,58.582312708701615
1387.725969,69.41127784908602
1391.26571,76.75535439732064
1394.800417,88.50535573287277
1398.330102,98.59138433971285
1401.854776,87.0523773863606
1405.374448,46.83740727863155
1408.889132,0.7836404782987785
1412.398837,-17.10233125051417
1415.903574,4.528643135086497
1419.403355,42.665842945069244
1422.89819,62.68559010126121
1426.388091,52.09488560168578
1429.873069,26.7476506865382
1433.353134,6.477904320207523
1436.828298,-3.5590464191947433
1440.298571,-6.42424029091837
1443.763965,-2.7119622817787246
1447.224491,6.121367560533873
1450.68016,12.336367451210048
1454.130983,8.455266289827673
1457.576971,-1.2927572367073932
1461.018135,-3.733450993384978
1464.454486,6.199769070432344
1467.886036,19.00275140222606
1471.312794,23.400064918482595
1474.734774,16.862512130466683
1478.151985,4.304627304064914
1481.564439,-5.439533142457517
1484.972146,-4.582000435387873
1488.375119,7.1579855095713185
1491.773368,21.751629462528204
1495.166904,29.626903946508705
1498.555739,29.239596355932264
1501.939883,30.21272526109395
1505.319349,42.94364963975146
1508.694146,65.29268540463465
1512.064286,83.77673817702302
1515.429781,85.26147937021179
1518.790642,64.98930231232556
1522.146879,30.369467891940182
1525.498505,0.9122854894937049
1528.845529,-3.955259585727916
1532.187965,16.601773309455904
1535.525822,42.82750159034916
1538.859112,55.06434696510491
1542.187846,52.63921856571059
1545.512036,47.58858123867532
1548.831693,47.10862914190485
1552.146829,52.00686137780701
1555.457453,65.44971149811478
1558.763579,91.59088754081182
1562.065216,127.46747447699354
1565.362377,161.9730860010398
1568.655073,184.85303578442137
1571.943315,197.95794493802373
1575.227114,214.74028592789605
1578.506482,244.79668365523088
1581.781431,281.1785708108822
1585.051971,307.0583985648552
1588.318114,313.21696276628523
1591.579872,302.8595638909335
1594.837255,279.3355768191444
1598.090275,236.67385307487262
1601.338945,167.56913807502076
1604.583274,82.51538518073814
1607.823275,14.072420580601863
1611.058959,-12.878806311429493
1614.290338,-9.22716584864694
1617.517422,-1.100732980318437
1620.740224,3.2966643214653786
1623.958755,6.862056313427779
1627.173027,7.61494343218601
1630.38305,6.6335418049097825
1633.588838,11.785020595909913
1636.7904,25.274309156220987
1639.987749,39.34638611011868
1643.180896,46.0406504716035
1646.369853,44.93321523187945
1649.554632,39.773893770260905
1652.735244,32.9458089993812
1655.9117,27.18604627418867
1659.084013,26.27600473346228
1662.252193,29.169307284577478
1665.416254,28.83395925586069
1668.576205,19.342831251249528
1671.732059,3.488600106775003
1674.883828,-5.879965023847305
1678.031523,1.3415025290370686
1681.175157,16.88535407473335
1684.314739,22.391636094148293
1687.450284,12.901647990687232
1690.581801,1.8375209878723826
1693.709304,7.315838342268071
1696.832803,37.76443156535575
1699.952311,81.46675363249192
1703.067839,111.00782363600399
1706.179399,110.01367845851681
1709.287003,91.79059456014573
1712.390663,80.16239906942917
1715.49039,78.5814422048721
1718.586197,69.268145856422
1721.678095,39.94564070777367
1724.766096,3.132127802042966
1727.850213,-15.744508093707381
1730.930456,-5.36329466876095
1734.006838,25.366742875452488
1737.079372,62.63498826416484
1740.148067,96.09690196141408
1743.212938,116.93148497375155
1746.273996,123.65920267070861
1749.331252,128.35584830166925
1752.384718,144.98963244505325
1755.434408,172.3994255255035
1758.480332,193.12831976938864
1761.522503,186.58110151474844
1764.560933,146.3938754789796
1767.595634,88.54271356372999
1770.626618,38.01430905350823
1773.653896,8.304177193429684
1776.677482,-1.7791929712546803
1779.697388,3.1244158860194613
1782.713625,20.564371435260156
1785.726205,43.299847309768374
1788.735141,56.49912212815945
1791.740445,52.1872648736909
1794.742129,40.98254865484554
1797.740206,39.09779916191118
1800.734687,49.98209978114783
1803.725585,64.92482941887432
1806.712912,72.11735775948013
1809.69668,63.15758575240535
1812.676902,40.27277323310777
1815.65359,15.534454985873936
1818.626756,-1.1567310283986583
1821.596413,-7.733122037453105
1824.562573,-5.706861384516168
1827.525247,1.2680215919130546
1830.48445,7.165318862989051
1833.440192,7.528680395285678
1836.392487,2.685768319770538
1839.341347,-1.4487047702522224
1842.286784,4.144293447596823
1845.22881,20.87210100759182
1848.167439,36.85088304320949
1851.102682,42.21124518961021
1854.034553,43.17486939675504
1856.963063,50.39470433032173
1859.888226,61.116554611481035
1862.810053,61.093146353815996
1865.728557,40.518561218089076
1868.643751,7.239136123487981
1871.555648,-14.744658776042925
1874.46426,-6.4463039608017
1877.369599,23.637169053453327
1880.271679,44.63105043800374
1883.170512,35.37750575261344
1886.06611,7.019037856592959
1888.958487,-11.331269020310923
1891.847655,-6.494718156665151
1894.733626,7.612824446365066
1897.616414,12.135833681445417
1900.496032,5.93276982411108
1903.372491,0.18076856338166358
1906.245805,-1.1574720609078488
1909.115987,-2.6555337036105415
1911.983049,-3.0308467095468288
1914.847004,5.779962039860132
1917.707866,23.107898763232694
1920.565646,34.6998719956777
1923.420359,29.268277490399235
1926.272016,13.071200482868006
1929.120631,1.481159542857089
1931.966216,0.12897664968349254
1934.808786,2.6516079224647404
1937.648351,5.43128044462944
1940.484927,13.562069520169995
1943.318525,28.863714946932053
1946.149158,42.46326367615576
1948.97684,45.5603235079847
1951.801584,39.06544891925294
1954.623403,27.74938776963637
1957.44231,13.724364852573483
1960.258318,-0.288265763125775
1963.071439,-7.375423743515018
1965.881688,1.6993316426042533
1968.689078,33.221132812303736
1971.493621,82.38251954952293
