Raman shift cm-1,4ATP_1fM_rep2_acc1_processed_intensity
-93.47115107,154.75738205737295
-87.69374369,114.16529093459872
-81.9253076,-58.97508059494812
-76.16582701,12.172686560865351
-70.41528615,108.25267666910523
-64.67366933,17.81887244099329
-58.94096086,41.83048319816831
-53.21714512,1.9241807285314962
-47.50220652,-43.58370510719379
-41.79612954,34.72269998817251
-36.09889866,26.789453241778403
-30.41049843,61.074223153266246
-24.73091343,18.901938934092072
-19.0601283,-72.36605772569476
-13.39812769,25.752511710018098
-7.744896327,30.38850071216666
-2.100418946,-16.191118557379355
3.535319659,-9.130583317606693
9.162334658,-49.98157068703995
14.78064118,20.02300825928978
20.39025432,28.932881047862566
25.99118913,25.684148501849677
31.58346061,66.53002564854353
37.16708375,-14.500018274479999
42.74207347,-32.27489042941056
48.30844468,-15.502051807293128
53.86621222,26.386979538685637
59.41539093,6.227037921982628
64.95599558,6.8008316758462115
70.48804091,64.23787252903026
76.01154164,-9.914088757218451
81.52651243,3.8714785186255085
87.03296792,53.17585269715778
92.5309227,59.798724413645914
98.02039134,-28.89124271383571
103.5013884,-103.77734146717307
108.9739282,28.63012650362998
114.4380255,58.795358466781636
119.8936944,1.5856476684086829
125.3409495,24.24356814388102
130.779805,27.416116189994227
136.2102753,28.246283424061403
141.6323747,40.633871136703874
147.0461174,73.72465511850987
152.4515176,146.2423734923566
157.8485895,145.90788588645296
163.2373472,175.75484200005985
168.6178049,282.6796722328063
173.9899766,341.496023950863
179.3538764,410.97510994477216
184.7095182,507.4229940982343
190.0569161,603.0344253703847
195.396084,628.8664668566341
200.7270358,694.0833631334992
206.0497854,797.6444392937922
211.3643466,820.4444795075378
216.6707333,918.5771502849684
221.9689593,1008.7502306669201
227.2590382,1076.8607355451263
232.5409839,1184.5092594447917
237.8148101,1227.8609007492526
243.0805303,1298.138110590939
248.3381582,1370.5061892879835
253.5877075,1471.1527919966043
258.8291917,1666.0855339635118
264.0626244,1729.0910254548799
269.288019,1736.0735602242944
274.5053891,1847.5227441388872
279.7147481,1923.9841842911408
284.9161094,1986.6639698227355
290.1094865,2031.3762888728565
295.2948927,1806.018706853247
300.4723414,1320.3412095481585
305.6418459,732.469314995574
310.8034194,143.53973700642052
315.9570752,-38.340261445976324
321.1028267,34.53050816250962
326.2406869,11.380203291922882
331.370669,117.75873569464744
336.4927863,95.3587377108274
341.6070517,-37.313527174299686
346.7134786,46.92794657631873
351.8120798,27.372811290728816
356.9028684,-52.34338515690895
361.9858576,58.744430907159206
367.0610602,127.27269735710243
372.1284892,151.07076692582666
377.1881577,244.89590791594424
382.2400784,413.66550449261626
387.2842644,748.3859563953101
392.3207284,906.9026972316063
397.3494833,844.2701779055785
402.370542,730.4314249540622
407.3839172,419.8341116216926
412.3896217,231.29230215587836
417.3876683,230.71506649382837
422.3780697,190.80558941679203
427.3608386,90.26816023700773
432.3359876,30.53068966882789
437.3035295,90.64271511061276
442.2634769,113.1600570772492
447.2158423,165.82029490823064
452.1606383,106.26375661050815
457.0978776,28.87078295010816
462.0275727,160.6038473161907
466.9497361,122.86501230399541
471.8643802,144.56130821577494
476.7715176,248.05202456776146
481.6711608,198.8226397565804
486.5633221,170.7990080670329
491.448014,107.19833115172472
496.3252488,140.79494555311058
501.195039,98.00353726721269
506.0573969,-23.897795481883108
510.9123349,-31.428837213431308
515.7598651,-8.635119248549799
520.6,90.83153432541647
525.4327518,137.415572641557
530.2581327,167.0686954422955
535.076155,126.83794735300762
539.8868309,123.79370726083755
544.6901726,170.4013588544687
549.4861922,126.2823794006463
554.2749019,141.62005829407062
559.0563139,32.217220444572725
563.8304402,-13.1320508752036
568.597293,63.36994087168233
573.3568844,34.3723700232934
578.1092263,8.549599065896256
582.8543308,5.504953595278181
587.5922101,6.798764724207597
592.322876,-27.035901809171367
597.0463405,35.605525189675895
601.7626157,11.639915082150225
606.4717135,-26.15022920297035
611.1736458,130.91147534014038
615.8684246,87.31576654377602
620.5560617,77.34471358282124
625.2365691,29.632062811710945
629.9099585,-131.1803181837313
634.5762419,18.827295910561297
639.2354312,107.73784831742512
643.887538,18.573113902182804
648.5325743,11.191099711455017
653.1705518,50.74890022114194
657.8014823,-8.528133840446063
662.4253775,-16.9953707309156
667.0422493,36.64858338007329
671.6521092,23.456953593876925
676.2549691,52.800312811330905
680.8508407,-5.898202035828696
685.4397355,5.658052230025184
690.0216654,30.75039262101357
694.5966419,-27.43705626102843
699.1646767,-21.98695197248357
703.7257814,-38.6257118209884
708.2799676,29.228994456186214
712.827247,28.160373897059777
717.367631,0.9208838387116347
721.9011314,12.967218823197356
726.4277595,-47.89181262751186
730.9475271,11.747839755651228
735.4604456,11.171013346779375
739.9665264,-10.27381982252053
744.4657813,35.28531538239001
748.9582215,-35.4287278399238
753.4438587,-15.272645749070342
757.9227042,25.052958271319177
762.3947696,7.7473504446586325
766.8600662,54.987085941982045
771.3186056,12.031703470979533
775.770399,-0.10975089723835296
780.215458,31.497531990937127
784.6537939,-60.69521846408665
789.0854181,-49.86522911535231
793.510342,-3.2689146017793975
797.9285769,18.393113550469156
802.3401342,136.5482373088418
806.7450253,115.15003140434
811.1432614,31.0794537887855
815.5348538,17.722968866609833
819.9198139,15.353167611658025
824.2981531,90.25557426711862
828.6698824,102.64941147358667
833.0350133,9.205131891004504
837.393557,-13.426367130052592
841.7455248,37.86759095321945
846.0909278,81.77867488219393
850.4297774,74.22623642711437
854.7620848,-21.71891472082857
859.0878611,-70.34951324370827
863.4071176,14.720418294024341
867.7198655,63.75052173674278
872.026116,95.37394563336
876.3258802,141.64962594851886
880.6191693,70.146540095805
884.9059946,5.2840699403020785
889.186367,6.418148947157661
893.4602979,-35.00408431876508
897.7277982,-1.9793413782805622
901.9888793,42.71485558196798
906.2435521,7.34610009661237
910.4918277,0.6744433370876108
914.7337174,-17.904870000488312
918.9692321,14.885977019977812
923.1983831,34.53953418527505
927.4211813,-23.288306265446618
931.6376378,-10.738712460551174
935.8477637,24.21309413507004
940.0515701,20.466698428659534
944.249068,-14.011749034005446
948.4402684,-37.9392743202407
952.6251825,-44.18451573217951
956.8038212,30.917884776992178
960.9761955,105.47312872997965
965.1423166,12.516765274304262
969.3021953,22.55656428369483
973.4558427,75.01817848985247
977.6032699,-37.32840597085571
981.7444877,-21.574288554195522
985.8795072,34.184949604109605
990.0083394,-5.819585078195463
994.1309953,20.770811817059556
998.2474857,5.638800812042259
1002.357822,-24.180387312229715
1006.462014,37.61506192671382
1010.560075,41.62000872813018
1014.652013,-23.491619624606237
1018.737841,-21.757918160061283
1022.81757,-19.688552158941025
1026.891209,-36.85076495336354
1030.958771,67.1580111630254
1035.020266,104.36735100091829
1039.075705,37.45066607456596
1043.1251,117.59533745100592
1047.16846,168.70212240941132
1051.205797,112.82417579157726
1055.237121,57.614570107001455
1059.262444,-23.357766989437536
1063.281777,29.132113020303844
1067.295131,196.40047818289452
1071.302515,306.6457361669798
1075.303942,403.2362025695485
1079.299422,433.28698880334827
1083.288966,320.8121961368775
1087.272585,182.0010151448367
1091.250289,92.53839061558159
1095.222091,3.781799906800323
1099.187999,-20.200656647747998
1103.148026,128.3238800024206
1107.102183,141.9861398831784
1111.050479,-3.2924652933452947
1114.992927,50.77553829716703
1118.929536,41.34054508341776
1122.860318,-24.752234473766297
1126.785283,37.572525804396136
1130.704443,-27.237522479703806
1134.617808,-48.76885019664467
1138.52539,86.14141781887612
1142.427198,141.81914679486997
1146.323244,5.949705623003705
1150.213538,-31.6134773023253
1154.098093,107.25304031503248
1157.976917,28.65933324364061
1161.850023,-9.11012909787295
1165.717421,35.773348560257496
1169.579121,-20.68075300771057
1173.435135,26.00260024141889
1177.285474,37.298212296657404
1181.130148,55.86659335523371
1184.969169,71.29877810808173
1188.802547,30.81671473894756
1192.630292,33.79867750878757
1196.452416,-28.088566658571686
1200.26893,-52.63494344171269
1204.079844,-38.44944522012399
1207.88517,-21.8322722753755
1211.684917,1.0408560221940206
1215.479098,21.09022177198659
1219.267722,106.28045280133253
1223.050801,33.99872305615732
1226.828346,-50.04772617496272
1230.600366,67.21094000540559
1234.366874,156.65695676895038
1238.12788,111.42135772269677
1241.883395,13.778724771455426
1245.633429,75.64899565919904
1249.377994,95.4268692214413
1253.1171,23.290723827674352
1256.850759,65.73361501796984
1260.578981,37.522792399107935
1264.301776,57.72858096694616
1268.019157,74.28879386216957
1271.731133,-33.45870841077481
1275.437715,-26.37620292525771
1279.138915,19.65880657579426
1282.834743,29.795104307477487
1286.52521,1.315822146985063
1290.210328,-59.57652244968038
1293.890106,-7.685977114623292
1297.564555,17.673556099150655
1301.233688,13.229138564189348
1304.897514,141.40919102097527
1308.556044,145.45719919153456
1312.209289,79.08943672232817
1315.857261,83.91964228762853
1319.499969,89.53384697653343
1323.137425,152.4901022550828
1326.769641,75.05035993491973
1330.396626,-12.675548003762863
1334.018391,-2.151095189954977
1337.634948,-35.398150860053526
1341.246307,36.66998953339039
1344.85248,74.57879231479987
1348.453477,19.124281396258702
1352.049309,3.502507424271366
1355.639987,25.159910797753575
1359.225522,2.071297099291547
1362.805925,-43.90788422115488
1366.381207,0.2640012927191826
1369.951379,7.008105115111851
1373.516452,-14.622556140141386
1377.076436,3.0670664247042527
1380.631343,15.124536860423802
1384.181184,-17.657844220783
1387.725969,30.665780460419683
1391.26571,64.92843633579972
1394.800417,4.421985275177825
1398.330102,83.74199287170842
1401.854776,33.06411929886456
1405.374448,-13.707179423590691
1408.889132,19.961089244384162
1412.398837,-86.2920313467385
1415.903574,-8.437169715408402
1419.403355,68.17713038929178
1422.89819,32.849814782651066
1426.388091,62.95361602417034
1429.873069,80.72423801619685
1433.353134,85.68828706371673
1436.828298,53.12185708532455
1440.298571,21.550208203633122
1443.763965,8.840942889121028
1447.224491,-2.6335821644388346
1450.68016,-21.51708421763195
1454.130983,-53.53199757505922
1457.576971,18.680927042872785
1461.018135,30.46192064824765
1464.454486,-51.77522944201099
1467.886036,25.91610519883582
1471.312794,63.49953964946356
1474.734774,51.577534187385986
1478.151985,72.08115835085557
1481.564439,31.4047991101652
1484.972146,31.727978906473695
1488.375119,0.10887225589598515
1491.773368,9.241532729424334
1495.166904,71.90765051954318
1498.555739,23.998209078098856
1501.939883,-25.931234004971948
1505.319349,-49.94508878190069
1508.694146,-10.770885946639812
1512.064286,112.56272456040298
1515.429781,111.31719964494998
1518.790642,18.858798617936767
1522.146879,7.085402622167875
1525.498505,-15.423660482670362
1528.845529,-68.14688920611852
1532.187965,22.34381110828241
1535.525822,100.37511239533333
1538.859112,17.66407594948676
1542.187846,24.229360336863387
1545.512036,34.09986403853327
1548.831693,13.988044587875464
1552.146829,6.558381422834222
1555.457453,-32.31607598889461
1558.763579,84.14691069143842
1562.065216,123.62978615017005
1565.362377,152.38507870158298
1568.655073,230.95098257412494
1571.943315,212.61548160414662
1575.227114,251.29070617409724
1578.506482,206.23563139621328
1581.781431,251.3975047753944
1585.051971,346.799555198169
1588.318114,354.8671334618124
1591.579872,343.9728100927855
1594.837255,310.1739427513259
1598.090275,301.3311322653147
1601.338945,179.59368444340225
1604.583274,137.96763101132166
1607.823275,-2.922585467642733
1611.058959,0.7583344140076989
1614.290338,163.8745355983957
1617.517422,-66.81827170550463
1620.740224,19.523379792082522
1623.958755,187.7043548547179
1627.173027,-2.106478351764146
1630.38305,15.868715014939315
1633.588838,101.8595904203433
1636.7904,95.50263242314976
1639.987749,110.86973302587462
1643.180896,34.80549819709171
1646.369853,5.531633699691412
1649.554632,108.2680641935207
1652.735244,80.51929889497252
1655.9117,7.962001313479469
1659.084013,-28.22918620207309
1662.252193,-11.807401114073535
1665.416254,39.35991918802945
1668.576205,-8.312749281747479
1671.732059,-5.787647350473794
1674.883828,17.08069372062063
1678.031523,-7.921478070676082
1681.175157,-23.177536272034665
1684.314739,-20.097947841890253
1687.450284,6.265091959092851
1690.581801,-3.383556060239436
1693.709304,11.66081091275807
1696.832803,0.9128977687300017
1699.952311,18.275463622550195
1703.067839,118.9991095724693
1706.179399,113.70899678754797
1709.287003,53.4825940828633
1712.390663,22.502327071744574
1715.49039,41.59997684568265
1718.586197,10.177966085563163
1721.678095,-50.12326987547904
1724.766096,-37.918647886662036
1727.850213,-29.207832880354296
1730.930456,-9.753424790207362
1734.006838,-1.0266665389731955
1737.079372,6.861507035053066
1740.148067,20.80153904025162
1743.212938,73.09709176734734
1746.273996,62.37571168137589
1749.331252,3.353504784232321
1752.384718,88.04638473173405
1755.434408,87.5720062544105
1758.480332,27.64649936416834
1761.522503,36.364953824073304
1764.560933,-27.443226866521986
1767.595634,-35.9709794382254
1770.626618,-1.5354238821527026
1773.653896,-3.188057239179207
1776.677482,27.11287349749011
1779.697388,-17.13513463475988
1782.713625,-8.568197824102484
1785.726205,39.52436652728123
1788.735141,-46.061779409765336
1791.740445,8.645459872834163
1794.742129,67.76289432011103
1797.740206,22.90318322335945
1800.734687,66.99821249777301
1803.725585,64.5380530157378
1806.712912,72.7955855579964
1809.69668,37.614965587060134
1812.676902,-12.865584868761097
1815.65359,16.633300775434467
1818.626756,-41.44181259850635
1821.596413,-15.034216694675703
1824.562573,82.17043767129243
1827.525247,63.15771038230314
1830.48445,16.052162653572374
1833.440192,-28.066378348506017
1836.392487,-45.647537155987735
1839.341347,1.3391882285397045
1842.286784,36.31260575136999
1845.22881,35.61441377884746
1848.167439,86.90943476476284
1851.102682,69.78884189122577
1854.034553,-17.786108249592026
1856.963063,24.36907174465341
1859.888226,65.61864985372603
1862.810053,73.76475041704525
1865.728557,81.55080117375599
1868.643751,25.81221740904847
1871.555648,-1.3695429312619254
1874.46426,-9.273478585096449
1877.369599,64.7243029342415
1880.271679,79.1529529272954
1883.170512,-50.087405913719216
1886.06611,-5.1696423421987845
1888.958487,64.569868311771
1891.847655,50.552887969295796
1894.733626,7.186882921781681
1897.616414,-30.006498188651456
1900.496032,42.60363180783706
1903.372491,-13.7300076044477
1906.245805,9.87590555772794
1909.115987,108.59031460930635
1911.983049,-4.0108530182833375
1914.847004,4.9123664767738475
1917.707866,59.32322205945006
1920.565646,1.888849738144744
1923.420359,-2.6275259289836423
1926.272016,26.2903595595412
1929.120631,6.40889341628319
1931.966216,-5.212082235689264
1934.808786,2.727296478700774
1937.648351,-43.408887629353956
1940.484927,-6.236427021303008
1943.318525,73.97072409023735
1946.149158,68.89792725171345
1948.97684,28.352891900493837
1951.801584,7.581763687962697
1954.623403,4.064195686053273
1957.44231,18.47057046519344
1960.258318,80.87363160102805
1963.071439,5.019565378899674
1965.881688,-38.65572991578242
1968.689078,99.88314446589577
1971.493621,3.2673685254947316
