Raman shift cm-1,4ATP_1mM_rep3_acc5_processed_intensity
-93.47115107,2.538379861097205
-87.69374369,85.90735886016179
-81.9253076,-7.823732590170671
-76.16582701,53.82833885800518
-70.41528615,126.44930243938677
-64.67366933,26.31867862140944
-58.94096086,-21.979831525738696
-53.21714512,-18.747199887966485
-47.50220652,-2.941517720434504
-41.79612954,31.33555430700033
-36.09889866,12.686657507298737
-30.41049843,10.074298114833818
-24.73091343,-5.190356199779227
-19.0601283,-61.74508648029418
-13.39812769,-1.1698385960165467
-7.744896327,74.07995135276143
-2.100418946,17.27335487028628
3.535319659,-16.816028969800733
9.162334658,34.96973749949265
14.78064118,69.27647973234431
20.39025432,49.047707564784425
25.99118913,24.979986059936977
31.58346061,10.388338133985098
37.16708375,-5.150724131567145
42.74207347,11.801264411579993
48.30844468,-5.202725696755484
53.86621222,-43.84491010693536
59.41539093,9.098498618132504
64.95599558,41.45748233249265
70.48804091,6.050494279226546
76.01154164,1.8481102476783438
81.52651243,-2.323735537398207
87.03296792,15.712466243901059
92.5309227,45.349801629014515
98.02039134,-19.64971331799695
103.5013884,-56.070792102370014
108.9739282,13.776793773382607
114.4380255,27.734500403271035
119.8936944,-10.930043780422944
125.3409495,-0.8765665247008432
130.779805,26.183013428278205
136.2102753,19.470472009746896
141.6323747,-9.477233793709168
147.0461174,-10.845559325022709
152.4515176,0.8326893484512672
157.8485895,-10.204253975500514
163.2373472,-13.800969365743954
168.6178049,-2.5244712449638884
173.9899766,11.088301964363534
179.3538764,42.38159450118166
184.7095182,60.3805509266507
190.0569161,27.518069154215468
195.396084,3.1595432961765546
200.7270358,0.7374227584475932
206.0497854,-17.35539304313244
211.3643466,-3.9824411578635237
216.6707333,34.57956027438917
221.9689593,56.99498728970346
227.2590382,72.50748904186912
232.5409839,50.99883025987297
237.8148101,0.9720649278865601
243.0805303,-15.587967260666694
248.3381582,-6.562802592875187
253.5877075,13.194029374125403
258.8291917,49.63025141773855
264.0626244,28.069501185273644
269.288019,-23.231677444345014
274.5053891,-1.233378948748026
279.7147481,-0.1637379764568614
284.9161094,-28.660115529054988
290.1094865,-29.753929962738788
295.2948927,6.628658116712877
300.4723414,301.30653808405333
305.6418459,819.9138482186025
310.8034194,1274.9892809399869
315.9570752,1659.3790501528367
321.1028267,1950.7420950067478
326.2406869,2156.9912939496776
331.370669,2396.25689019696
336.4927863,2530.572636175275
341.6070517,2524.3798132578863
346.7134786,2564.426561589653
351.8120798,2617.5396587183054
356.9028684,2582.9938095929433
361.9858576,2603.8508663302
367.0610602,2934.5326880367384
372.1284892,3844.8114110343836
377.1881577,6367.813704167608
382.2400784,11521.025335578124
387.2842644,16940.683951782197
392.3207284,18139.297750309717
397.3494833,14538.901990227887
402.370542,9701.935266853232
407.3839172,6249.246307875066
412.3896217,4192.500736282016
417.3876683,2822.5688370469757
422.3780697,1847.138738968731
427.3608386,1215.4008466743958
432.3359876,833.8091187920922
437.3035295,573.7040306389545
442.2634769,395.6258779637799
447.2158423,228.83456602326623
452.1606383,34.77467773635726
457.0978776,30.497626064669817
462.0275727,199.95543855765186
466.9497361,197.60863081226842
471.8643802,183.13944678329062
476.7715176,461.3164246312897
481.6711608,718.9917584827984
486.5633221,750.5412691528497
491.448014,742.2001502346789
496.3252488,697.1112922963276
501.195039,618.4301308856427
506.0573969,645.5617324875496
510.9123349,633.2810869967897
515.7598651,436.28093230635216
520.6,332.0271412541431
525.4327518,408.2543527859123
530.2581327,450.9206790226041
535.076155,528.1117077767461
539.8868309,659.0524182996157
544.6901726,565.6735567668902
549.4861922,257.9321194465075
554.2749019,82.16680976472267
559.0563139,62.85083596133113
563.8304402,-32.29239336519802
568.597293,-81.15445976106326
573.3568844,22.13137715379498
578.1092263,31.150167120882514
582.8543308,-40.62029046263235
587.5922101,-10.790508407319814
592.322876,30.587429129290047
597.0463405,25.935203002158737
601.7626157,28.500696407332626
606.4717135,29.456239208329155
611.1736458,-12.05637508594548
615.8684246,-69.1310741289922
620.5560617,11.432654203073405
625.2365691,301.97837287524356
629.9099585,824.9974489757695
634.5762419,1438.011334850133
639.2354312,1610.2936770914494
643.887538,1245.1358745734547
648.5325743,782.447222599762
653.1705518,374.4634175437259
657.8014823,137.72762947184356
662.4253775,139.59146525508444
667.0422493,104.7003248775438
671.6521092,10.339259823074315
676.2549691,14.523580109359528
680.8508407,8.374957064870472
685.4397355,1.6467415345560141
690.0216654,180.2280129619815
694.5966419,535.8639557479743
699.1646767,859.7313788730083
703.7257814,918.8809199636921
708.2799676,831.7247769219614
712.827247,851.4273390398167
717.367631,745.7461261636595
721.9011314,398.3687599681162
726.4277595,160.35067252404588
730.9475271,83.47957706310038
735.4604456,14.793533248136924
739.9665264,-9.862738678475893
744.4657813,-7.221992937609642
748.9582215,12.584642128663347
753.4438587,62.27660510776448
757.9227042,17.584521690191707
762.3947696,-53.034569244143995
766.8600662,21.317929822165247
771.3186056,82.46815057835558
775.770399,49.17649422250496
780.215458,110.43495017065928
784.6537939,261.3212502358135
789.0854181,436.52802830212335
793.510342,803.359496368852
797.9285769,1320.694858631659
802.3401342,1659.297520035749
806.7450253,1773.6765385846936
811.1432614,1744.8303635598913
815.5348538,1563.0731809776241
819.9198139,1344.6184424685857
824.2981531,1112.3324097860532
828.6698824,822.9038413602353
833.0350133,555.7771959734737
837.393557,356.1638458249816
841.7455248,219.1190525968775
846.0909278,130.62034785991426
850.4297774,90.52566323069082
854.7620848,52.200649635209615
859.0878611,-17.97642270748652
863.4071176,-17.686634453612537
867.7198655,28.725155778978014
872.026116,64.60104847247617
876.3258802,131.50325749456218
880.6191693,143.4860457237151
884.9059946,189.57876348836382
889.186367,310.60307435552795
893.4602979,258.4341827601265
897.7277982,243.99536915612228
901.9888793,443.37777994311506
906.2435521,505.1031465422347
910.4918277,537.8870623654427
914.7337174,843.3683102137486
918.9692321,1079.3150912430488
923.1983831,1037.794830848036
927.4211813,1097.7669858556753
931.6376378,1230.166099496356
935.8477637,1163.1127651260545
940.0515701,1221.349148404544
944.249068,1496.6171572282988
948.4402684,1637.0803193622942
952.6251825,1646.426647378792
956.8038212,1755.169399057729
960.9761955,1975.233948121081
965.1423166,2009.037837360925
969.3021953,1898.206040251239
973.4558427,1945.5223355658618
977.6032699,1943.7177105959254
981.7444877,1837.1976211548172
985.8795072,1811.7792499441866
990.0083394,1774.2715320606287
994.1309953,1925.5777510073872
998.2474857,2658.188716170166
1002.357822,3754.3240862713037
1006.462014,4046.867955702814
1010.560075,2775.7782812774144
1014.652013,1148.012212698285
1018.737841,369.2240355880491
1022.81757,85.03800603688728
1026.891209,-30.500207118521757
1030.958771,19.177701184656826
1035.020266,11.101327589594803
1039.075705,-3.64497022277169
1043.1251,155.0506390379062
1047.16846,371.22535035923283
1051.205797,665.6641833494505
1055.237121,1350.6180738407093
1059.262444,2617.7063786916733
1063.281777,4982.741356976765
1067.295131,9215.608178745433
1071.302515,15183.864635665012
1075.303942,21168.335183054078
1079.299422,23337.132763409532
1083.288966,18934.22888375762
1087.272585,11047.738315403112
1091.250289,4922.780564422174
1095.222091,1888.597508269693
1099.187999,675.8864587160049
1103.148026,232.1600676561593
1107.102183,20.967262322419174
1111.050479,-13.35329880148106
1114.992927,213.4684018618641
1118.929536,652.6259055057983
1122.860318,1469.3673131177072
1126.785283,2962.5154743317385
1130.704443,5418.123877395765
1134.617808,9050.500193662221
1138.52539,12573.110215763343
1142.427198,13408.55433436194
1146.323244,10936.843419499051
1150.213538,7327.991202475767
1154.098093,4640.724035492322
1157.976917,3034.8309739657807
1161.850023,2116.5744794580332
1165.717421,1839.6757025839743
1169.579121,1950.9767180641547
1173.435135,2313.9835328980726
1177.285474,2934.4899947021404
1181.130148,3434.127163567773
1184.969169,3480.921099530996
1188.802547,3095.1262268871556
1192.630292,2341.925595307328
1196.452416,1374.2189677198162
1200.26893,567.5037607757913
1204.079844,159.48721716160276
1207.88517,20.747198736235532
1211.684917,-16.94563962739312
1215.479098,20.756488704230378
1219.267722,96.9827007929564
1223.050801,137.0789820781656
1226.828346,116.35896428033857
1230.600366,134.41577825360082
1234.366874,279.04678622284564
1238.12788,411.8553030248072
1241.883395,394.0932351589497
1245.633429,328.6047760547308
1249.377994,269.74218643264544
1253.1171,140.60987755646488
1256.850759,85.57325762769597
1260.578981,154.77045975883948
1264.301776,87.77331503997334
1268.019157,-46.21586633226593
1271.731133,-33.77921066381896
1275.437715,13.890011558793958
1279.138915,19.773827133233226
1282.834743,43.29214196812063
1286.52521,116.46343722797383
1290.210328,210.3779511297239
1293.890106,340.3393479923809
1297.564555,614.5827398069753
1301.233688,895.8843727944677
1304.897514,920.7410831720729
1308.556044,773.2225856098328
1312.209289,645.0402218478355
1315.857261,535.844644808051
1319.499969,393.48445029353593
1323.137425,195.5769650258128
1326.769641,21.648266145890602
1330.396626,0.11791662913992695
1334.018391,111.77285027850007
1337.634948,234.43842416032408
1341.246307,305.27708868027094
1344.85248,389.065408902482
1348.453477,568.1924018494119
1352.049309,804.0172654595426
1355.639987,990.448609292903
1359.225522,1126.567986741801
1362.805925,1365.9147391694582
1366.381207,1694.3319817615443
1369.951379,1905.3123054512528
1373.516452,2115.1715677354823
1377.076436,2584.858541685776
1380.631343,3349.910670751812
1384.181184,4561.042875997824
1387.725969,5899.028052003619
1391.26571,6117.761910685147
1394.800417,4796.259400451608
1398.330102,2955.074322657156
1401.854776,1533.4460723599216
1405.374448,851.2803635519276
1408.889132,748.1952470233152
1412.398837,902.5214399103213
1415.903574,1380.76176754453
1419.403355,2341.220262372537
1422.89819,3756.3891434969155
1426.388091,5507.941213970726
1429.873069,7227.783182517438
1433.353134,8364.811951758225
1436.828298,8475.573051886025
1440.298571,7550.468483592634
1443.763965,6029.99831615065
1447.224491,4400.384211887902
1450.68016,2970.3491721902437
1454.130983,1866.365652464689
1457.576971,1174.5189424600637
1461.018135,852.6622940888119
1464.454486,765.6695157627476
1467.886036,979.027512361806
1471.312794,1268.4460023714284
1474.734774,1217.635102656908
1478.151985,926.2932874188434
1481.564439,720.1411674946105
1484.972146,901.1566411103911
1488.375119,1298.621189353079
1491.773368,1203.8945154192297
1495.166904,651.6970699911349
1498.555739,248.68028185413982
1501.939883,70.25871532973247
1505.319349,-10.795354970191738
1508.694146,6.40759378077928
1512.064286,50.85518155076113
1515.429781,13.740470629776496
1518.790642,-9.907482211629258
1522.146879,108.24521160754944
1525.498505,169.549144288329
1528.845529,193.9040887831968
1532.187965,407.6452458487918
1535.525822,591.5919540210319
1538.859112,677.9302706346202
1542.187846,866.8618380099841
1545.512036,1086.7754975754526
1548.831693,1343.93404200531
1552.146829,1650.946095307218
1555.457453,1958.8664490687675
1558.763579,2432.3121629906327
1562.065216,3042.611026098462
1565.362377,3721.927595904157
1568.655073,4537.3692404315025
1571.943315,5375.926049887989
1575.227114,6168.978380753864
1578.506482,6771.091662444189
1581.781431,7168.5115196856
1585.051971,7696.653426397195
1588.318114,8170.1586267918665
1591.579872,8051.801705212371
1594.837255,7109.209587609148
1598.090275,5478.731409635221
1601.338945,3814.8893893156737
1604.583274,2550.026800103347
1607.823275,1638.122819947168
1611.058959,1243.590395615593
1614.290338,1156.5147919228148
1617.517422,913.7315071678858
1620.740224,735.6642011147303
1623.958755,711.0250728586516
1627.173027,574.8969544744745
1630.38305,427.2767593314417
1633.588838,384.57981983456494
1636.7904,364.8974092497824
1639.987749,295.15315628214347
1643.180896,194.38144153374762
1646.369853,150.738775520841
1649.554632,159.5131139714161
1652.735244,136.02799922008722
1655.9117,61.538177805025256
1659.084013,25.232512654431105
1662.252193,22.22164764102787
1665.416254,-5.912200746315378
1668.576205,-1.0706907535519292
1671.732059,-9.245138592644807
1674.883828,-49.04094053390332
1678.031523,-25.626957587387757
1681.175157,-7.762499404703169
1684.314739,-11.124206017149334
1687.450284,22.460048453236794
1690.581801,23.394614148050994
1693.709304,17.353646778268327
1696.832803,60.606995851965195
1699.952311,87.52073887395026
1703.067839,100.1669226812872
1706.179399,124.35756801811858
1709.287003,125.23380048240695
1712.390663,110.47439444648664
1715.49039,78.89042670338762
1718.586197,21.064573271661867
1721.678095,-17.176778893523508
1724.766096,-10.196237641914085
1727.850213,4.247476605264122
1730.930456,-7.652678941110732
1734.006838,10.553970782232716
1737.079372,48.637738405602846
1740.148067,12.281125390195191
1743.212938,-16.05166574876748
1746.273996,48.04753997272245
1749.331252,108.8452844528219
1752.384718,99.24872532131923
1755.434408,99.9230059910606
1758.480332,161.75026727165817
1761.522503,143.71776824169774
1764.560933,58.45452465459006
1767.595634,62.63086181119593
1770.626618,32.71639194856789
1773.653896,-45.438063154361984
1776.677482,5.840371059355425
1779.697388,53.176954756100514
1782.713625,-5.744622416052811
1785.726205,-33.729140541360664
1788.735141,-7.255186626558486
1791.740445,30.291620364322377
1794.742129,26.623162573407974
1797.740206,8.545473189212153
1800.734687,69.56314396819957
1803.725585,86.92140920811379
1806.712912,17.622183157096327
1809.69668,22.762174487324035
1812.676902,43.80765222615783
1815.65359,-22.560814212596227
1818.626756,-54.46868967961129
1821.596413,-5.005229203089678
1824.562573,17.63197590726675
1827.525247,24.52067994322032
1830.48445,40.3983845061694
1833.440192,-3.6378256807547977
1836.392487,-39.66547929248201
1839.341347,-5.976708902964624
1842.286784,21.548217919908954
1845.22881,56.18810130335893
1848.167439,86.0025392367003
1851.102682,24.98683137052734
1854.034553,-6.358358839830908
1856.963063,54.34505388567902
1859.888226,28.776538387942068
1862.810053,-23.15644120471064
1865.728557,30.09916256298718
1868.643751,45.215039479908064
1871.555648,2.476027854416891
1874.46426,-13.625482268559479
1877.369599,-33.52506931107667
1880.271679,-21.020443987333678
1883.170512,19.01185485251009
1886.06611,12.47999482517436
1888.958487,-0.6379038896498166
1891.847655,8.75469340686467
1894.733626,-10.112279790637734
1897.616414,-42.38562720752315
1900.496032,-16.57534051711287
1903.372491,22.437981063727925
1906.245805,1.9857865576107159
1909.115987,-10.405480805170942
1911.983049,9.189975157898044
1914.847004,23.97378259032582
1917.707866,30.803094343918694
1920.565646,7.5905819238069085
1923.420359,10.2955472027812
1926.272016,30.064782097397444
1929.120631,-11.787919678213715
1931.966216,-22.891284352344375
1934.808786,-17.99763944880891
1937.648351,-56.9833906533803
1940.484927,-15.016799457154754
1943.318525,33.27658200001258
1946.149158,5.7134067907462285
1948.97684,30.94456617529073
1951.801584,17.81380686798473
1954.623403,-39.29075492261822
1957.44231,30.931187423998914
1960.258318,53.099449827525085
1963.071439,-33.99528081485647
1965.881688,-22.012559290034126
1968.689078,28.767647132335114
1971.493621,3.945443686316057
