Raman shift cm-1,4ATP_1uM_rep1_acc4_processed_intensity
-93.47115107,3.8540025705471432
-87.69374369,122.20458317179506
-81.9253076,18.861411623204482
-76.16582701,85.52325722108176
-70.41528615,63.03270600045632
-64.67366933,-15.912421977695981
-58.94096086,90.5934822501086
-53.21714512,-7.876875812248727
-47.50220652,9.546724228277633
-41.79612954,81.48378672200255
-36.09889866,-32.680960673329295
-30.41049843,100.55434271794871
-24.73091343,68.37071790440766
-19.0601283,-18.78513644175265
-13.39812769,112.86918490284647
-7.744896327,14.561179636560134
-2.100418946,-2.997589975380051
3.535319659,96.10694612042596
9.162334658,37.31862451247099
14.78064118,39.04247368467565
20.39025432,13.619756630735699
25.99118913,-58.26684357847436
31.58346061,14.596100585438395
37.16708375,91.6083336878656
42.74207347,77.21969870386043
48.30844468,24.145365011700843
53.86621222,-7.009799325114761
59.41539093,-28.087597648506865
64.95599558,-49.693156668422404
70.48804091,17.681388064145782
76.01154164,38.525607062636155
81.52651243,-6.310752521046886
87.03296792,51.70041280178343
92.5309227,76.7641958187312
98.02039134,6.313046795184177
103.5013884,-21.416228861311353
108.9739282,-8.632516645749499
114.4380255,40.9149837295867
119.8936944,50.61321278871475
125.3409495,-12.366127926655855
130.779805,-29.14382146722736
136.2102753,-31.492232678945477
141.6323747,-9.741143211286825
147.0461174,22.192575992648692
152.4515176,19.725591697831376
157.8485895,18.631804324712576
163.2373472,22.13378049521856
168.6178049,-1.671249046641158
173.9899766,-11.88941629612954
179.3538764,90.90026168706186
184.7095182,67.04917958774047
190.0569161,-29.69214537623452
195.396084,20.298390954604788
200.7270358,29.40898435721187
206.0497854,51.584965946517414
211.3643466,35.8151185025752
216.6707333,-48.729721908726354
221.9689593,-11.474115409617134
227.2590382,7.039325798500954
232.5409839,-17.184877487837493
237.8148101,38.591624573837365
243.0805303,14.098274527365518
248.3381582,-51.13411459112329
253.5877075,17.404639070917042
258.8291917,23.93783335535024
264.0626244,-17.92686943992213
269.288019,14.599690145337092
274.5053891,-7.6216892302986885
279.7147481,-29.55161670909766
284.9161094,208.42916944347476
290.1094865,1069.8785078297863
295.2948927,3835.1027307329196
300.4723414,10480.239834899407
305.6418459,19984.615391944215
310.8034194,28045.015238976415
315.9570752,31996.89981344164
321.1028267,32868.70118879215
326.2406869,33283.318276836224
331.370669,34249.457694268574
336.4927863,35215.46006063836
341.6070517,36086.15044890968
346.7134786,36904.91050339375
351.8120798,37533.61850041002
356.9028684,37663.85429680869
361.9858576,37207.67411920417
367.0610602,36964.43515562471
372.1284892,37142.859525490414
377.1881577,38085.78655082336
382.2400784,40945.25905744194
387.2842644,44459.32120907471
392.3207284,45937.831540015715
397.3494833,44562.24227353808
402.370542,41954.89917604846
407.3839172,39432.18966802772
412.3896217,36993.52023732192
417.3876683,35271.57776143
422.3780697,33712.43826050318
427.3608386,32210.865602752303
432.3359876,31349.369989194172
437.3035295,30414.820374258354
442.2634769,29594.591934393222
447.2158423,29079.636011265917
452.1606383,28738.37335113081
457.0978776,28430.21792335234
462.0275727,28341.58655261759
466.9497361,28590.44973099311
471.8643802,28950.481969040266
476.7715176,30265.39166664287
481.6711608,32100.551118842654
486.5633221,32810.05265228911
491.448014,31817.41776414328
496.3252488,29875.16274996784
501.195039,28033.57835194808
506.0573969,26702.824066173216
510.9123349,26061.35266593292
515.7598651,25542.505797343892
520.6,25026.363549873815
525.4327518,24656.07238023434
530.2581327,24142.149489594907
535.076155,24278.06787271234
539.8868309,24689.748808818684
544.6901726,23875.05156131888
549.4861922,22350.55934745822
554.2749019,21483.969977924124
559.0563139,21310.89836737382
563.8304402,20889.83995387136
568.597293,20487.576893381047
573.3568844,20366.79747815663
578.1092263,19866.225741391037
582.8543308,19742.256317410283
587.5922101,19659.625104438346
592.322876,19159.89211732481
597.0463405,19315.23310879705
601.7626157,19164.777883738527
606.4717135,18623.990934555055
611.1736458,18400.732141442102
615.8684246,17884.397186383227
620.5560617,17795.834354929335
625.2365691,17860.43666864378
629.9099585,17071.1386801664
634.5762419,16544.868027991328
639.2354312,16436.851341221245
643.887538,15941.892999385294
648.5325743,15676.220634929297
653.1705518,15444.622997618597
657.8014823,14884.724861598876
662.4253775,14579.580472505615
667.0422493,14229.89113912837
671.6521092,13847.997336404862
676.2549691,13539.728837618464
680.8508407,13138.006639002273
685.4397355,13075.983380044194
690.0216654,13032.858126726893
694.5966419,12874.496775647396
699.1646767,13171.736092836196
703.7257814,13535.523888405187
708.2799676,14033.377480040754
712.827247,14805.382136551387
717.367631,14432.271265693442
721.9011314,13010.873560598735
726.4277595,11798.192451382758
730.9475271,10803.040204473271
735.4604456,10165.550988428793
739.9665264,9821.870376404135
744.4657813,9377.851038372131
748.9582215,8801.509141660707
753.4438587,8191.946543772554
757.9227042,7958.815527261452
762.3947696,7665.765182092068
766.8600662,7025.001611481986
771.3186056,6830.401854104152
775.770399,6586.4980152490825
780.215458,5959.153948021866
784.6537939,5787.390847258884
789.0854181,5804.56855625746
793.510342,5611.406212782721
797.9285769,5367.079863089472
802.3401342,5048.239538369104
806.7450253,4793.219883429875
811.1432614,4447.707528070881
815.5348538,4049.0988244730697
819.9198139,3649.1066090053373
824.2981531,3069.6954811494534
828.6698824,2608.366210514665
833.0350133,2100.1724781480198
837.393557,1848.4081663070037
841.7455248,1614.0733649180038
846.0909278,1084.625377906379
850.4297774,1218.2339917006157
854.7620848,1199.5451178205085
859.0878611,889.4694557555267
863.4071176,1099.671497176062
867.7198655,1216.4011674068943
872.026116,1023.3169755343606
876.3258802,803.1618447130231
880.6191693,743.8178812291744
884.9059946,576.6714870292762
889.186367,417.95123326853354
893.4602979,232.5753751498387
897.7277982,19.04191119905863
901.9888793,415.4766435436386
906.2435521,733.2761809013964
910.4918277,898.8840429572392
914.7337174,1361.270445246064
918.9692321,1500.503515163955
923.1983831,1354.7054768420803
927.4211813,1221.4296788945785
931.6376378,1103.2239590426561
935.8477637,1044.8628343093587
940.0515701,1161.2024329561164
944.249068,1123.2140713500794
948.4402684,870.0850493297658
952.6251825,993.322131088803
956.8038212,1086.177045040089
960.9761955,1081.4873234351635
965.1423166,1228.8145796546696
969.3021953,1073.0798564340148
973.4558427,1123.7089066913086
977.6032699,1125.452825397534
981.7444877,822.5035183623522
985.8795072,980.4595022426311
990.0083394,847.3543112254138
994.1309953,794.0881205806463
998.2474857,1415.3933041953333
1002.357822,2196.57446333631
1006.462014,2880.2096312322965
1010.560075,2064.3806442851874
1014.652013,541.4648213224373
1018.737841,13.762206186013827
1022.81757,-78.32654156401077
1026.891209,13.86445787233697
1030.958771,74.0669975331366
1035.020266,39.90057428374712
1039.075705,229.71937249244456
1043.1251,551.5902286510914
1047.16846,1088.735521246258
1051.205797,2108.0999458419205
1055.237121,4312.3593773139
1059.262444,8786.157851513877
1063.281777,15869.84883862508
1067.295131,23846.189757534026
1071.302515,28118.409207728982
1075.303942,25811.419042877882
1079.299422,19737.177594136723
1083.288966,12900.951147799948
1087.272585,6726.940149142421
1091.250289,3415.661723123862
1095.222091,2119.786437701379
1099.187999,1304.472328142629
1103.148026,1529.9666699475279
1107.102183,1666.6720163816626
1111.050479,2106.6197828914705
1114.992927,3290.058245204931
1118.929536,5226.874869884288
1122.860318,8722.669399856079
1126.785283,13861.934356346259
1130.704443,22964.867245814872
1134.617808,30882.804841249334
1138.52539,33034.27910513086
1142.427198,31139.08860043983
1146.323244,22672.50866323914
1150.213538,13557.372088934897
1154.098093,8858.73880822588
1157.976917,5725.246411998789
1161.850023,4535.967558781791
1165.717421,3730.290672863028
1169.579121,3118.161884169601
1173.435135,3151.8996160846327
1177.285474,3138.9045835352335
1181.130148,4012.7490842709017
1184.969169,4832.378385744392
1188.802547,5333.733875609688
1192.630292,5203.092511997191
1196.452416,3729.1393189202236
1200.26893,2196.8347313755985
1204.079844,1116.4240791570473
1207.88517,468.63108329633735
1211.684917,126.91775702974519
1215.479098,31.153804643022397
1219.267722,106.26549524125022
1223.050801,-73.06908808957718
1226.828346,32.68671933699903
1230.600366,174.28770160628915
1234.366874,164.16001591208533
1238.12788,356.946812209922
1241.883395,279.7704161833023
1245.633429,211.96778346693668
1249.377994,402.84897177999846
1253.1171,427.5854359678731
1256.850759,126.13347025742303
1260.578981,86.80244977975056
1264.301776,244.929941863443
1268.019157,3.2294884337584193
1271.731133,-24.26876462341579
1275.437715,12.245898037442686
1279.138915,11.882669661227311
1282.834743,261.03465226465494
1286.52521,272.3210782401145
1290.210328,380.3203348364462
1293.890106,858.855243324445
1297.564555,1543.962782728001
1301.233688,2363.4023694465914
1304.897514,2821.648850794255
1308.556044,2623.954958777379
1312.209289,1937.105432426745
1315.857261,1064.7870437036163
1319.499969,712.7467287255223
1323.137425,659.8985676515404
1326.769641,585.1780793140059
1330.396626,802.6644406205526
1334.018391,862.5568907643034
1337.634948,1093.9689454654226
1341.246307,1413.8426380483174
1344.85248,1669.2474851980471
1348.453477,2077.520934802317
1352.049309,2349.1433133736723
1355.639987,2868.893877524309
1359.225522,3196.073190970004
1362.805925,3467.0033694163185
1366.381207,3990.52491680036
1369.951379,4654.7463371214035
1373.516452,5964.972659586712
1377.076436,7805.769198926538
1380.631343,10875.027998629956
1384.181184,14787.044557556967
1387.725969,17280.43895245838
1391.26571,16405.872999234845
1394.800417,11949.773023334646
1398.330102,7347.949115116842
1401.854776,4776.903165420781
1405.374448,3375.728865430214
1408.889132,3175.8615774354994
1412.398837,4226.814947833758
1415.903574,6844.378008897856
1419.403355,11440.262900742282
1422.89819,16742.29934908797
1426.388091,20706.984146549075
1429.873069,22030.482775822147
1433.353134,20336.6029811686
1436.828298,16406.870353995764
1440.298571,12158.221655208381
1443.763965,8662.781801331224
1447.224491,6120.486397638162
1450.68016,4335.085574538628
1454.130983,3009.036683140027
1457.576971,2303.360446023962
1461.018135,1994.634763110536
1464.454486,2028.7953467853279
1467.886036,2401.1431806128603
1471.312794,2419.2551163993826
1474.734774,1907.443398006926
1478.151985,1365.5822905651273
1481.564439,811.784910598119
1484.972146,301.935818062243
1488.375119,194.8349682105761
1491.773368,190.2100257565627
1495.166904,-8.009957944641428
1498.555739,-55.20830102144566
1501.939883,61.99210931258972
1505.319349,38.18989687288956
1508.694146,34.698196346325744
1512.064286,196.48066722669125
1515.429781,334.25575529851426
1518.790642,422.1490032173855
1522.146879,598.1480750211922
1525.498505,653.2971525041548
1528.845529,594.0840547255702
1532.187965,886.307665542658
1535.525822,1240.2330672803887
1538.859112,1416.8674597838458
1542.187846,1752.9981624464863
1545.512036,2134.4709048974396
1548.831693,2537.141685607651
1552.146829,3078.428297300455
1555.457453,3749.6923015801262
1558.763579,4737.769629324221
1562.065216,5922.913299265868
1565.362377,7165.468008814669
1568.655073,8378.161565243608
1571.943315,9085.549986751681
1575.227114,9065.969939346127
1578.506482,8429.499950837977
1581.781431,7584.588253766919
1585.051971,6759.517368060889
1588.318114,5904.139667641611
1591.579872,4833.6937221230555
1594.837255,3497.6167990736562
1598.090275,2517.995030422388
1601.338945,1892.8798331598418
1604.583274,1472.4699126035277
1607.823275,1128.144181144411
1611.058959,908.8479202443054
1614.290338,1084.3357483982747
1617.517422,886.8277645286853
1620.740224,698.3856185313354
1623.958755,820.9229389914823
1627.173027,516.6553131531898
1630.38305,371.57965999243135
1633.588838,467.8966025100782
1636.7904,406.84991054295904
1639.987749,459.18805978089586
1643.180896,392.6167965997978
1646.369853,276.21594443143476
1649.554632,341.8027303022408
1652.735244,161.4362667776624
1655.9117,-18.482722843213267
1659.084013,20.252381275962666
1662.252193,1.6396519231241102
1665.416254,92.12375379837167
1668.576205,96.2126860969102
1671.732059,-22.136311478655433
1674.883828,58.92024959612488
1678.031523,27.21620195093593
1681.175157,-51.120522331890584
1684.314739,52.990693792039615
1687.450284,36.59942046633876
1690.581801,-3.7367687430010577
1693.709304,-14.070205135525576
1696.832803,-53.13691231419293
1699.952311,35.93180125187534
1703.067839,126.83238434608492
1706.179399,138.29767365423663
1709.287003,82.22525560520819
1712.390663,25.669156926699443
1715.49039,39.55224802631805
1718.586197,18.154254386388374
1721.678095,-22.24468635897579
1724.766096,-31.503465874035083
1727.850213,18.12596834991319
1730.930456,80.66294311704264
1734.006838,58.637184438533154
1737.079372,-3.7243072260960517
1740.148067,17.038469384326444
1743.212938,173.4244644435475
1746.273996,145.44902593106994
1749.331252,-11.559904622283128
1752.384718,92.252389128819
1755.434408,145.51395576591017
1758.480332,93.70991847717579
1761.522503,125.30851055321783
1764.560933,34.411115097769375
1767.595634,-59.60957264337007
1770.626618,0.7430083672081977
1773.653896,74.14960604342102
1776.677482,-8.771582886722229
1779.697388,-55.3250192768338
1782.713625,92.35917354377557
1785.726205,70.78658278761677
1788.735141,23.34685353825497
1791.740445,78.97104925701565
1794.742129,16.143705422910813
1797.740206,33.02327607176247
1800.734687,91.18165766453188
1803.725585,93.3880405463028
1806.712912,79.58904395991485
1809.69668,63.12384641755848
1812.676902,36.09815700682047
1815.65359,-16.47419578273916
1818.626756,18.967525958589277
1821.596413,3.4809180585573216
1824.562573,28.011662106791704
1827.525247,163.14021458029956
1830.48445,56.30335091902742
1833.440192,-97.91972272221757
1836.392487,-59.43672908288263
1839.341347,24.168122098315138
1842.286784,51.274760103275014
1845.22881,30.96204926786143
1848.167439,78.86968391629853
1851.102682,38.82090841754413
1854.034553,-13.436663784445216
1856.963063,23.872531248467837
1859.888226,35.6165140740997
1862.810053,64.8390401759601
1865.728557,-33.57819794512662
1868.643751,-19.980421180064525
1871.555648,98.37614870498152
1874.46426,20.94837585423815
1877.369599,3.714486823074772
1880.271679,91.96490931911772
1883.170512,71.37375416599717
1886.06611,-24.387526475925334
1888.958487,16.85288577765391
1891.847655,73.33884583320126
1894.733626,-19.860300146378073
1897.616414,-37.42465618151401
1900.496032,28.10883926429015
1903.372491,4.739908165946946
1906.245805,89.8465466686133
1909.115987,114.15824772498289
1911.983049,-36.94794598520535
1914.847004,23.330763565366585
1917.707866,72.36693268260304
1920.565646,13.236749345181812
1923.420359,29.073658643590374
1926.272016,8.968701705449138
1929.120631,-14.984321254739406
1931.966216,17.821090008104964
1934.808786,0.9977160234378281
1937.648351,-31.421427198569823
1940.484927,-21.27890454723573
1943.318525,49.50078338930018
1946.149158,93.969696878339
1948.97684,-17.931270762466376
1951.801584,41.41353087809592
1954.623403,68.71939310280872
1957.44231,-27.54691075686989
1960.258318,51.48844157412715
1963.071439,26.741623266030118
1965.881688,9.38765921685525
1968.689078,40.85009005033164
1971.493621,-53.343250377351566
