Raman shift cm-1,4ATP_10nM_rep3_acc5_processed_intensity
-93.47115107,32.67302339816626
-87.69374369,26.629851366141647
-81.9253076,-71.17268372754884
-76.16582701,6.280792300878588
-70.41528615,102.81697428300892
-64.67366933,-10.275217074397887
-58.94096086,3.66596133244542
-53.21714512,-7.807535499573362
-47.50220652,-12.426658578187613
-41.79612954,33.83307913728055
-36.09889866,18.042747600961945
-30.41049843,101.32666605569642
-24.73091343,0.8484996121674158
-19.0601283,-78.84798619087701
-13.39812769,9.529697767707887
-7.744896327,58.638873532330535
-2.100418946,28.856643967951072
3.535319659,31.772934095658115
9.162334658,34.60933430053126
14.78064118,-29.924772941884157
20.39025432,-9.481244866394718
25.99118913,-3.240451103369878
31.58346061,-4.284650340635039
37.16708375,10.047380531899194
42.74207347,12.061091080047277
48.30844468,-12.533979181400923
53.86621222,27.838490370057343
59.41539093,1.020273907406363
64.95599558,-49.79840338626889
70.48804091,15.052823104246727
76.01154164,22.07840164421782
81.52651243,-45.17620295009817
87.03296792,-30.004822558781825
92.5309227,121.9146321427088
98.02039134,14.00028671847349
103.5013884,-30.061466431877534
108.9739282,77.56353927144391
114.4380255,24.666279706703108
119.8936944,3.5704723371502496
125.3409495,-2.586334549501771
130.779805,86.0854705270931
136.2102753,32.061459507260224
141.6323747,-10.482923998593606
147.0461174,93.8376342230772
152.4515176,39.09414744862329
157.8485895,75.91246640272516
163.2373472,125.17498312389944
168.6178049,168.99078476713157
173.9899766,280.20221122466523
179.3538764,258.191627718576
184.7095182,346.10358022511923
190.0569161,510.3349627792736
195.396084,518.6071244780569
200.7270358,433.63001908069623
206.0497854,438.36673995387036
211.3643466,549.8054227519119
216.6707333,670.5179828062251
221.9689593,780.1453296707965
227.2590382,805.9243729499487
232.5409839,895.8337068194664
237.8148101,968.8659943455317
243.0805303,1001.9070291205073
248.3381582,1063.878989156181
253.5877075,1153.6828040447838
258.8291917,1269.3108173619225
264.0626244,1328.3509123645724
269.288019,1371.762644532116
274.5053891,1453.5988666284977
279.7147481,1542.4373829583594
284.9161094,1518.7060458483052
290.1094865,1552.8587968540744
295.2948927,1360.1334424378101
300.4723414,950.3665650127762
305.6418459,521.5407499082158
310.8034194,28.70367112357934
315.9570752,-35.68717787703058
321.1028267,13.257179866656244
326.2406869,-53.48357978580323
331.370669,29.742958667270408
336.4927863,25.69573840067563
341.6070517,-54.78534777747306
346.7134786,9.915491729646376
351.8120798,76.78770335516826
356.9028684,70.32849163997102
361.9858576,78.86906528320169
367.0610602,133.78327723648135
372.1284892,199.51270608153868
377.1881577,261.1896580627705
382.2400784,711.4621328078273
387.2842644,1337.2998082735555
392.3207284,1710.8222650882624
397.3494833,1711.0994269305731
402.370542,1231.2362107161746
407.3839172,789.5215326101037
412.3896217,438.5945392015827
417.3876683,242.78464866893205
422.3780697,149.07212755070546
427.3608386,-19.491015718590504
432.3359876,43.2527882150809
437.3035295,32.38437090124027
442.2634769,-29.30091571409418
447.2158423,-61.59519025956544
452.1606383,-27.82036113960218
457.0978776,38.749076580924125
462.0275727,31.17922750025644
466.9497361,25.235435012491866
471.8643802,-22.514304395573426
476.7715176,26.04954861166695
481.6711608,35.56002398217264
486.5633221,57.31795648649142
491.448014,-7.245870041486599
496.3252488,-11.105833072893613
501.195039,33.695044563294076
506.0573969,-72.17602649731553
510.9123349,39.578835234847574
515.7598651,-40.279199893990736
520.6,-78.89030123356963
525.4327518,87.15136423473228
530.2581327,36.679442485252125
535.076155,96.96750450057236
539.8868309,23.52892438067229
544.6901726,29.251837406134438
549.4861922,100.68680162973708
554.2749019,14.081835148548077
559.0563139,39.172572455738674
563.8304402,-60.45372674340348
568.597293,-4.241664119423717
573.3568844,60.524971026083385
578.1092263,41.835911389241616
582.8543308,0.3461235394553608
587.5922101,-63.430278121372204
592.322876,-10.785739879595052
597.0463405,22.806151927506203
601.7626157,20.741094039886608
606.4717135,-39.98810833965718
611.1736458,37.46988338497479
615.8684246,-13.416659141138995
620.5560617,26.328840694938158
625.2365691,36.422613030616745
629.9099585,-98.06019160550959
634.5762419,11.362837611968304
639.2354312,36.038114647022546
643.887538,72.82966992842965
648.5325743,6.205900664908306
653.1705518,8.39047949470704
657.8014823,35.43999162648289
662.4253775,-37.46019383330162
667.0422493,-20.949359253909755
671.6521092,-25.794265208273796
676.2549691,68.6653135463164
680.8508407,80.02717032466123
685.4397355,29.64023018099985
690.0216654,25.057369252748472
694.5966419,-32.13767761517064
699.1646767,-4.5908776143376056
703.7257814,78.21161498146246
708.2799676,-6.72865249525333
712.827247,-11.960564040450544
717.367631,42.784496435721195
721.9011314,38.82520050271683
726.4277595,23.979087268328932
730.9475271,-41.61782588636891
735.4604456,-25.928588278684046
739.9665264,17.9838741922741
744.4657813,-8.833252404749297
748.9582215,-18.41288112968713
753.4438587,-18.78966031194859
757.9227042,-30.3937017075069
762.3947696,21.085934594355727
766.8600662,6.357721680024767
771.3186056,20.14438510131486
775.770399,-34.840382421998285
780.215458,-13.482708321896318
784.6537939,13.883757722912563
789.0854181,-37.93066500568996
793.510342,16.670200892835553
797.9285769,40.123147669988754
802.3401342,141.7460732210901
806.7450253,94.46826211627254
811.1432614,59.374850991469145
815.5348538,43.646743055515316
819.9198139,36.82133621590536
824.2981531,113.51771736291084
828.6698824,37.83417764146389
833.0350133,40.49085719775047
837.393557,-15.932883581826497
841.7455248,-44.653641459069966
846.0909278,97.47604313909676
850.4297774,-22.92010144132564
854.7620848,-86.1111722280725
859.0878611,-34.248312184173955
863.4071176,-21.032926470576847
867.7198655,169.94781297139764
872.026116,106.36338005444533
876.3258802,42.87078769934682
880.6191693,38.728855130014125
884.9059946,-62.942891006281826
889.186367,-0.8510530112333847
893.4602979,25.19078988337769
897.7277982,27.211421326102172
901.9888793,31.608779696826343
906.2435521,26.366672079674196
910.4918277,-32.150569458444465
914.7337174,-10.587339168512358
918.9692321,35.72910311296454
923.1983831,-2.136620017806109
927.4211813,63.28916227009116
931.6376378,151.2004526827873
935.8477637,66.00341585743479
940.0515701,-15.63617902674233
944.249068,8.921055375579215
948.4402684,-71.98699277061367
952.6251825,2.6921996509074795
956.8038212,107.27339834225752
960.9761955,94.38691672166178
965.1423166,97.56057350142419
969.3021953,30.3706091112159
973.4558427,3.6813986860414047
977.6032699,26.549115941041975
981.7444877,9.481745071192343
985.8795072,-5.38960578683297
990.0083394,61.3492807152345
994.1309953,-4.747567171763709
998.2474857,-9.20693853085136
1002.357822,90.36603016902723
1006.462014,26.12254126668621
1010.560075,7.998538671136322
1014.652013,-39.05291344570482
1018.737841,-62.12006421074678
1022.81757,-8.164998130872952
1026.891209,37.63284004547681
1030.958771,13.38646448522443
1035.020266,21.218045542513064
1039.075705,107.28564322782898
1043.1251,16.270089872621334
1047.16846,55.736355137053366
1051.205797,70.81627118713344
1055.237121,-22.284272468686876
1059.262444,-17.907146350410223
1063.281777,35.645989785082094
1067.295131,338.5801220353763
1071.302515,582.2008806450698
1075.303942,919.6487302979037
1079.299422,1113.2719880859763
1083.288966,837.6701515165265
1087.272585,584.5143800638006
1091.250289,168.73968032324942
1095.222091,-35.732778543828374
1099.187999,96.39491727995795
1103.148026,98.61378977732718
1107.102183,34.90733118037299
1111.050479,6.0724269519405425
1114.992927,108.24632274774828
1118.929536,7.640339050107428
1122.860318,-120.38243099109383
1126.785283,36.36153742571571
1130.704443,-6.5988783164909925
1134.617808,38.02716274528945
1138.52539,170.85371938934975
1142.427198,70.3731946638834
1146.323244,74.93557697377301
1150.213538,11.395622937468886
1154.098093,-5.012297499723765
1157.976917,57.24895005577646
1161.850023,27.112189332704006
1165.717421,-9.973517200236081
1169.579121,28.352334169114272
1173.435135,109.15370349935553
1177.285474,111.10268062537872
1181.130148,212.59437455384187
1184.969169,200.41329758814118
1188.802547,116.37061579616791
1192.630292,24.566807283680884
1196.452416,-9.894971956829089
1200.26893,-0.8066791327180187
1204.079844,-63.125495288980815
1207.88517,22.050750304497125
1211.684917,4.495015558587415
1215.479098,-57.71173200003116
1219.267722,-55.025948671071546
1223.050801,44.38919947843705
1226.828346,42.62540560511749
1230.600366,3.5425383275943787
1234.366874,106.15752342150338
1238.12788,102.21895240857165
1241.883395,144.67357811499147
1245.633429,137.8083377627274
1249.377994,102.89859249816107
1253.1171,44.399767101092856
1256.850759,10.505384200370324
1260.578981,30.509918216663884
1264.301776,91.91167606129291
1268.019157,71.34773916732847
1271.731133,-49.1014877335481
1275.437715,11.701165427014267
1279.138915,-14.539207379765422
1282.834743,23.37495808373093
1286.52521,-40.55176621694434
1290.210328,-49.43962838447928
1293.890106,85.1508036873158
1297.564555,10.21831301020012
1301.233688,128.04627452442028
1304.897514,112.89391380503125
1308.556044,96.78186672368557
1312.209289,108.42609805007517
1315.857261,-4.626901209909407
1319.499969,43.117497814505064
1323.137425,85.03320326693
1326.769641,98.70613817737024
1330.396626,27.481942527666625
1334.018391,58.640264074211416
1337.634948,3.91723794706348
1341.246307,-49.20411534349294
1344.85248,34.003264353364244
1348.453477,-20.584858332381394
1352.049309,20.138435074099082
1355.639987,-9.121665668609765
1359.225522,-44.89027513391521
1362.805925,25.669814161911766
1366.381207,4.32520274685891
1369.951379,-18.97576204451043
1373.516452,40.06918326334746
1377.076436,75.87343797906865
1380.631343,78.69644622890375
1384.181184,121.29514592448629
1387.725969,92.07962722535096
1391.26571,107.65727837368564
1394.800417,129.1731008174714
1398.330102,139.16816214000087
1401.854776,128.96196374149895
1405.374448,22.651296338498778
1408.889132,-7.139226229948676
1412.398837,-26.708673519138486
1415.903574,-10.085676199499638
1419.403355,102.2016952239145
1422.89819,152.86785224096812
1426.388091,132.12494414859583
1429.873069,167.14893714067364
1433.353134,127.295432820241
1436.828298,99.56656237853241
1440.298571,108.95105852303922
1443.763965,22.83913555088701
1447.224491,54.559630987009825
1450.68016,13.632029238680694
1454.130983,-24.380088674066513
1457.576971,-1.7053855792489756
1461.018135,-62.897378607698485
1464.454486,6.3399349391607345
1467.886036,29.548314568432822
1471.312794,-22.863629977242315
1474.734774,-6.392944446983684
1478.151985,18.660041137565216
1481.564439,13.517569163196338
1484.972146,40.66339103062499
1488.375119,59.564839643972896
1491.773368,-1.1971922698972932
1495.166904,44.77894006878988
1498.555739,17.606418912458423
1501.939883,-55.92823802815527
1505.319349,11.496846225847957
1508.694146,-10.539898652196262
1512.064286,70.72336390886886
1515.429781,78.5326274018698
1518.790642,-68.82422482896095
1522.146879,27.80193878776407
1525.498505,14.554906218807933
1528.845529,-37.40074954563819
1532.187965,16.34493792153887
1535.525822,-34.63013797688813
1538.859112,32.22081352560552
1542.187846,67.1719943153966
1545.512036,-3.0206796629903803
1548.831693,38.12844515361522
1552.146829,21.97126392731537
1555.457453,-20.103574077358203
1558.763579,118.28832642226618
1562.065216,168.1624084565547
1565.362377,153.12135109456372
1568.655073,240.64245567384572
1571.943315,257.2558090079291
1575.227114,338.6592423803336
1578.506482,401.92021924299377
1581.781431,494.84631065572887
1585.051971,568.5369295396657
1588.318114,599.6493365245176
1591.579872,700.3575947616322
1594.837255,555.553156253681
1598.090275,421.11140854711516
1601.338945,220.75137918521324
1604.583274,133.95689132967698
1607.823275,88.43413152636253
1611.058959,16.655309061575664
1614.290338,188.65729093658464
1617.517422,-19.52741547298998
1620.740224,-76.73809837192223
1623.958755,144.05253518149755
1627.173027,86.71290574343891
1630.38305,26.937355630115775
1633.588838,78.26311834400377
1636.7904,96.63719129039993
1639.987749,101.9477400787448
1643.180896,95.92075940574799
1646.369853,41.519059265706204
1649.554632,16.578675564277518
1652.735244,-8.40352330725512
1655.9117,19.150181062502398
1659.084013,17.830113271546892
1662.252193,-27.280941979785624
1665.416254,-13.461703407199629
1668.576205,26.701873817713512
1671.732059,29.871901856498752
1674.883828,-22.742241205180843
1678.031523,-42.387751745987615
1681.175157,-26.561313490711225
1684.314739,-6.60773064097891
1687.450284,39.759714855744534
1690.581801,117.35462304792613
1693.709304,108.32690535820043
1696.832803,-4.88253890338342
1699.952311,27.94578663846231
1703.067839,129.1612454130826
1706.179399,143.01682862659248
1709.287003,78.54661446243358
1712.390663,82.13739972037189
1715.49039,86.14040657737752
1718.586197,-8.403005754941198
1721.678095,13.994361943768638
1724.766096,-21.803721413364734
1727.850213,-25.739322246872028
1730.930456,-45.858377175144966
1734.006838,-45.4005948431309
1737.079372,44.64015060543479
1740.148067,11.114906374700142
1743.212938,53.973226732912764
1746.273996,26.013765982063603
1749.331252,4.814154452152268
1752.384718,24.915925718059135
1755.434408,-13.701829398813699
1758.480332,42.43779407614474
1761.522503,56.93696836821937
1764.560933,29.25095263696515
1767.595634,-24.62204315762745
1770.626618,-32.34358426265754
1773.653896,27.916337426245594
1776.677482,11.188525131237574
1779.697388,5.535872542115587
1782.713625,-38.2520362223015
1785.726205,-40.76165813001057
1788.735141,26.936025876112005
1791.740445,-19.061619004636132
1794.742129,-15.82092400813427
1797.740206,93.2057682519642
1800.734687,124.08029944875199
1803.725585,30.89859772872234
1806.712912,-2.0574609387736587
1809.69668,89.99212058874616
1812.676902,87.05481385425423
1815.65359,4.45812615333433
1818.626756,1.2293415991827832
1821.596413,18.840919885488727
1824.562573,16.88265443713989
1827.525247,-49.208984657190825
1830.48445,4.950842440948485
1833.440192,31.986407706511045
1836.392487,2.770099105256514
1839.341347,35.560306829614
1842.286784,-72.7838860809242
1845.22881,18.491700754235286
1848.167439,58.620046797309094
1851.102682,-30.57906454213002
1854.034553,6.18998980062278
1856.963063,1.2232581783676109
1859.888226,0.9579117332144786
1862.810053,5.086036970091209
1865.728557,5.417863180565586
1868.643751,-5.282257027437777
1871.555648,6.915715276527132
1874.46426,-7.0804238300272635
1877.369599,41.45875835384525
1880.271679,77.84298280610645
1883.170512,-23.615425371265882
1886.06611,-34.530807301341106
1888.958487,32.25140005737112
1891.847655,30.998798453147277
1894.733626,3.211298893550717
1897.616414,-31.23456056345701
1900.496032,-31.65338742471568
1903.372491,8.63517725901803
1906.245805,3.339825532267257
1909.115987,67.62792697891993
1911.983049,86.94706552032159
1914.847004,-6.897792450791121
1917.707866,59.25212244446966
1920.565646,123.41371225743774
1923.420359,44.77740069519411
1926.272016,65.93731793629344
1929.120631,22.262183306295935
1931.966216,13.67378028181399
1934.808786,90.1885503081677
1937.648351,-55.2060645715042
1940.484927,-69.63929718249959
1943.318525,23.798071729161006
1946.149158,69.43189766608914
1948.97684,38.706131676469404
1951.801584,-35.91988142453415
1954.623403,34.21227997580075
1957.44231,14.765287462772063
1960.258318,-22.658356417526655
1963.071439,1.6202486546786226
1965.881688,14.071185114036787
1968.689078,32.42377245804543
1971.493621,-37.24227164924783
