Raman shift cm-1,4ATP_100pM_rep1_acc3_processed_intensity
-93.47115107,-23.135166232352418
-87.69374369,16.13368405186965
-81.9253076,46.5875554561056
-76.16582701,56.25328022956947
-70.41528615,40.018555222806405
-64.67366933,19.46691385816381
-58.94096086,4.773876801527363
-53.21714512,-16.41713537117431
-47.50220652,-22.17713343943492
-41.79612954,13.644435239430571
-36.09889866,55.64028188368687
-30.41049843,50.67225418493754
-24.73091343,12.345935026846366
-19.0601283,6.887660024242567
-13.39812769,43.41770530356308
-7.744896327,69.32004724601366
-2.100418946,80.64529700280659
3.535319659,91.85081841205375
9.162334658,62.5875494594693
14.78064118,0.29649326137469956
20.39025432,-0.15389990798154862
25.99118913,81.66154082670313
31.58346061,136.9357441865823
37.16708375,92.24567539133993
42.74207347,11.24260769021736
48.30844468,-17.031291300288935
53.86621222,-6.0408585727850515
59.41539093,-16.88936694386974
64.95599558,-36.3901100001273
70.48804091,-17.33532361826802
76.01154164,15.019678747753353
81.52651243,21.48475242572677
87.03296792,20.33385973519738
92.5309227,15.78111402806001
98.02039134,-1.1857787966853444
103.5013884,3.5622857248189916
108.9739282,25.37366000727259
114.4380255,16.791966907644966
119.8936944,6.194744022390259
125.3409495,24.006333350738437
130.779805,9.071414702017453
136.2102753,-52.27180123176078
141.6323747,-66.97602900130767
147.0461174,5.005005297395375
152.4515176,72.92126059897157
157.8485895,55.657181842068184
163.2373472,7.570466111040693
168.6178049,6.850988621950998
173.9899766,35.10652410015692
179.3538764,65.1063370099868
184.7095182,94.53296413043125
190.0569161,87.59100444063583
195.396084,48.12416619140556
200.7270358,23.919189883666643
206.0497854,1.3492247393438452
211.3643466,-23.383170124344318
216.6707333,-8.653838266241232
221.9689593,15.867692221834435
227.2590382,13.68047699205103
232.5409839,16.470429133287112
237.8148101,11.144364925876715
243.0805303,-23.65162114299854
248.3381582,-24.57807675768259
253.5877075,14.74105534896062
258.8291917,12.016895519133868
264.0626244,-20.391199960220355
269.288019,-4.126954460153662
274.5053891,41.30029019586218
279.7147481,48.93983141627086
284.9161094,20.30356761554761
290.1094865,-7.8268501285174725
295.2948927,-3.073056211265625
300.4723414,88.73366255674264
305.6418459,273.81416451000325
310.8034194,432.3939616348358
315.9570752,469.0759686623233
321.1028267,469.32092743792896
326.2406869,533.885463837144
331.370669,590.89563836697
336.4927863,564.8402733764146
341.6070517,542.7775568188915
346.7134786,600.8621301814994
351.8120798,685.6464793234722
356.9028684,739.8655344866853
361.9858576,748.6255341087757
367.0610602,706.2456217816144
372.1284892,709.7798442225883
377.1881577,1022.0385921937786
382.2400784,1808.240494796434
387.2842644,2751.8091614305276
392.3207284,3234.001212145042
397.3494833,2990.774968711585
402.370542,2279.6427734954714
407.3839172,1493.765114369007
412.3896217,908.8279849263749
417.3876683,580.8296511368677
422.3780697,368.41654422530496
427.3608386,194.89971997653092
432.3359876,110.14401782965291
437.3035295,90.27757124198155
442.2634769,59.332961224010155
447.2158423,13.025007061052916
452.1606383,-19.483598909039863
457.0978776,-14.873081490490438
462.0275727,22.079926218036384
466.9497361,47.932361516701356
471.8643802,61.54757243619697
476.7715176,110.38365034150792
481.6711608,190.95779557933741
486.5633221,240.41251422196467
491.448014,213.03236483157474
496.3252488,136.0973878104956
501.195039,85.8982927533101
506.0573969,77.35098496983446
510.9123349,47.69127523670931
515.7598651,10.939760770108329
520.6,57.57163935345987
525.4327518,150.72608082172164
530.2581327,172.0369511508723
535.076155,125.93857999155412
539.8868309,95.09307990046034
544.6901726,131.01745626295696
549.4861922,207.1351858965372
554.2749019,208.0368220875891
559.0563139,116.66631216506173
563.8304402,73.15925500714735
568.597293,93.85641441865968
573.3568844,49.96909014480234
578.1092263,-37.33947938600466
582.8543308,-39.64742298178008
587.5922101,19.1646896580314
592.322876,38.26224491888088
597.0463405,22.90161797108629
601.7626157,14.095179946772763
606.4717135,14.381943034047897
611.1736458,41.90638194386374
615.8684246,100.37447400426402
620.5560617,118.31304005951036
625.2365691,48.32035858408624
629.9099585,-18.487730756360698
634.5762419,22.318405811929182
639.2354312,112.07035980732954
643.887538,134.46084884384123
648.5325743,99.66090882537819
653.1705518,83.31155210361467
657.8014823,96.18098388816598
662.4253775,116.67574087188225
667.0422493,155.8750330819139
671.6521092,206.27296340009156
676.2549691,202.0735853026738
680.8508407,115.32712053405376
685.4397355,15.771195234882244
690.0216654,-27.000922138553147
694.5966419,0.07748526360234109
699.1646767,82.73664548132362
703.7257814,156.56634667938016
708.2799676,155.56791238399717
712.827247,108.76976631817777
717.367631,67.4943004997244
721.9011314,47.79552170205454
726.4277595,79.11338081403044
730.9475271,140.12823684556784
735.4604456,138.68163576649403
739.9665264,55.535495461760505
744.4657813,-17.008781640480283
748.9582215,-2.067084658674119
753.4438587,53.74993562758196
757.9227042,51.49911113804583
762.3947696,9.705780695991415
766.8600662,21.675423301203907
771.3186056,84.77116941147602
775.770399,134.5242264456742
780.215458,145.5442289452099
784.6537939,119.74118012933164
789.0854181,97.82903229240978
793.510342,140.95303306046367
797.9285769,224.161568510145
802.3401342,261.75631493782834
806.7450253,237.56667516244994
811.1432614,193.07166361613082
815.5348538,150.31838003324097
819.9198139,120.3537250025889
824.2981531,110.55796354429532
828.6698824,110.32004986350145
833.0350133,98.21624791221143
837.393557,57.54008104701819
841.7455248,14.719517000126274
846.0909278,8.069227962674361
850.4297774,2.2439188100819933
854.7620848,-31.516009182587794
859.0878611,-27.881635054950934
863.4071176,38.49474339596535
867.7198655,93.8840666480248
872.026116,108.88777194420805
876.3258802,125.81613873775567
880.6191693,144.5147740384957
884.9059946,116.8597303767584
889.186367,44.87370253252689
893.4602979,3.5081976851730197
897.7277982,34.388142148623665
901.9888793,62.44646487620438
906.2435521,20.564032978529568
910.4918277,-18.32595821397237
914.7337174,19.96046502523498
918.9692321,93.18464289437567
923.1983831,147.51801852149987
927.4211813,163.09567814069186
931.6376378,134.10274116049914
935.8477637,105.33304836220128
940.0515701,119.85684277880571
944.249068,138.00091780633866
948.4402684,113.8383735671342
952.6251825,85.12023779544054
956.8038212,104.96834301685564
960.9761955,162.52914917270843
965.1423166,207.78337151970487
969.3021953,197.2100277963541
973.4558427,148.59558264217094
977.6032699,127.0055584846261
981.7444877,117.39930483474711
985.8795072,63.44264006866163
990.0083394,19.89960759158059
994.1309953,45.60373799972092
998.2474857,82.25835942276838
1002.357822,95.17965836776904
1006.462014,113.96321609987478
1010.560075,111.16622128033183
1014.652013,45.9066686881351
1018.737841,-23.945245650230078
1022.81757,-2.043618372254393
1026.891209,104.80908983603086
1030.958771,183.53987864751085
1035.020266,163.8934701488748
1039.075705,81.8324582294252
1043.1251,5.405072584902388
1047.16846,-8.35123367974872
1051.205797,45.962339172297916
1055.237121,101.19569456416043
1059.262444,153.61629423521796
1063.281777,347.62055256172226
1067.295131,801.3907942733078
1071.302515,1419.6670910778817
1075.303942,1905.3962929528204
1079.299422,1932.8543371095307
1083.288966,1430.9750211224616
1087.272585,714.7642904194875
1091.250289,197.9417953682687
1095.222091,14.739818000834747
1099.187999,13.434042583255145
1103.148026,17.86325605346499
1107.102183,-4.146118864847001
1111.050479,-12.486958674445074
1114.992927,-18.849386866571162
1118.929536,-27.453385290114568
1122.860318,19.91009158169421
1126.785283,129.12278474013226
1130.704443,253.20477967327844
1134.617808,388.24704523773596
1138.52539,492.2632536594987
1142.427198,465.8403465218687
1146.323244,330.04381219832055
1150.213538,223.40200763688378
1154.098093,199.23317849451857
1157.976917,206.8086273923712
1161.850023,228.6954558064782
1165.717421,277.71770981260505
1169.579121,332.11062099765167
1173.435135,386.0770963748248
1177.285474,463.38689684141747
1181.130148,520.3155242205808
1184.969169,459.2500391385954
1188.802547,286.748605556994
1192.630292,125.51209331256659
1196.452416,42.3732849354774
1200.26893,7.8222241736445755
1204.079844,-3.7702199061347303
1207.88517,-1.0026184524578117
1211.684917,3.4905117201274805
1215.479098,5.56377569031235
1219.267722,-1.4194416965077519
1223.050801,-9.636247054430113
1226.828346,18.1339732757464
1230.600366,87.09742618464816
1234.366874,148.1924050180081
1238.12788,159.5069414708308
1241.883395,136.62022290819021
1245.633429,136.4265383295915
1249.377994,163.56117980953292
1253.1171,148.52952225774268
1256.850759,83.97814413158684
1260.578981,56.1330587379183
1264.301776,78.71295579338587
1268.019157,60.57467701712021
1271.731133,-12.935278197276958
1275.437715,-41.95770498526447
1279.138915,0.5690079180144139
1282.834743,26.014157025681847
1286.52521,4.81492174286365
1290.210328,-7.512032136988852
1293.890106,-2.4071722159653923
1297.564555,9.932009433890759
1301.233688,65.11397580973716
1304.897514,135.02293510350125
1308.556044,120.67209029988445
1312.209289,36.322657560280874
1315.857261,4.619484943996568
1319.499969,49.962623208838366
1323.137425,87.00288736655247
1326.769641,85.1493207766551
1330.396626,84.86309455022875
1334.018391,102.4340626387237
1337.634948,122.59193939513331
1341.246307,139.88683884030405
1344.85248,161.69565225802782
1348.453477,169.4122162190304
1352.049309,113.57065841632013
1355.639987,15.788056747127882
1359.225522,-21.942791315526932
1362.805925,19.34297312292388
1366.381207,61.40012633915762
1369.951379,66.0359856443383
1373.516452,54.19273193592379
1377.076436,58.709719210393445
1380.631343,102.47983367246734
1384.181184,162.81431883399927
1387.725969,186.38877618646006
1391.26571,170.02296005052642
1394.800417,158.90257884839414
1398.330102,156.63710264066412
1401.854776,126.58069270575231
1405.374448,68.25645112752463
1408.889132,12.885997827861466
1412.398837,-19.214584183056623
1415.903574,-4.492386487940493
1419.403355,78.9955057680767
1422.89819,189.6279856836161
1426.388091,245.213501080912
1429.873069,237.22681170798714
1433.353134,218.1246999485813
1436.828298,181.85099495521973
1440.298571,98.32407108422619
1443.763965,14.107990522749311
1447.224491,-11.94693265230774
1450.68016,5.978511922498786
1454.130983,14.232986984155072
1457.576971,-10.266680988951563
1461.018135,-27.217413011925302
1464.454486,3.989960568352764
1467.886036,51.93142092381065
1471.312794,70.14750341144679
1474.734774,64.88137354988724
1478.151985,48.17573259257421
1481.564439,13.200285471522783
1484.972146,-9.648361171843767
1488.375119,19.685100293260398
1491.773368,58.72685722366556
1495.166904,35.194672569939456
1498.555739,-11.870279571255068
1501.939883,16.790159085916812
1505.319349,90.25926319054157
1508.694146,95.27732433656102
1512.064286,55.26939205967584
1515.429781,59.61396412429069
1518.790642,61.36350554488088
1522.146879,-1.6869425535908333
1525.498505,-49.49097453665628
1528.845529,-20.996027202045088
1532.187965,16.237854089947323
1535.525822,14.876775588481625
1538.859112,1.4647329002029323
1542.187846,-2.2029504425210504
1545.512036,24.872196281546877
1548.831693,65.58737165794483
1552.146829,47.31606077014441
1555.457453,13.578819724654238
1558.763579,100.13246404046812
1562.065216,276.32997809817977
1565.362377,401.972349235032
1568.655073,462.26038821125815
1571.943315,529.8064595940518
1575.227114,638.4812845364578
1578.506482,768.7112155025195
1581.781431,866.9774532575057
1585.051971,908.1187711298433
1588.318114,910.448237625754
1591.579872,842.9290462039363
1594.837255,656.387088004574
1598.090275,413.3919416599332
1601.338945,211.03043526751145
1604.583274,57.94695011606156
1607.823275,-25.63209959435467
1611.058959,2.6110007711035195
1614.290338,48.307801841977955
1617.517422,9.530516055623458
1620.740224,-26.318818653975292
1623.958755,16.49944773827118
1627.173027,57.701179267210016
1630.38305,39.81070815968549
1633.588838,0.28244722009451095
1636.7904,-17.23915913063874
1639.987749,-4.862973261565138
1643.180896,14.311860025349816
1646.369853,17.727532742177885
1649.554632,11.141376776057399
1652.735244,22.63414373012074
1655.9117,52.38635583629775
1659.084013,42.416232859365266
1662.252193,-17.6801438198789
1665.416254,-36.59603102221858
1668.576205,14.185814262415413
1671.732059,45.60832538114611
1674.883828,25.83467039375218
1678.031523,9.111658994748762
1681.175157,2.8488824883046515
1684.314739,-16.051954982741318
1687.450284,-26.82508064907551
1690.581801,-11.80662149015355
1693.709304,13.707838747147541
1696.832803,44.47359959430535
1699.952311,73.18263707431137
1703.067839,64.11632062020922
1706.179399,20.482526530876513
1709.287003,2.3891803646008434
1712.390663,20.835447229799712
1715.49039,31.576431302949853
1718.586197,15.785777050451081
1721.678095,-18.88782475153382
1724.766096,-39.42048908109165
1727.850213,-14.903561111054067
1730.930456,12.050244205015957
1734.006838,-3.432505442757879
1737.079372,-15.71889079208966
1740.148067,23.647584235589346
1743.212938,80.22158017700261
1746.273996,97.02229836391972
1749.331252,81.9994400805135
1752.384718,88.58171212208718
1755.434408,126.1913883832454
1758.480332,157.13430760753502
1761.522503,149.46617776993546
1764.560933,85.68036670443031
1767.595634,0.5522463663446846
1770.626618,-23.25446359478536
1773.653896,19.060507890306322
1776.677482,42.5681265223834
1779.697388,17.41842966254954
1782.713625,2.1785583632638073
1785.726205,25.562582979828527
1788.735141,33.46422277517374
1791.740445,-9.955208766532962
1794.742129,-39.716183473784874
1797.740206,15.413057683429813
1800.734687,105.48059584461778
1803.725585,125.24456102756356
1806.712912,76.14625574994726
1809.69668,34.90426157105448
1812.676902,12.39599882407141
1815.65359,-13.436065324881248
1818.626756,-16.764825324558032
1821.596413,16.15550728658521
1824.562573,51.4464916455559
1827.525247,55.06425732233999
1830.48445,18.53937098560486
1833.440192,-15.028553447879153
1836.392487,6.581668177095831
1839.341347,46.402236336353866
1842.286784,41.53973512488791
1845.22881,9.312980489089266
1848.167439,-11.192407428285588
1851.102682,-12.877556374689398
1854.034553,8.546475593114003
1856.963063,46.261097672170145
1859.888226,74.91727441106113
1862.810053,88.16365031701235
1865.728557,93.14049675442763
1868.643751,78.39677495948035
1871.555648,50.335589760707435
1874.46426,54.34611236516733
1877.369599,84.42815780830954
1880.271679,69.95721316834164
1883.170512,16.39587967749415
1886.06611,0.9386750743874082
1888.958487,13.195306267855138
1891.847655,-12.909978963756327
1894.733626,-48.173170310213045
1897.616414,-27.796877045287168
1900.496032,9.193254592154817
1903.372491,7.846477849879973
1906.245805,4.078475210777185
1909.115987,12.727169481593013
1911.983049,4.3973928243649
1914.847004,2.437092445642758
1917.707866,13.510181332477934
1920.565646,10.627760727570958
1923.420359,16.13075812570699
1926.272016,22.305467571593823
1929.120631,-9.985962918719125
1931.966216,-30.65836118530225
1934.808786,2.93306692419905
1937.648351,23.430764206336935
1940.484927,-6.269553610875514
1943.318525,-28.982075612698175
1946.149158,-11.759689904155483
1948.97684,33.54001925710691
1951.801584,88.86489871445126
1954.623403,99.3434185062079
1957.44231,43.46352247062487
1960.258318,0.6996661877925288
1963.071439,13.575881601894682
1965.881688,25.2077003673617
1968.689078,3.8504567486384644
1971.493621,-28.243223861217945
