Raman shift cm-1,blank_rep1_acc5_processed_intensity
-93.52472366,839.121393833749
-87.74731628,25.691573996754066
-81.97888019,-40.07745339840721
-76.2193996,48.54929684460084
-70.46885874,-22.169468176205577
-64.72724191,-38.61692164640435
-58.99453344,-124.68342685503863
-53.2707177,24.40364618436167
-47.55577911,100.90899552717904
-41.84970212,81.2077185759956
-36.15247124,438.58490142063323
-30.46407101,434.94618274576294
-24.78448602,229.0956939725865
-19.11370089,259.27504951234823
-13.45170028,180.93195709895627
-7.798468914,-104.66360143572344
-2.153991534,-60.70793239016054
3.481747071,204.3349048020022
9.10876207,46.102420056823604
14.72706859,105.6253966010647
20.33668173,38.914867086985154
25.93761654,-65.38005230038016
31.52988803,358.4218524102357
37.11351116,262.6181772914366
42.68850089,66.08082922061055
48.25487209,182.30091122631345
53.81263964,65.60570327346072
59.36181834,-66.007125671846
64.90242299,-95.21841844815138
70.43446832,181.8259080942341
75.95796905,249.62879629162347
81.47293984,-36.77609033466548
86.97939533,244.286612124525
92.47735012,356.92686294376733
97.96681875,46.38504489687416
103.4478158,170.71600162050183
108.9203557,196.80288184802612
114.3844529,-5.393066425996228
119.8401218,354.58632814472077
125.2873769,649.8287245462496
130.7262324,109.13263285723816
136.1567027,-217.53832695053836
141.5788021,66.58453960361926
146.9925448,216.44410378745476
152.397945,202.09801727108578
157.7950169,60.38332659454704
163.1837747,-55.50442503658983
168.5642323,225.85935187218826
173.936404,326.19264379975743
179.3003038,30.872427050180747
184.6559456,61.07178239754391
190.0033435,313.18863072370414
195.3425114,282.5263274105178
200.6734632,75.68389037545143
205.9962128,-85.81403660168431
211.310774,-45.777944885382084
216.6171607,45.11317092967811
221.9153867,-35.24950798278438
227.2054656,12.098840953653093
232.4874113,12.198853202864761
237.7612375,-90.14054329650872
243.0269577,62.88478831988133
248.2845856,120.51105088171542
253.5341349,-33.49102211769588
258.7756191,-28.850591700077032
264.0090518,82.47599607802647
269.2344464,179.15097398439025
274.4518165,233.82731338038386
279.6611755,-6.347316399158927
284.8625368,-147.50771228313664
290.0559139,-26.034469499798952
295.2413201,455.791659767799
300.4187688,1598.1733499763823
305.5882733,2453.900319019895
310.7498468,3219.5370983311354
315.9035027,3984.6365025441582
321.0492541,4011.9095804617855
326.1871143,3993.822454310137
331.3170964,3999.637273267555
336.4392137,3984.581612063411
341.5534792,3871.8170529459794
346.659906,3710.912186909513
351.7585072,3791.669921233896
356.8492959,3508.0800541086946
361.932285,3354.8985412812463
367.0074876,3332.4702930997537
372.0749167,3111.103521227562
377.1345851,3078.1871055168936
382.1865058,2777.0860138616395
387.2306918,2522.0028994396744
392.2671558,2373.8295395907644
397.2959107,2065.107251251374
402.3169694,2097.4027122599164
407.3303446,2012.476469669609
412.3360492,1605.4239815767069
417.3340958,1298.8028510374174
422.3244971,1167.2749464029134
427.307266,1325.355639680934
432.2824151,1353.2451675684001
437.2499569,1378.1532839899637
442.2099043,1220.2511836449457
447.1622697,655.5982824719449
452.1070657,724.1261817454651
457.044305,596.2917291294939
461.9740001,277.26168645137113
466.8961635,316.0048683789814
471.8108076,-59.36578637689399
476.717945,43.68758130921606
481.6175882,283.7658736413646
486.5097495,127.66707682141669
491.3944414,232.43511904967545
496.2716763,74.37899988801382
501.1414665,42.34646789218368
506.0038244,416.85933854969517
510.8587623,82.45069551422557
515.7062925,-235.4467065517115
520.5464274,-1.0494024544150307
525.3791792,72.610605739927
530.2045601,51.517555950627866
535.0225824,-150.193158808896
539.8332583,40.0563766177288
544.6366,12.266415871437403
549.4326196,-107.49134293493489
554.2213293,515.9627000264054
559.0027413,89.57041702030665
563.7768676,-134.09458167373828
568.5437204,532.593906799666
573.3033118,222.26549427595387
578.0556537,61.43487381070872
582.8007583,339.82644395237844
587.5386375,129.3579922948593
592.2693034,-147.12296811220585
596.9927679,23.848369290299843
601.7090431,204.78146523396867
606.4181409,42.68273822963056
611.1200732,-101.9714423462799
615.814852,5.975331954520925
620.5024891,126.79150126615946
625.1829965,7.30645250831958
629.8563859,385.1178669388046
634.5226693,452.5949996802565
639.1818586,0.1867778107803133
643.8339654,126.8405805377854
648.4790017,-49.66768216214996
653.1169792,-6.270197696252353
657.7479097,44.99498697972922
662.3718049,-289.2967785310335
666.9886767,-55.852962581836096
671.5985366,3.9116441468614767
676.2013965,31.43941199508265
680.7972681,31.855629527534575
685.386163,-63.88546346396129
689.9680928,20.5476073312102
694.5430693,110.70038256552004
699.1111041,222.60449788177425
703.6722088,80.28967941643168
708.226395,97.22875908567175
712.7736744,234.25248950423747
717.3140584,211.81467573816542
721.8475588,-19.718674281243466
726.3741869,-130.52864932298343
730.8939545,101.06053858687545
735.406873,337.68283091426935
739.9129539,379.38395511070496
744.4122087,275.1533557074005
748.9046489,246.06971372824705
753.3902861,-124.1420262694374
757.8691316,1.589609987932704
762.341197,211.78284888840193
766.8064936,182.78646219588052
771.265033,698.639974729663
775.7168264,488.85973640145
780.1618854,296.73256259282925
784.6002213,234.7876646953572
789.0318455,-157.21022279621502
793.4567694,124.89145073743182
797.8750043,235.0110538250899
802.2865616,-8.586744241603988
806.6914527,64.12217328156964
811.0896888,121.1286083014516
815.4812812,-27.42525579426536
819.8662414,-106.92941343971452
824.2445805,11.21680098647402
828.6163098,90.5133263809821
832.9814407,-56.440855680030495
837.3399844,-134.16852635750294
841.6919522,90.70473096756947
846.0373552,104.43690340916682
850.3762048,-82.30286888917945
854.7085122,221.9228244652393
859.0342885,307.9552418907408
863.353545,83.18742886918545
867.6662929,225.6171838769418
871.9725434,408.2879516740062
876.2723076,624.8046509678994
880.5655967,391.49913687148336
884.852422,403.80478518889254
889.1327944,708.668359773681
893.4067253,-27.01133252607292
897.6742257,-222.28011896946748
901.9353067,245.4030258929359
906.1899795,226.25996684960987
910.4382551,110.51682090625414
914.6801448,-141.56165521822027
918.9156596,64.76768632133965
923.1448105,122.76137782930189
927.3676087,-46.41135658361636
931.5840652,221.45366431307048
935.7941911,33.08690084001361
939.9979975,114.7206567418404
944.1954954,84.63628852023825
948.3866958,-255.9377190437879
952.5716099,-4.638687868972511
956.7502486,77.7678111220606
960.9226229,58.538877599434755
965.088744,22.468321011286378
969.2486227,10.585371553478154
973.4022701,34.02137188939196
977.5496973,-70.58195424448415
981.6909151,-67.5232598116862
985.8259346,64.29732795997435
989.9547668,24.30121834529413
994.0774227,1.4659749959159143
998.1939132,82.19736848221768
1002.304249,-165.99002768499082
1006.408442,-135.90096299548316
1010.506502,-8.294706384261495
1014.598441,163.27006205218942
1018.684269,364.8199896193759
1022.763997,105.10415342093977
1026.837637,22.745591447999928
1030.905199,37.313777800586806
1034.966694,117.11467556919989
1039.022133,48.958895305174245
1043.071527,-171.5615511679881
1047.114887,130.79325009143102
1051.152224,110.58941313713855
1055.183549,-55.92232315394705
1059.208872,89.7700722020569
1063.228205,-301.0578191806962
1067.241558,-182.22224581686294
1071.248943,224.0583130828282
1075.250369,42.632119591176874
1079.245849,288.64713404633
1083.235393,232.27328976421234
1087.219012,48.46400781178035
1091.196717,363.1297492609716
1095.168518,249.94279189924814
1099.134427,74.15491298569762
1103.094454,82.86472941628756
1107.04861,30.564767600481872
1110.996907,185.61820066358837
1114.939354,172.9692210342618
1118.875963,100.56201522048539
1122.806745,328.44881316732153
1126.731711,-86.4356138072112
1130.650871,-166.64590842053244
1134.564236,447.9046761080517
1138.471817,190.9990797943709
1142.373625,243.33480936712633
1146.269671,346.59019846152444
1150.159966,123.71363356659032
1154.04452,408.9569937447088
1157.923344,14.479839758104916
1161.79645,-40.35341975441977
1165.663848,354.89345444982644
1169.525549,302.8517220080721
1173.381563,359.9479450739169
1177.231902,17.953586118157325
1181.076576,9.363650627471163
1184.915596,254.70860676104905
1188.748974,319.98416090178415
1192.576719,215.31440034425157
1196.398844,6.709812300631398
1200.215357,270.3812732627267
1204.026272,-53.36360738981287
1207.831597,-117.92225127272444
1211.631345,118.04626901588253
1215.425525,288.0168273041669
1219.21415,866.0069123567389
1222.997229,249.11930161367312
1226.774773,-109.18882633386197
1230.546794,290.09668987439267
1234.313302,195.89137678420417
1238.074307,111.20897207565514
1241.829822,71.60175263902167
1245.579857,314.2147440211894
1249.324421,182.13127930261504
1253.063528,-165.95998944201312
1256.797186,36.98010711464286
1260.525408,110.44317609606124
1264.248204,8.729684712904243
1267.965584,42.46700332904961
1271.67756,-85.1928973520621
1275.384142,-131.11765503596658
1279.085342,209.97458518057184
1282.781171,309.05656960295545
1286.471638,85.01066554079452
1290.156755,-60.35970809443447
1293.836533,130.2337516828361
1297.510983,214.58836787801692
1301.180115,-26.6256417441791
1304.843941,84.79859446324458
1308.502471,327.07163510173586
1312.155716,229.41919411550052
1315.803688,-128.4577819610546
1319.446396,37.590289777762095
1323.083853,357.7772513198196
1326.716068,277.9991513938334
1330.343053,407.1090586713302
1333.964818,319.6914403331115
1337.581375,206.3404721981703
1341.192735,112.2957358860093
1344.798907,-95.1938623732233
1348.399904,-39.97866884887187
1351.995736,-159.91193020796152
1355.586415,-23.10052672552151
1359.17195,285.6848357725554
1362.752353,99.3099464286573
1366.327635,15.386202849704176
1369.897807,107.7225115667271
1373.462879,170.97696003872875
1377.022864,241.7677824568477
1380.577771,62.96106000989519
1384.127611,-5.297270700184313
1387.672397,60.19750023177545
1391.212137,-69.4723878465044
1394.746845,-87.50395021831815
1398.27653,-0.5171576973958913
1401.801203,110.37604947873386
1405.320876,100.48307916684807
1408.835559,-96.10921759938867
1412.345264,-206.62356855063658
1415.850001,28.604280033599437
1419.349782,313.0791713798599
1422.844618,16.53723430498163
1426.334519,67.96640389600961
1429.819496,314.5470164876421
1433.299561,-62.389571811520874
1436.774725,33.99144869635618
1440.244998,221.3407414335964
1443.710393,41.109266341646276
1447.170919,-50.48076169356087
1450.626588,2.959914464327105
1454.07741,205.48795799634283
1457.523398,232.4891009764275
1460.964562,341.1548701617808
1464.400914,302.2702439653067
1467.832463,88.26791845853367
1471.259222,-33.84103890515583
1474.681201,-58.09767528919872
1478.098412,160.6572958291677
1481.510866,221.50894804421824
1484.918574,75.87318875310814
1488.321546,-162.51031366108538
1491.719795,117.05389930896729
1495.113332,416.5680874294969
1498.502166,123.91607085459053
1501.886311,-29.75782913264016
1505.265776,-141.69842979253403
1508.640573,8.561951474736048
1512.010714,183.69855338378102
1515.376209,32.008372032939846
1518.737069,80.07307339514387
1522.093306,244.89876096523852
1525.444932,-98.3689760747877
1528.791957,9.038649917701875
1532.134392,537.8423459338343
1535.472249,39.54538326556872
1538.805539,241.18011927989951
1542.134274,447.65845574666
1545.458464,82.22876309407903
1548.778121,798.2373090591211
1552.093256,630.6352452533872
1555.403881,-49.0268677686999
1558.710006,-97.6498643642198
1562.011644,-60.283077708534435
1565.308805,210.4265067683203
1568.6015,199.57204567953377
1571.889742,163.16385659519557
1575.173542,33.35354773146649
1578.45291,10.141151532109173
1581.727858,240.02044409143372
1584.998398,70.1475707708278
1588.264541,9.772451484244115
1591.526299,11.018349945619562
1594.783682,-18.858685732117294
1598.036703,-107.12663713067964
1601.285372,-28.320700868251606
1604.529701,358.93316296715534
1607.769702,87.91663347271613
1611.005386,77.83312041042826
1614.236765,384.3091564793758
1617.463849,115.77566666426318
1620.686651,14.456298471338926
1623.905183,-4.055657697779537
1627.119454,-165.8418904018373
1630.329478,-135.97530529559066
1633.535265,64.52040484862283
1636.736827,33.519791171610706
1639.934176,120.85806461785373
1643.127324,92.23395117833354
1646.316281,-111.5848860677309
1649.50106,298.66131910383933
1652.681671,102.00727216610848
1655.858128,-314.2428799845045
1659.03044,224.3546684544656
1662.198621,400.99472672061245
1665.362681,48.82219830546917
1668.522632,72.82161200057709
1671.678487,337.3757437886514
1674.830256,291.7583963050762
1677.977951,21.977635259886057
1681.121584,31.094700848014014
1684.261167,203.89437261142695
1687.396711,131.34949492784898
1690.528229,-37.982217601016764
1693.655731,-144.09204291643573
1696.779231,-125.03379327448455
1699.898738,62.999057597420034
1703.014266,4.336907027566575
1706.125826,17.412001155083843
1709.23343,206.06956219512657
1712.33709,63.831369578704475
1715.436818,48.317922822105054
1718.532624,230.59855927190455
1721.624522,275.46840750021147
1724.712524,175.94624600763706
1727.79664,-34.454895121718586
1730.876884,-118.71483255504918
1733.953266,52.575029414786016
1737.025799,-6.525886847814675
1740.094495,21.65867593383645
1743.159366,386.184792308358
1746.220423,112.63785116513083
1749.277679,-100.62382341397401
1752.331146,57.05719466593568
1755.380835,-4.408802384689146
1758.42676,74.19901810441246
1761.468931,68.95153423548894
1764.50736,-115.43918648056865
1767.542061,-130.94540089494245
1770.573045,167.63975307331214
1773.600324,302.76081862698715
1776.62391,26.93973654509825
1779.643815,43.9434576654626
1782.660052,319.16485378201884
1785.672632,337.80877400839734
1788.681568,263.4044211074099
1791.686873,19.45023910055928
1794.688557,-60.74590296627241
1797.686633,202.60684532590335
1800.681115,178.20235194770336
1803.672013,205.567450572688
1806.65934,97.3423774434009
1809.643108,-42.40675715631549
1812.62333,71.39627272806806
1815.600018,-69.02398372405064
1818.573184,29.41402861421639
1821.542841,-9.040800847200266
1824.509,-105.61945565473629
1827.471675,21.505690140635426
1830.430877,-24.37624625225645
1833.38662,71.90581182252996
1836.338914,46.607507131096135
1839.287774,221.5073532521273
1842.233211,243.37247542169695
1845.175238,-125.37213823846373
1848.113866,35.300084984932624
1851.04911,218.68103972942657
1853.98098,46.20372391580384
1856.909491,107.32480182175165
1859.834653,479.99022478806995
1862.75648,369.5541108717949
1865.674985,10.936421870483969
1868.590179,12.54381107306557
1871.502076,-136.87162132600713
1874.410687,-122.80428064033605
1877.316027,176.31649650045438
1880.218107,42.425627358288146
1883.116939,-19.425154644403577
1886.012538,188.12358762491579
1888.904914,66.559597084504
1891.794082,-32.68442498899136
1894.680054,111.43124826702724
1897.562842,80.20515955659356
1900.442459,-176.21619915329694
1903.318918,-138.2190420303486
1906.192232,87.29409866514723
1909.062414,71.65475041963903
1911.929476,41.443971051757885
1914.793432,60.10594226042359
1917.654293,112.96359998356436
1920.512074,30.229794972320818
1923.366786,-129.81035324482554
1926.218443,-24.66414168840371
1929.067058,-35.256475828910624
1931.912644,-123.46750634031672
1934.755213,-16.51931059272053
1937.594779,42.12799151048609
1940.431354,114.43034501794767
1943.264952,1.168560933942139
1946.095586,305.0356959206698
1948.923268,855.4112281445279
1951.748012,297.5190367163198
1954.569831,27.921500266641473
1957.388737,227.4170662627525
1960.204745,-110.66345632996922
1963.017867,-102.44984046688947
1965.828116,76.74709130193237
1968.635505,81.56583749265315
1971.440049,-12.225531638086466
