Wavelength,AAB_4 ATP_10^-3M_750_5_5_L_S1_I1,AAB_4 ATP_10^-3M_750_5_5_L_S1_I2,AAB_4 ATP_10^-3M_750_5_5_L_S1_I3,AAB_4 ATP_10^-3M_750_5_5_L_S1_I4,AAB_4 ATP_10^-3M_750_5_5_L_S1_I5
342.006421819617,-42.83318966349327,-52.90389908112759,0.2854284420586026,-33.899888788894785,-28.58263420024832
347.112848630893,708.4428017539996,677.7164545197948,803.7355862890573,844.4989963832417,703.1883131888914
352.211449846096,1239.9329660232856,1250.1461955859768,1314.5682946842521,1268.1921916948518,1180.2275394055173
357.302238512928,1413.1475420736938,1340.0935982814237,1584.180011622283,1463.1634896960802,1303.1143544002534
362.385227653271,1298.3584497881116,1218.163051109491,1716.303665977679,1380.8639881076017,1181.3638422946053
367.460430263362,1088.9409930304655,1147.0989575010085,1692.2455462012879,1097.1213158917164,1046.736993705003
372.527859313997,943.1428753502521,1017.362958029032,1689.1244677798882,1092.1192293051822,1111.870736552908
377.587527750688,1018.1693184832395,1121.2484746986952,2019.0710974323972,1384.8727016198459,1452.515900603467
382.639448493877,1434.9447971778739,1504.7762679058774,2642.9781289018606,1810.8441670876075,1985.0465976726068
387.683634439107,2094.886166902769,2160.4590383135464,3264.151266556683,2623.477275193766,2597.172536776195
392.72009845721,2748.7685157668816,2795.525386407209,3847.664825406098,3336.5965131629937,3251.315311828268
397.748853394485,3278.886583745279,3149.1209328010427,4531.65632388744,3640.2397796364285,3860.244483414524
402.76991207289,3642.5844251738563,3834.0125289181324,5096.320664667289,4139.102121096151,4162.588279209719
407.783287290211,3649.281353409191,3872.1762362626214,5092.633355290145,4189.6752491782,3968.2546579892014
412.788991820255,3220.20173746604,3012.9351247644736,4562.567222373554,3611.8127155260645,3452.642573685364
417.787038413016,2615.61718312379,2741.1770460543794,4005.139010703592,3145.879791504185,2908.610268797973
422.777439794883,2083.700701308282,2281.8884717137053,3613.159459234034,2598.39236563243,2414.70259312189
427.760208668777,1682.8453386761169,1550.1200675429343,3256.500069488649,2110.820153054229,1990.561002462199
432.735357714366,1447.9730105969043,1382.2015671489894,3001.760667012526,1810.2708500188908,1703.9179683626417
437.702899588219,1317.550519789122,1216.394878918896,2904.5580508853136,1683.4999223047162,1492.3261665768105
442.662846924002,1101.137304909343,879.8334945971314,2684.177053618162,1469.1947656078603,1191.7742177036707
447.615212332628,746.7293353951638,361.42126787026905,2199.5514994574014,824.1197637532553,770.2523177092817
452.560008402459,382.1450523403364,123.58714271729696,1763.2662571519127,470.34269076582746,399.77938874856363
457.497247699466,107.769825935173,137.25612725429778,1635.424056959511,271.75134387011803,271.9281484909545
462.42694276741,-22.931981286796145,-96.68544849083014,1673.9001275448593,105.67031400619499,331.778898339679
467.349106127996,-11.0669408571448,-49.077414342600605,1627.3427097470353,400.46222514920896,297.22224372337223
472.263750281081,32.17576280153412,61.09385693701165,1472.1979316347768,332.9003675454835,92.68013019600653
477.170887704813,81.6888329869546,-12.906042212067405,1397.1386831135735,32.81622185782612,36.81912381513098
482.070530855812,249.80566174280443,251.57363556766813,1509.7180870748605,384.6074487406514,297.20872050723256
486.962692169351,448.8211085884993,623.5672616589679,1645.2420971476006,775.7849321259956,536.176110266398
491.847384059509,452.3096658441244,555.724448227588,1606.9290836372081,596.9504531176789,487.2962615804263
496.724618919354,358.91287629304475,308.47370897612313,1468.3589592030728,500.3456382926197,399.83799751786773
501.594409121106,427.7639275961445,472.48282847862674,1406.6813938089142,804.9734662740111,521.9375789255419
506.456767016303,560.933977946745,800.2780594452098,1380.56274410631,890.805124061012,650.6407199348172
511.311704935972,519.5858107690401,716.4355868372456,1235.7178517165594,727.1880980568499,541.3979016964918
516.159235190789,404.78101028012037,371.17722196383147,1011.7673988869453,565.6666799402731,327.81383432388634
520.999370071249,414.8060713479083,295.3038161927818,863.6183976954399,344.5101584112783,235.7418456215654
525.832121847836,421.6730483575,378.82258396593863,758.2941777193782,286.7510694037039,201.67467535788376
530.657502771179,243.02815253989573,99.03799003642003,568.0986506969915,193.50139191277495,72.04393170407116
535.475525072219,25.860494839485867,-89.24212571070824,360.5187642197853,-23.70151047282853,-59.481793109227596
540.286200962379,-45.96059325398119,218.4235009681555,249.9347058506499,58.27680830739647,-52.778614553342514
545.089542633712,-55.8509381787631,106.80817333027187,171.0651143209843,3.2583048468136866,-9.80930863795583
549.885562259076,-96.33003580289258,-263.4152693922024,55.92855885717586,-165.21643385723246,-53.60695643729518
554.67427199229,-122.08907439766178,-67.74573398567392,-38.6261065758828,-5.269505658423995,-114.60335484526738
559.455683968295,-92.63508195236213,-65.8984445614056,-24.17273028042733,-74.78953674382068,-92.34816392684814
564.229810303319,-6.803174431972963,0.34742052315922933,116.64387676036583,-102.24637934441971,7.806479911963216
568.996663095024,47.10088911662438,523.3390685614033,223.06112693548886,204.84186699264396,87.09768370098155
573.756254422682,-22.100530183638952,201.50778885051622,178.50407477553296,61.634284693809505,90.60006726800151
578.508596347321,-55.14231624855135,-46.63122993015892,191.05284792658722,-59.23732436610776,136.9760981318978
583.253700911884,82.57434809097073,519.9943026779313,378.6154054674409,346.46281514212313,288.1928659421386
587.991580141394,159.99522254034193,294.9104789703307,496.6967122761605,317.90247812204547,378.14153198905336
592.722246043097,63.416184527897144,84.99143240821022,484.71119873327063,99.52242965827037,335.5201356307403
597.445710606635,62.997951176968115,506.63384832869576,560.8507923220111,335.4409443771093,320.28698036585524
602.161985804183,215.59906874248225,311.1444598468442,689.644921243194,280.44279569644254,420.3574577034355
606.871083590626,244.80258620980538,134.2131615871308,656.9337994737643,128.7822257451712,529.1838150876754
611.573015903688,107.97939776038038,199.83070678041489,486.7919612182912,207.4925892358416,507.4502896300479
616.267794664109,14.597957718920327,15.54163222800338,367.79148354609777,41.9180952189441,364.13156872576366
620.955431775774,5.206224511819471,-3.2413701891823337,389.9966836641712,-47.80608483992455,287.380345678024
625.635939125892,14.157201671137216,63.91102012798113,511.63079686255304,100.56209768288278,413.206129150018
630.309328585123,93.5780393218663,248.25504283748535,645.4505433728317,301.9042455086237,618.0329362105776
634.975612007751,218.96621989273714,322.8502543283353,701.6512379456332,409.81741108023766,668.0109663819412
639.634801231821,214.39752836562724,213.72380567844183,629.3984704726591,412.08454664513,504.5772789334544
644.286908079293,85.74919921092715,270.7677484102795,472.72074486777586,278.98583300587944,281.759172926101
648.931944356194,17.203028952849706,119.5740541521285,317.91745116177583,1.6301614858085145,145.03275931406762
653.569921852761,-5.9439851610933445,7.566557655959391,196.4008108788063,64.46481142297094,75.16161019655442
658.200852343592,-101.8571769636462,-59.22318844975253,103.87559675441828,-3.8288563477986948,20.936543074009478
662.824747587809,-168.6695167323829,-172.39840435443415,45.80726911714983,-178.31088193163447,23.681606435813677
667.441619329178,-113.33331762138154,42.33009485579471,18.824760552982593,44.25370574043845,60.41998401127948
672.05147929628,-56.71852020382599,-44.39288114676757,8.614012297122457,-39.14138846189441,12.536638359762904
676.654339202636,-33.41313172347404,-158.93958414507043,-7.417716620770641,-143.9622434821362,-97.2932793243012
681.250210746879,33.39231737851803,80.8811171017486,-50.64185928153839,-80.09639623826459,-127.64501536542174
685.839105612884,77.57243560134867,38.51994550054682,-66.10137516718386,-51.65723048797708,-53.18431848772443
690.421035469903,67.23883212596317,57.47689814132805,32.17056595004539,112.8143722438413,62.957062188802254
694.996011972729,171.56903605811232,302.32562247703106,214.22413625898528,119.56544728171139,225.61255108586283
699.564046761832,429.8397795075447,506.4084889759015,428.19463862517546,296.99345252757854,473.93474129524066
704.125151463501,662.1801132094239,802.9972575508458,722.9298342197571,579.3793640684368,768.8360413204585
708.679337689982,844.700510994932,1026.0951022619513,1055.6250432791226,754.9046884603868,1016.1872230288737
713.22661703964,1064.4997689868437,1129.930360912938,1218.393249686077,1039.9289924939987,1153.1957341303482
717.767001097078,1163.4998295115718,1249.4569173242432,1123.5181532430304,1010.967065879278,1149.0989760399873
722.300501433285,961.5141974544375,1209.7860212776977,905.4091860723157,749.9095254838301,1001.3383301076532
726.827129605783,632.1523140761528,886.8136747683757,703.3879318567324,563.0156705219604,786.814236719403
731.34689715877,475.49613890366163,651.1251625690654,604.5500884401579,494.92104629012306,657.0817207182868
735.859815623244,575.8409561540585,842.7924437856943,701.3078231809006,604.7578423116963,713.550287625862
740.365896517156,780.0794851485887,1099.7677119794473,914.4499803869797,710.4077257896797,852.5564345269253
744.865151345544,809.1325115810985,1154.3719266682924,953.1977202331168,775.0144875289848,824.3774574333636
749.357591600676,555.9926957240156,970.4651836780065,709.939260973022,546.3488966807354,550.9778574154361
753.843228762184,252.68272303393945,562.9711015153151,397.4335872558331,105.85607853317487,241.59557770411035
758.322074297195,85.36419531184052,285.52360005806213,170.67713239387797,87.95305668605386,87.82099759682049
762.794139660487,15.083473713548386,29.220484008256708,39.70175078162012,55.41787650344423,76.4767545018878
767.2594362946,80.49685578701809,31.80519017999532,68.04420104682663,-171.380235534063,147.13658785014275
771.717975629996,270.0854114748286,521.5375777407805,201.6744562802139,108.16870464700492,238.9262360860876
776.169769085182,311.4812733559294,442.67213670661863,212.98702110021793,300.5095785502383,230.99922457666983
780.614828066839,98.73670321677592,0.5025788708935863,67.29242360727102,-10.376121590488282,82.71278286067295
785.05316396998,-126.96065833778704,22.057004658465317,-66.97830488416902,-120.07562332123314,-81.37468340598338
789.484788178057,-181.97995463045973,-77.12758757610627,-112.32143455856107,-101.86481254117263,-135.0822319653523
793.909712063116,-91.9119568889692,-158.4879995849456,-70.7811613165363,-117.86471319760983,-75.67635761984667
798.32794698591,80.11459775802368,117.12799711544102,61.6381922399888,85.45336175967657,41.743767064824766
802.739504296052,293.83175140592465,238.2962319814925,241.0754619356165,325.8615481384257,197.04774895603063
807.144395332138,461.1367019283869,440.88271582696547,381.1532855302428,529.6598430416791,362.8879676288571
811.542631421878,465.58654174816604,728.7399771496783,407.2420751914456,615.7816691881055,448.26004892319133
815.934223882232,349.46510227647786,403.19659202563156,322.7419855844279,320.3066830190493,414.7874415934066
820.31918401953,313.66926286265675,20.098558861465825,239.1599518770713,112.95948958788041,356.5460726676605
824.697523129624,361.61692875583236,250.15953127691697,198.61680844880888,363.0902968985629,326.85491047025903
829.069252497993,273.2047008646002,348.512629149069,103.5226171946456,448.1174418903561,265.9222166958251
833.43438339989,61.2105897857205,51.98982197176703,-20.347463226711323,172.960899976074,168.45620636004463
837.792927100469,-37.20737494609536,-52.11764182389885,-28.866493539626617,68.58595961244406,76.10252730595995
842.14489485491,4.887248641059898,23.77348582240907,37.191538471248265,63.852124528139655,-12.873964466668909
846.490297908544,50.19668484426572,25.70319260765268,52.41031461537853,-49.67793380985131,-36.00593737363887
850.829147496994,65.90714589920378,51.6736967371948,42.86471253244533,67.65690924482115,69.21541725572004
855.161454846289,70.03173297032251,225.8891243406512,35.98061413447438,306.40753309598955,151.35207105582467
859.487231173005,71.98025256447085,231.60139512995693,8.108635358487476,248.64241295349763,75.47162055831447
863.806487684371,154.84118474954738,130.11809319515805,88.66215306131949,268.00459093632014,41.98284036439392
868.119235578417,391.6292192757543,459.5201484545471,392.83400725596294,674.0491127963519,256.26944403701947
872.425486044092,659.4853338142493,738.381025234456,696.7823990496227,906.492194450496,532.8166996035056
876.725250261385,748.1050473500945,591.9069979461649,727.726402749657,761.76442641841,605.513935473916
881.018539401459,651.5971082427743,486.2651193497928,587.3063392096542,651.1368601421758,515.6334272417587
885.305364626767,484.628781920071,499.94928501633206,455.4519145382709,628.5415192779412,378.26021145084627
889.585737091185,198.7694012405805,326.07761402409176,241.1707599299952,336.4546552318873,130.83962684961327
893.859667940127,-196.39645726394372,-173.48239280517913,-44.46163620825769,-173.19201240982358,-177.51141007577644
898.127168310677,-333.0065649309927,-376.12139980619077,-63.30133173002048,-321.5625692480143,-251.0667517866981
902.388249331707,-1.391391490938048,14.95812466012876,289.89202203943313,76.80643494469587,-22.60304173251845
906.642922124003,347.0097704209309,267.2173942632652,621.9202841267012,500.1966636353857,155.77495003155585
910.891197800389,269.31119292816123,57.27694012442976,671.2364506444125,265.9829394685582,78.50741307259034
915.133087465836,25.602317071162243,-104.87294866150683,671.9208474389413,-32.92906359813992,-10.685160532767743
919.368602217606,0.8706277468145487,110.84812064598069,811.6708629453117,326.2878221360909,68.54363822321235
923.597753145354,83.21592053701363,166.90297835402987,893.74667962875,390.94157776161904,125.6042640583253
927.820551331259,73.62185790988985,74.9327911904374,816.2317512515212,111.06830409019913,43.39482403300619
932.037007850138,69.96984886614479,122.6454069015169,822.8213324517275,68.03517209798576,37.889658707837555
936.247133769581,192.47797440607218,27.334912330884436,1014.1263037955648,96.5725846020247,240.19780195539278
940.450940150044,325.3624734984673,131.31885177798995,1134.2539521127349,259.1125236589911,407.8105389023667
944.648438045002,266.90037375446707,210.8059181903463,1055.2351196725067,103.07537455767766,292.5391627057113
948.839638501038,69.75102144159848,-57.857975280326,989.4768719665369,-92.65642674498292,59.199706631214724
953.024552557976,18.03551140372167,-92.1666693150695,1065.961978462091,87.07994727274519,40.361635730228954
957.203191249007,153.46762843966565,120.39054789871471,1133.0525344934279,32.86307700531307,214.01757738169113
961.375565600785,208.83068618696996,258.55345960794654,1065.9642590708988,104.29876085982028,275.7574933698986
965.541686633571,102.12978888145301,111.69863383652785,931.8165503398816,173.28683330542577,141.08423863723726
969.701565361323,21.721804214328586,-7.411847577626872,816.5309940492493,-76.43392879647573,26.15671985021197
973.855212791839,25.086983160607474,98.55334296695463,704.7499560926587,18.750179076079746,53.566335494647205
978.002639926852,30.007828490121142,-67.4095210297015,592.4262630944904,63.062757674959016,93.28816626524252
982.143857762165,39.67485747914702,-81.32753507849687,535.1708963288256,-78.20642416647746,27.08338416545837
986.278877287752,10.977760474778336,109.87111673677705,503.78111648918735,-62.06182274517906,-78.22331929983403
990.407709487881,-128.435186613689,-150.42346200825637,423.108766776212,-123.08629193531387,-105.33464113104318
994.53036534123,-199.6372677014626,-109.35977947893397,348.8442865075789,24.48951544942691,-21.424375412376946
998.646855820994,82.79761957451467,233.6989174345407,463.7463320685435,270.5983018326147,230.1585668882746
1002.75719189501,756.3381777766264,609.1325848987606,963.6352096072789,737.2260420132691,784.9513212695697
1006.86138452586,1502.8022837225624,1579.9452948046253,1724.5688130318113,1634.985024515428,1497.6558485127655
1010.95944467101,1819.7245609483293,2002.4137682637506,2133.9935135986466,1854.329215601593,1823.3072605899356
1015.05138328288,1504.1373368282439,1492.5496201635417,1783.1674570438013,1383.9615347879844,1477.9550725580584
1019.13721130899,875.9804242780936,972.1300271914814,1019.8135262113664,869.0272823834705,810.1615103895832
1023.21693969209,341.23507268018136,443.0195573546512,387.37605213485176,293.11078950007345,276.22080124935275
1027.2905793702,40.3195086796746,119.924672279104,63.4208688691097,1.5369403202682292,10.113348692445093
1031.3581412768,-53.970643240084385,14.18191207327182,-19.0731012938773,22.088786071364197,-62.962364745561054
1035.41963634092,-36.928216226857785,-79.55467685573785,-9.195170262978209,22.91903357496855,-37.08557612772708
1039.47507548723,-12.61267426016704,-53.37054200771392,-17.841184943995387,-77.83524744429849,57.68424646544521
1043.52446963617,41.30576800547374,1.1656372084688584,13.264218645375252,62.58399466163455,231.13359535474018
1047.56782970403,220.01942432187252,192.2801270209218,149.48914137451803,397.99140492877393,444.71625853489917
1051.60516660314,496.51011626328796,467.86519582320807,338.9511934093947,399.3207100297693,664.4446505056717
1055.63649124187,824.6001142844328,808.2266784382296,644.5968078913892,737.6900181476426,1032.816216659008
1059.66181452483,1469.307484839031,1582.3356039210098,1399.4686351499065,1718.8949396844177,1913.7468013258601
1063.68114735294,2951.562262411089,3032.644427394252,2996.2892931295783,3124.7667722725887,3649.432423561926
1067.69450062355,5380.362110925803,5504.592477410483,5427.837502825808,5867.216049363523,6128.69444660527
1071.70188523054,8016.153177847608,8114.272897298207,8018.789516880038,8757.887454035508,8662.376345701607
1075.70331206442,9792.840580013435,9620.21390732619,9806.725003166566,10068.09498231607,10345.216471156977
1079.69879201248,9996.563008269342,10160.009471273848,10098.987213998747,10422.103545292966,10428.999138685167
1083.68833595885,8496.117211188088,8890.969054250369,8699.500636075552,9076.085169132979,8698.289135689018
1087.67195478464,5905.881747660146,5912.119902328321,6115.607705479562,5993.660713018554,5868.685634226346
1091.64965936803,3311.765861913203,3476.74160362182,3448.439507758496,3412.8507081547978,3200.5537755629584
1095.62146058439,1495.8763297840192,1764.886509516697,1591.2195197383437,1701.035190946471,1493.1169009865828
1099.58736930637,609.6729873737208,505.3745853430536,669.2660721615787,665.5803963191614,724.6268509312017
1103.54739640402,336.24512084875767,247.256227479862,306.25019917540976,413.64248479053623,438.47353788560486
1107.5015527449,196.02836585367652,131.74320420838376,113.0942597485089,249.59399911674512,214.58130438802178
1111.44984919419,0.5573595965439608,-99.48395596356852,-29.805446392807823,-8.228680560950835,-5.037440627881324
1115.39229661475,-77.99270380936218,-119.0541878538362,-5.834604388615105,-24.49624911157673,-19.36277190581376
1119.32890586729,70.8302745831669,103.45125744131667,227.13130444165392,483.955426715571,206.4842250712013
1123.25968781045,393.41646633040466,569.2124535320604,572.6325409569899,998.961729365228,572.9024815650262
1127.18465330088,1024.5712031389876,925.0110325373071,1153.9360540461687,1353.9694972910306,1290.0022245214288
1131.10381319339,2300.477844527388,2148.6396953781923,2344.628847643355,2648.458522039801,2734.514510759895
1135.01717834101,4171.279303126492,4339.021017222771,4152.464465340424,4594.655039073375,4692.079283153179
1138.92475959512,5863.759679302063,5987.254554588156,5837.562273020535,6189.466098257863,6197.671435526804
