Raman shift cm-1,4ATP_1nM_rep1_acc4_processed_intensity
-93.47115107,524.2621356507251
-87.69374369,26.57693468226192
-81.9253076,25.464219611799834
-76.16582701,67.03556965826412
-70.41528615,1.3255778178680124
-64.67366933,-102.93326597336316
-58.94096086,-38.288153266945045
-53.21714512,44.11679383517193
-47.50220652,22.095082257177502
-41.79612954,122.15389742756255
-36.09889866,185.51458895089928
-30.41049843,175.11971576369484
-24.73091343,138.8167347213525
-19.0601283,98.34899842681256
-13.39812769,107.03461839768879
-7.744896327,29.243076500673638
-2.100418946,36.371467899982136
3.535319659,156.31597032792146
9.162334658,79.98694336343223
14.78064118,-36.012090450953615
20.39025432,-4.632364173689973
25.99118913,105.57031194666143
31.58346061,196.71063465549346
37.16708375,131.35911900642614
42.74207347,43.861687588764774
48.30844468,65.52229417040576
53.86621222,12.393754718282905
59.41539093,-67.23989992073119
64.95599558,-37.478781366427796
70.48804091,95.27350384469727
76.01154164,133.3751204741603
81.52651243,29.996118308057007
87.03296792,113.9774346948117
92.5309227,133.11711793485853
98.02039134,-6.588055264104542
103.5013884,75.91437390133856
108.9739282,169.1846844050833
114.4380255,41.89751156778529
119.8936944,145.93219946481835
125.3409495,372.40843186014894
130.779805,142.8931366377731
136.2102753,-45.36784909561181
141.6323747,30.610336751864047
147.0461174,100.89467563864909
152.4515176,130.41832459044753
157.8485895,9.557080035077608
163.2373472,-56.48958811988542
168.6178049,41.90835330135397
173.9899766,201.3177325276452
179.3538764,169.53121822373598
184.7095182,67.44186345021389
190.0569161,191.25585687212555
195.396084,188.63022678361722
200.7270358,82.57440044129552
206.0497854,16.474190215136865
211.3643466,23.124139898943323
216.6707333,149.49088078507498
221.9689593,65.49630589822851
227.2590382,-39.66182849399578
232.5409839,12.003952068179714
237.8148101,27.952375282881768
243.0805303,1.8311514857072098
248.3381582,-3.626427940886529
253.5877075,24.988679208470522
258.8291917,-28.699387057428574
264.0626244,-50.42215460106725
269.288019,33.713132050784125
274.5053891,57.238174265342465
279.7147481,-12.747383315386415
284.9161094,-18.410133561519075
290.1094865,108.356333318288
295.2948927,673.0642303277199
300.4723414,2154.8582708286917
305.6418459,4027.7031485353846
310.8034194,5606.488544068524
315.9570752,6641.652850335036
321.1028267,6900.779251152086
326.2406869,6837.571200050581
331.370669,6984.669124577539
336.4927863,7103.842189997493
341.6070517,7050.803399445874
346.7134786,7239.475380918793
351.8120798,7283.860836990268
356.9028684,6950.423924528149
361.9858576,6983.71975483869
367.0610602,6956.2975588131085
372.1284892,6813.572160173189
377.1881577,7021.819321886838
382.2400784,7253.0636947823195
387.2842644,7973.576418579747
392.3207284,8587.550293446437
397.3494833,8213.565796766765
402.370542,7617.458491497944
407.3839172,6804.2094290067935
412.3896217,5989.8383439224235
417.3876683,5560.99724234313
422.3780697,5114.779660915102
427.3608386,4870.247948466795
432.3359876,4659.536442976725
437.3035295,4511.033144006116
442.2634769,4407.731850744072
447.2158423,3951.6321618443985
452.1606383,3689.043616728467
457.0978776,3436.0313535935447
462.0275727,3207.5197263469895
466.9497361,3188.0724115741696
471.8643802,2979.0553992010523
476.7715176,2893.18728528234
481.6711608,2903.82278830925
486.5633221,2870.577865326699
491.448014,2692.3593968757855
496.3252488,2404.0604511479646
501.195039,2336.1284236007136
506.0573969,2315.2010760755174
510.9123349,2095.8058598952794
515.7598651,1795.6980307961635
520.6,1639.4805882273477
525.4327518,1593.3026113339242
530.2581327,1459.9319162249303
535.076155,1167.172288792051
539.8868309,1001.2859676233124
544.6901726,919.784542350109
549.4861922,943.9206463191776
554.2749019,1103.6765631498133
559.0563139,853.607457564337
563.8304402,654.3580042478907
568.597293,831.362588471161
573.3568844,714.1741982418007
578.1092263,424.94435898275106
582.8543308,480.9398729896602
587.5922101,502.50281038074627
592.322876,351.07374435896327
597.0463405,479.6973817477028
601.7626157,363.68195521453754
606.4717135,26.911434579153138
611.1736458,39.58207877941277
615.8684246,135.93545272595338
620.5560617,198.94359151250455
625.2365691,120.40579421999746
629.9099585,202.47043595454988
634.5762419,311.53839197301386
639.2354312,144.30429115851257
643.887538,148.65653641343079
648.5325743,132.0408333723717
653.1705518,151.05100107079443
657.8014823,21.429503043526893
662.4253775,-104.04194423620083
667.0422493,94.42502042249225
671.6521092,33.38599145772696
676.2549691,-20.27725953420304
680.8508407,-38.073827955367506
685.4397355,-0.8555730464163389
690.0216654,36.93029508518475
694.5966419,59.73177471831514
699.1646767,231.0110156759638
703.7257814,117.2678698234804
708.2799676,120.30178793967252
712.827247,184.88280636160653
717.367631,85.67269732283194
721.9011314,16.00234545551757
726.4277595,-0.5353818345361105
730.9475271,62.91968648112061
735.4604456,114.90202424959216
739.9665264,143.87684329441117
744.4657813,26.41411285676395
748.9582215,31.956994358683914
753.4438587,-13.314121653845632
757.9227042,-39.70375726309476
762.3947696,30.555944308700646
766.8600662,-10.518797251604155
771.3186056,177.01053822085282
775.770399,131.3411600494196
780.215458,44.66218571502259
784.6537939,84.74902244854093
789.0854181,-49.94492003460164
793.510342,73.63380812464743
797.9285769,221.3644050009226
802.3401342,192.110911707897
806.7450253,221.48069614403914
811.1432614,174.64569535846204
815.5348538,-17.375179990864012
819.9198139,-24.41276116573715
824.2981531,171.73379233947992
828.6698824,159.89890955828776
833.0350133,27.297704824274547
837.393557,64.29866126111216
841.7455248,65.25114042848742
846.0909278,4.39049974388314
850.4297774,5.943759247251364
854.7620848,-5.162861426844017
859.0878611,1.4145533394413405
863.4071176,-2.251829768031513
867.7198655,68.18665454863506
872.026116,298.06214464992536
876.3258802,405.2437263869995
880.6191693,272.54092078753774
884.9059946,257.1690304639059
889.186367,205.11764559135102
893.4602979,-9.042309859102984
897.7277982,-29.494307266764892
901.9888793,99.84268418106186
906.2435521,345.09252969472277
910.4918277,276.7974786045223
914.7337174,-17.195308907246567
918.9692321,82.06827783336044
923.1983831,134.81679551102965
927.4211813,148.95832172345902
931.6376378,165.271378414866
935.8477637,40.51673151918945
940.0515701,186.76188085237789
944.249068,188.9837443319883
948.4402684,13.132571186211635
952.6251825,-31.394614758648537
956.8038212,36.883435153479404
960.9761955,247.96542913860168
965.1423166,162.91964003954376
969.3021953,58.182748066657545
973.4558427,114.62127417416664
977.6032699,2.466530019695284
981.7444877,-20.370161873323774
985.8795072,45.40087644585987
990.0083394,-26.185629743662982
994.1309953,12.376473422050381
998.2474857,61.46434870932832
1002.357822,-71.98251865668989
1006.462014,22.062686250068918
1010.560075,92.80551235645639
1014.652013,22.907554008383606
1018.737841,62.97464257316367
1022.81757,43.88505454235934
1026.891209,-2.4468088580190095
1030.958771,-37.712239652729906
1035.020266,18.856882656145856
1039.075705,8.205755453814891
1043.1251,-41.227933506076866
1047.16846,114.39588235937529
1051.205797,28.932839477412713
1055.237121,-25.09282546002254
1059.262444,144.92298610057355
1063.281777,188.95674138749825
1067.295131,881.0566027132139
1071.302515,1775.7645958576145
1075.303942,2336.257521272297
1079.299422,2818.4415493649576
1083.288966,2388.1424947435557
1087.272585,1394.6066180174066
1091.250289,687.7461746990334
1095.222091,375.7439619761957
1099.187999,138.39718865889876
1103.148026,31.628552787192312
1107.102183,141.82784046542127
1111.050479,-18.928681913745237
1114.992927,94.71869269773063
1118.929536,167.02137875887655
1122.860318,124.8491503363199
1126.785283,355.469932561059
1130.704443,458.42923561815627
1134.617808,870.4337252720695
1138.52539,1036.0876407166033
1142.427198,969.2400771446544
1146.323244,811.4421845836443
1150.213538,524.51162652977
1154.098093,734.1051873589422
1157.976917,411.80054060404484
1161.850023,303.46916548428015
1165.717421,713.9184348127958
1169.579121,641.7664823759386
1173.435135,757.5033618989968
1177.285474,784.543004031011
1181.130148,791.9134651568223
1184.969169,897.2950479640891
1188.802547,806.9011939079048
1192.630292,508.8852257677898
1196.452416,235.30837438590981
1200.26893,246.11416876524785
1204.079844,-17.453956327896748
1207.88517,-14.177038259523115
1211.684917,100.48892051956767
1215.479098,150.47253636445302
1219.267722,421.6757218706564
1223.050801,31.185508254024533
1226.828346,-19.354061729463268
1230.600366,294.46954846648345
1234.366874,169.94083685988295
1238.12788,232.07766636481742
1241.883395,148.05746658525518
1245.633429,177.44555792231228
1249.377994,243.5750594642233
1253.1171,38.71656755163674
1256.850759,129.33307531167833
1260.578981,80.28534324898752
1264.301776,20.724837468760253
1268.019157,154.95551742574406
1271.731133,3.1672168526441986
1275.437715,16.204956097675524
1279.138915,185.7086670614667
1282.834743,205.1603721284824
1286.52521,106.23245055150227
1290.210328,-93.35136024521789
1293.890106,85.41913258516173
1297.564555,197.4778666618707
1301.233688,79.13504273459057
1304.897514,145.22263839934706
1308.556044,166.41499250622272
1312.209289,166.9467974288195
1315.857261,-53.41893965416165
1319.499969,45.74906414623068
1323.137425,309.8514084492102
1326.769641,236.87442239618554
1330.396626,394.7676220302156
1334.018391,304.9846703078629
1337.634948,211.40852318534843
1341.246307,222.65467663882757
1344.85248,45.97313817433064
1348.453477,113.69918594935177
1352.049309,3.643876394160941
1355.639987,20.712430795969254
1359.225522,269.2247404943462
1362.805925,185.580330304274
1366.381207,195.29168100067366
1369.951379,216.38529304338158
1373.516452,233.58965927537668
1377.076436,448.1205947300763
1380.631343,522.8909838463027
1384.181184,596.4630632212472
1387.725969,623.4962192004242
1391.26571,513.2952170027287
1394.800417,458.81901688353395
1398.330102,400.44250167041133
1401.854776,344.0230525855904
1405.374448,257.57429355074044
1408.889132,118.45685094584438
1412.398837,-69.33875866614244
1415.903574,-1.8761081156434258
1419.403355,329.0958514872627
1422.89819,317.2033616911198
1426.388091,363.9826599850442
1429.873069,547.3829623532388
1433.353134,432.5320570743594
1436.828298,367.77346188027957
1440.298571,226.884541544156
1443.763965,46.1925759154477
1447.224491,-4.445869940406969
1450.68016,26.315463905669738
1454.130983,17.611129600222164
1457.576971,-23.78384093944667
1461.018135,165.67059754655102
1464.454486,160.09299494019547
1467.886036,22.68980110814183
1471.312794,-62.276547556438494
1474.734774,-36.80621266003068
1478.151985,156.9820411685256
1481.564439,141.5765032176522
1484.972146,58.57240099577912
1488.375119,21.895573018738396
1491.773368,151.91781186703417
1495.166904,198.4865277718629
1498.555739,39.024431491558865
1501.939883,38.44259686348307
1505.319349,23.58139961542259
1508.694146,-43.37338756350684
1512.064286,83.07898659421785
1515.429781,191.73043451326046
1518.790642,28.28695368233169
1522.146879,85.22235421955735
1525.498505,12.239420451491707
1528.845529,-73.3776261061353
1532.187965,243.7506673556362
1535.525822,104.63790615810977
1538.859112,195.3067339601456
1542.187846,404.64744492759405
1545.512036,264.38886443079616
1548.831693,551.1969849085355
1552.146829,538.360176268473
1555.457453,311.87717409145944
1558.763579,455.82644169854035
1562.065216,607.860228455477
1565.362377,872.0707979090088
1568.655073,1075.138761383464
1571.943315,1043.16149074026
1575.227114,1120.2824605047388
1578.506482,1355.5724056157107
1581.781431,1469.3664079151374
1585.051971,1444.9405271221376
1588.318114,1419.5167550763126
1591.579872,1284.781465720658
1594.837255,1029.2411663394007
1598.090275,669.9644666521098
1601.338945,461.86664485666336
1604.583274,439.839611718623
1607.823275,179.67925354025598
1611.058959,16.67676505319696
1614.290338,6.488191848365883
1617.517422,-55.12880744833478
1620.740224,121.70741581034363
1623.958755,248.56749270736617
1627.173027,34.44086046830931
1630.38305,2.986232235052057
1633.588838,98.03044491365645
1636.7904,15.194667925130759
1639.987749,185.42901433098461
1643.180896,158.29530593334547
1646.369853,32.089655817626195
1649.554632,238.29011817422023
1652.735244,143.0822638643256
1655.9117,-25.77923950176176
1659.084013,99.6566996184334
1662.252193,197.82948491197715
1665.416254,-11.22582235075765
1668.576205,-47.4167342005905
1671.732059,245.72616433644956
1674.883828,197.47259320111684
1678.031523,30.703780838500244
1681.175157,94.47566322451098
1684.314739,63.23726227974417
1687.450284,16.566052089816655
1690.581801,78.00810540534758
1693.709304,-29.349189014208818
1696.832803,3.438065740096917
1699.952311,161.37249171344246
1703.067839,38.517367425684725
1706.179399,103.62222144917698
1709.287003,247.26663894720778
1712.390663,85.39380854323814
1715.49039,80.0035409563531
1718.586197,218.04907428378863
1721.678095,121.11781744546548
1724.766096,-12.68072796814819
1727.850213,-30.436880066643397
1730.930456,20.459508835693455
1734.006838,144.46936002517316
1737.079372,96.23037490808194
1740.148067,141.29951450407012
1743.212938,328.3601079090371
1746.273996,219.5192750288617
1749.331252,117.24682798891519
1752.384718,151.81627184616195
1755.434408,194.5309463841123
1758.480332,128.84146548129445
1761.522503,77.1048092566626
1764.560933,42.68655300884295
1767.595634,-71.49314452908246
1770.626618,145.79981534328417
1773.653896,219.81103229467791
1776.677482,6.14591168819301
1779.697388,80.07348079424582
1782.713625,169.8517733966113
1785.726205,193.85384655663887
1788.735141,204.61222973300687
1791.740445,41.103852761397
1794.742129,11.789628898417204
1797.740206,238.47203329196938
1800.734687,294.37047045745885
1803.725585,199.78260936478588
1806.712912,174.61598870488498
1809.69668,84.79060703118371
1812.676902,-6.096039619497818
1815.65359,-46.472345515812734
1818.626756,-44.73565876589118
1821.596413,21.31347298027728
1824.562573,30.16221838618852
1827.525247,2.2925906688548903
1830.48445,27.613663070635344
1833.440192,7.4824303809919535
1836.392487,-20.1267760563244
1839.341347,75.50477070483451
1842.286784,39.929614671635626
1845.22881,-56.221718251685786
1848.167439,20.241329543366824
1851.102682,64.69570420451235
1854.034553,5.823550013541519
1856.963063,23.491068273295426
1859.888226,204.38022289854004
1862.810053,169.68384140711703
1865.728557,-13.046197463914243
1868.643751,40.75361366158114
1871.555648,-49.33213250954962
1874.46426,-77.03052369980762
1877.369599,147.42433762843146
1880.271679,31.26335506819095
1883.170512,-6.880484927779442
1886.06611,162.13093088475136
1888.958487,40.35115950980708
1891.847655,-6.4392325339935645
1894.733626,43.24700368962296
1897.616414,-26.99529415121505
1900.496032,-32.66018630627609
1903.372491,-14.255682721120888
1906.245805,23.92899487397774
1909.115987,101.33765323783658
1911.983049,44.48983933290944
1914.847004,-33.28507489481542
1917.707866,8.20627319779285
1920.565646,44.32013715719314
1923.420359,11.118904664410286
1926.272016,-38.17510309634004
1929.120631,-19.15748292774692
1931.966216,-12.802608222561052
1934.808786,-19.851697285617437
1937.648351,58.91603100446026
1940.484927,84.86083740520817
1943.318525,44.94712504918669
1946.149158,235.69159863123718
1948.97684,396.4406977889152
1951.801584,139.69726335174147
1954.623403,74.74969183327673
1957.44231,173.14637607047075
1960.258318,-18.264860143421615
1963.071439,-14.759671033764405
1965.881688,153.84884337097768
1968.689078,126.21042506121003
1971.493621,17.012600170829728
