Raman shift cm-1,4ATP_10pM_rep1_acc1_processed_intensity
-93.47115107,450.0081758736684
-87.69374369,76.7692555292349
-81.9253076,-61.472973945980286
-76.16582701,60.05698859672702
-70.41528615,157.80952208662978
-64.67366933,-51.84381501296256
-58.94096086,-123.45788893240415
-53.21714512,-26.113477118394897
-47.50220652,14.958362341271343
-41.79612954,75.4329814501041
-36.09889866,153.66981980150877
-30.41049843,243.03572961546283
-24.73091343,141.69538485046414
-19.0601283,21.847743407538957
-13.39812769,46.886786472800864
-7.744896327,-21.794539552047667
-2.100418946,51.76243418451945
3.535319659,145.8052595624003
9.162334658,-24.912599795396687
14.78064118,-25.073503487939057
20.39025432,-15.458554769012537
25.99118913,41.60684775764764
31.58346061,297.80444353629906
37.16708375,185.24488209837642
42.74207347,12.652197825995263
48.30844468,4.011620796203405
53.86621222,-35.49722461340752
59.41539093,-26.581061979988057
64.95599558,-78.64035036180411
70.48804091,46.62838995701206
76.01154164,120.20512916776211
81.52651243,-97.64080049579393
87.03296792,78.73087548055301
92.5309227,276.89111673299607
98.02039134,35.276120374470196
103.5013884,18.57615903445607
108.9739282,84.80421072107413
114.4380255,3.7142020603739354
119.8936944,128.48142917635903
125.3409495,274.58351911209536
130.779805,143.2220596683025
136.2102753,-118.60005502512507
141.6323747,-14.24741030174168
147.0461174,181.60484674838276
152.4515176,3.7570440821796467
157.8485895,-16.32113097887868
163.2373472,-2.4459833931721775
168.6178049,-45.31045104670237
173.9899766,81.00600802967593
179.3538764,-8.578811025627587
184.7095182,14.369258381174546
190.0569161,188.19103539691207
195.396084,78.0137187627985
200.7270358,0.8016166790042689
206.0497854,19.935075214732294
211.3643466,1.5862001895649414
216.6707333,27.260157646716834
221.9689593,7.031714318864498
227.2590382,-37.3218348280074
232.5409839,-54.39962905652161
237.8148101,-35.35936012957036
243.0805303,18.575696063330454
248.3381582,-24.63598682326686
253.5877075,-0.023998082319366176
258.8291917,110.77847890620936
264.0626244,79.19864629043875
269.288019,79.22849604459554
274.5053891,81.46086433319441
279.7147481,-64.25712870382588
284.9161094,-151.28275308042996
290.1094865,-55.45750473004095
295.2948927,351.8508320845657
300.4723414,1094.0213428621219
305.6418459,1999.019994394441
310.8034194,2967.898049065302
315.9570752,3563.67162689885
321.1028267,3717.472897419371
326.2406869,3772.777203661254
331.370669,3633.166951544731
336.4927863,3605.5919826247487
341.6070517,3679.68966739004
346.7134786,3650.559724810039
351.8120798,3647.2844486209415
356.9028684,3355.947906214588
361.9858576,3243.8262722161544
367.0610602,3285.6173772316324
372.1284892,3006.1273484946632
377.1881577,3098.887790513225
382.2400784,3441.1419703791826
387.2842644,3779.2282730886695
392.3207284,4072.6913865098477
397.3494833,3742.9361105007715
402.370542,3114.4401520808974
407.3839172,2473.384528874768
412.3896217,1816.259581087324
417.3876683,1497.6566603328274
422.3780697,1270.7942233680637
427.3608386,945.4719595019578
432.3359876,808.047859245486
437.3035295,886.1994518578999
442.2634769,708.2389452567422
447.2158423,313.3175034567075
452.1606383,275.58802522277847
457.0978776,224.10414063209828
462.0275727,81.56009561393103
466.9497361,53.973549516027106
471.8643802,-5.952923024464781
476.7715176,125.47004195075397
481.6711608,195.86933452948824
486.5633221,164.1455967447323
491.448014,127.60748725687608
496.3252488,-30.444178619606646
501.195039,52.2112687623935
506.0573969,191.04717227356696
510.9123349,16.530756120573187
515.7598651,-107.94670772252766
520.6,23.1616166225931
525.4327518,139.8224615445779
530.2581327,32.47252972799333
535.076155,-125.58312617098636
539.8868309,52.091974140448656
544.6901726,125.40115712842635
549.4861922,54.71441454059959
554.2749019,308.3537777573297
559.0563139,64.8153184002249
563.8304402,-116.91444505880554
568.597293,355.3896476582445
573.3568844,162.58728451630031
578.1092263,-49.141798291214855
582.8543308,270.96854826079334
587.5922101,146.38847012585984
592.322876,44.489683007004714
597.0463405,176.35030391446344
601.7626157,13.253643850893695
606.4717135,-82.11743242406465
611.1736458,-9.720391086799282
615.8684246,60.510006296706706
620.5560617,134.6672342773304
625.2365691,6.390774857093902
629.9099585,67.81442249463566
634.5762419,169.76886122067617
639.2354312,-16.755416558105935
643.887538,79.12295310500576
648.5325743,117.20519879688072
653.1705518,39.6288430959321
657.8014823,-6.019442828709771
662.4253775,-201.31107998585662
667.0422493,-87.75938656476933
671.6521092,32.13997369385538
676.2549691,7.942144879308671
680.8508407,35.13090264221614
685.4397355,-8.526370497153039
690.0216654,14.425748533843034
694.5966419,22.02348230430698
699.1646767,80.66005878766555
703.7257814,158.0656371198877
708.2799676,128.0120605576335
712.827247,200.15078427219896
717.367631,195.48474323294522
721.9011314,2.7545425731022988
726.4277595,13.0426101501032
730.9475271,146.54176161733676
735.4604456,175.69936772708195
739.9665264,203.74903699030665
744.4657813,277.77393859061317
748.9582215,187.90469572301345
753.4438587,-89.23056437333969
757.9227042,-9.067664161915104
762.3947696,0.5982319941463174
766.8600662,53.73324647449056
771.3186056,453.87200318465943
775.770399,327.20900278340514
780.215458,212.49497356520112
784.6537939,77.23207963370896
789.0854181,-124.25588339426895
793.510342,209.5639792746848
797.9285769,324.345201497939
802.3401342,184.37468464740948
806.7450253,173.9195114697045
811.1432614,226.09957457389106
815.5348538,157.13705229901325
819.9198139,25.707497715754926
824.2981531,49.488674728656804
828.6698824,33.6709995593591
833.0350133,28.542923212822956
837.393557,12.909762825711994
841.7455248,-43.26991889651039
846.0909278,-42.18467536969844
850.4297774,-76.360996188593
854.7620848,-36.23888379952129
859.0878611,44.36857546804192
863.4071176,22.664598354818533
867.7198655,14.534661931534359
872.026116,200.37998266610785
876.3258802,326.1943641677937
880.6191693,167.59984643928811
884.9059946,184.1444234595512
889.186367,257.6326794365607
893.4602979,60.858646520144546
897.7277982,-69.68442468305902
901.9888793,4.505348693691774
906.2435521,146.62669822441134
910.4918277,30.503425987656733
914.7337174,-140.53515065175358
918.9692321,45.42572293030864
923.1983831,49.17720465700132
927.4211813,-22.34682049917258
931.6376378,121.08170707207805
935.8477637,84.52570945165094
940.0515701,151.22003508502155
944.249068,72.91721253828827
948.4402684,-158.67752724892125
952.6251825,15.86915643927189
956.8038212,147.5612975883853
960.9761955,149.14616764184615
965.1423166,139.14786331337137
969.3021953,78.5486718894346
973.4558427,73.25915320061853
977.6032699,-88.25807898913146
981.7444877,-80.8650086222386
985.8795072,173.46680740666923
990.0083394,47.1960201970158
994.1309953,-4.7794100634132235
998.2474857,45.01132599865569
1002.357822,-87.10418615812983
1006.462014,37.484208844226
1010.560075,54.92362728963552
1014.652013,115.85966620817919
1018.737841,159.72196450367932
1022.81757,-43.858547271930604
1026.891209,-14.658805362551938
1030.958771,2.4181450533646327
1035.020266,60.889935707251524
1039.075705,26.43785352122528
1043.1251,-98.60895994959553
1047.16846,51.2793071446027
1051.205797,-17.60465170090726
1055.237121,-64.31746104604095
1059.262444,22.383746690465294
1063.281777,38.6553809776182
1067.295131,673.1555189227792
1071.302515,1399.4498003752324
1075.303942,1673.0461262491358
1079.299422,1858.3663176419573
1083.288966,1498.4027544737269
1087.272585,789.971371892311
1091.250289,361.9563053163119
1095.222091,143.12470703714408
1099.187999,82.58446552420628
1103.148026,31.676215337533492
1107.102183,-81.74693735310922
1111.050479,-75.38011709893944
1114.992927,-63.36532328117089
1118.929536,-22.531138424636083
1122.860318,184.0175493709475
1126.785283,84.67653495949611
1130.704443,253.4858707622265
1134.617808,890.3164873702121
1138.52539,914.5442641990302
1142.427198,846.5873293792815
1146.323244,654.1313018133483
1150.213538,328.04384610270944
1154.098093,381.61985500402085
1157.976917,33.17049528864453
1161.850023,-94.69953097092707
1165.717421,76.73721528363757
1169.579121,79.52981423925735
1173.435135,176.87792049289442
1177.285474,29.332875221678847
1181.130148,141.14900837894845
1184.969169,375.0319846137432
1188.802547,346.07753120717996
1192.630292,195.08530892230587
1196.452416,58.93958276512282
1200.26893,46.377768320729714
1204.079844,-164.81702099314097
1207.88517,-83.17129214068169
1211.684917,-33.51315932867196
1215.479098,54.72214783742661
1219.267722,372.0661301358502
1223.050801,-10.403566816144284
1226.828346,-27.614438307865246
1230.600366,234.95381474176205
1234.366874,73.25003585792427
1238.12788,134.28077143249067
1241.883395,163.6388046659118
1245.633429,312.50881299478823
1249.377994,332.56098905337734
1253.1171,-7.816227136872719
1256.850759,-1.7600657947455396
1260.578981,109.81059914703665
1264.301776,27.022671189277265
1268.019157,61.12702121681489
1271.731133,-10.506417496929165
1275.437715,-78.35386633947257
1279.138915,198.32710671479347
1282.834743,232.11974842839203
1286.52521,14.579244561259555
1290.210328,-90.459721327608
1293.890106,-3.1682258385841635
1297.564555,158.73919683975998
1301.233688,78.86498525563988
1304.897514,60.82746508059008
1308.556044,204.83785323230637
1312.209289,145.81497222255123
1315.857261,-85.76994651313024
1319.499969,26.105245107603352
1323.137425,175.42316984302505
1326.769641,161.1898740095412
1330.396626,242.26104675671309
1334.018391,5.614651405566015
1337.634948,-18.367777987818783
1341.246307,72.68863744024893
1344.85248,-39.82168972317709
1348.453477,44.3555387511777
1352.049309,-66.70855722528188
1355.639987,19.421603407889283
1359.225522,238.52259861241205
1362.805925,179.9059896906674
1366.381207,207.87838956432464
1369.951379,265.41710127381265
1373.516452,364.41978092911467
1377.076436,392.6925406606453
1380.631343,385.1460016108923
1384.181184,487.3187877525484
1387.725969,529.5567707394092
1391.26571,446.4938320620998
1394.800417,379.9334569241771
1398.330102,439.7931148671043
1401.854776,372.33175734048143
1405.374448,167.56732991135777
1408.889132,-5.340085608209485
1412.398837,-77.19374915631886
1415.903574,78.56319053980636
1419.403355,337.5240177950353
1422.89819,468.2495945475208
1426.388091,590.9590497034592
1429.873069,680.0434230780878
1433.353134,608.5487533754258
1436.828298,508.5381250328672
1440.298571,305.7621826889978
1443.763965,133.6458485068651
1447.224491,-14.973027312524367
1450.68016,-3.635868821254683
1454.130983,115.63920987432743
1457.576971,-18.977408050145044
1461.018135,123.18293526195667
1464.454486,177.81245975017697
1467.886036,-30.259821183410565
1471.312794,12.38182062371105
1474.734774,26.81531039453302
1478.151985,70.53430076906241
1481.564439,56.52314519787568
1484.972146,-48.04140547683896
1488.375119,-49.04534630486723
1491.773368,56.33712258106629
1495.166904,127.49007583629775
1498.555739,1.1715192249386845
1501.939883,-74.23460997261289
1505.319349,-50.7405621407003
1508.694146,-21.088438464541404
1512.064286,69.04165124456823
1515.429781,81.67386346614104
1518.790642,37.98928927868327
1522.146879,140.11441333564932
1525.498505,-17.444821866737726
1528.845529,-184.41718436857028
1532.187965,2.259004366487922
1535.525822,5.646249098291456
1538.859112,140.12899322824944
1542.187846,168.1785011178709
1545.512036,50.795482765523275
1548.831693,265.95428452300723
1552.146829,188.6595949331709
1555.457453,27.856589584152545
1558.763579,-14.681661515265318
1562.065216,57.57023302579782
1565.362377,379.93000773319915
1568.655073,486.6218802879324
1571.943315,481.05687161261574
1575.227114,490.48915972982525
1578.506482,587.6926248532936
1581.781431,784.3376053275846
1585.051971,749.8858293553634
1588.318114,722.0793399312216
1591.579872,756.7765040514843
1594.837255,602.9115537509338
1598.090275,383.06639638069873
1601.338945,345.0085350725964
1604.583274,303.43653636823035
1607.823275,-26.22557675320345
1611.058959,-44.57229199356949
1614.290338,75.6871647148314
1617.517422,-140.5551428552149
1620.740224,-23.123005555612053
1623.958755,180.8736114189262
1627.173027,51.44805321110255
1630.38305,51.62785407752655
1633.588838,73.718800590562
1636.7904,20.257430581749418
1639.987749,181.97065098580885
1643.180896,131.5021144263821
1646.369853,-34.23014004465294
1649.554632,206.2138641362121
1652.735244,181.7349133219075
1655.9117,-47.53386547751521
1659.084013,190.4879464140091
1662.252193,284.9343277859451
1665.416254,2.080281198433001
1668.576205,18.742539544049553
1671.732059,213.24131041439455
1674.883828,140.6283804789683
1678.031523,5.365705321500294
1681.175157,11.113181255106923
1684.314739,-20.12346778458513
1687.450284,-71.97040516246875
1690.581801,34.11244356457594
1693.709304,-4.1257199852589
1696.832803,-99.78989129433843
1699.952311,40.7780413266187
1703.067839,30.82577316328984
1706.179399,30.985170339563176
1709.287003,83.73442110059636
1712.390663,-34.72516870221096
1715.49039,51.55879071892074
1718.586197,85.26854623935776
1721.678095,-8.397990107612436
1724.766096,3.495844029522317
1727.850213,-115.80859317803325
1730.930456,-98.7785405364946
1734.006838,28.658286430118835
1737.079372,-50.85461492224833
1740.148067,84.9948934455716
1743.212938,283.95782067679295
1746.273996,117.94946014352257
1749.331252,-30.526055734808367
1752.384718,-18.313135583902966
1755.434408,70.46748362270878
1758.480332,118.2044293754468
1761.522503,47.714818634010996
1764.560933,-57.060313214827296
1767.595634,-121.17703547118025
1770.626618,66.39253181615193
1773.653896,128.65772894995365
1776.677482,-55.03047869901566
1779.697388,28.35772765835793
1782.713625,83.60174860438524
1785.726205,55.88942640391484
1788.735141,145.19578033320073
1791.740445,-23.695751397937784
1794.742129,-42.31826554809143
1797.740206,223.6236798691216
1800.734687,207.48675271914684
1803.725585,110.6385644037254
1806.712912,41.33022271538195
1809.69668,66.99082645946521
1812.676902,79.83280786178034
1815.65359,-139.27663704987737
1818.626756,-96.34184272236085
1821.596413,-15.28122479963185
1824.562573,-68.23556947540999
1827.525247,50.00074477237031
1830.48445,36.35066221308467
1833.440192,-27.645239383833022
1836.392487,1.9872861066695222
1839.341347,52.99281758326178
1842.286784,57.697065187319815
1845.22881,-19.704417136747516
1848.167439,79.9871009849106
1851.102682,108.63409356978343
1854.034553,-69.96217891042468
1856.963063,-6.866851326476404
1859.888226,172.1926558975743
1862.810053,130.4369738021778
1865.728557,4.809364113521859
1868.643751,-5.2592317591693165
1871.555648,-52.889554695739434
1874.46426,-26.698525732935842
1877.369599,160.38679288127693
1880.271679,33.96330627050998
1883.170512,-72.57085095071578
1886.06611,77.73296969833348
1888.958487,49.47904843489451
1891.847655,-18.892684591357593
1894.733626,41.934626742510396
1897.616414,6.77442091767287
1900.496032,-142.51979874516593
1903.372491,-51.49682664699124
1906.245805,66.16373046638655
1909.115987,67.40283413895959
1911.983049,48.182415362295984
1914.847004,-25.12043452936706
1917.707866,105.70709697405123
1920.565646,66.65775614667822
1923.420359,-65.47672849236392
1926.272016,1.4225191860956272
1929.120631,-80.60674404469032
1931.966216,-10.26593515405851
1934.808786,79.45119206751014
1937.648351,-24.77461210376761
1940.484927,13.365002219036938
1943.318525,-24.767180055509037
1946.149158,145.87739755738713
1948.97684,412.32804697094
1951.801584,131.08330056428235
1954.623403,54.16820037430091
1957.44231,163.34744878187985
1960.258318,-14.619001732881188
1963.071439,-51.5458774082061
1965.881688,23.759557224478726
1968.689078,74.65548933722349
1971.493621,-66.62234680117255
