Raman shift cm-1,4ATP_1mM_rep2_acc3_processed_intensity
-93.47115107,302.1109168215125
-87.69374369,48.80436553472288
-81.9253076,11.759892705644722
-76.16582701,36.03020920949481
-70.41528615,-18.085290664231845
-64.67366933,-78.31215961611704
-58.94096086,-84.5875903179319
-53.21714512,-59.599135128931515
-47.50220652,2.378168977834232
-41.79612954,90.44659109548904
-36.09889866,118.08744070583029
-30.41049843,55.62432440757056
-24.73091343,-1.8161399669954221
-19.0601283,35.225809944780835
-13.39812769,48.94803139740682
-7.744896327,-38.04501372023208
-2.100418946,-49.61865666861958
3.535319659,-0.15813248749045883
9.162334658,-8.346989984468813
14.78064118,-18.712634443224932
20.39025432,-31.73808485297262
25.99118913,10.390605700530005
31.58346061,87.98522327245044
37.16708375,26.045040723967592
42.74207347,-59.82356551665627
48.30844468,-44.65798921422869
53.86621222,-28.400578983675974
59.41539093,-36.69155211924233
64.95599558,-14.349733469952568
70.48804091,65.40389243206926
76.01154164,76.74278209595451
81.52651243,22.73062417983259
87.03296792,133.12682409035045
92.5309227,273.01813097085824
98.02039134,263.0831027300402
103.5013884,301.50069391993213
108.9739282,371.7588508994402
114.4380255,386.0241768336514
119.8936944,506.430250601477
125.3409495,621.306099777654
130.779805,522.0606908845505
136.2102753,416.4653851239874
141.6323747,506.9223228751597
147.0461174,642.191525172875
152.4515176,694.8965660699263
157.8485895,745.2651898178904
163.2373472,818.2656037728214
168.6178049,871.4622218064659
173.9899766,912.9576173193777
179.3538764,939.008189988037
184.7095182,971.319361246366
190.0569161,999.8962857337206
195.396084,968.4934128189682
200.7270358,954.3982127845201
206.0497854,983.4226475765811
211.3643466,945.9994168695399
216.6707333,867.6817984023002
221.9689593,834.9799470269123
227.2590382,815.1033108986636
232.5409839,753.3462377052601
237.8148101,699.5580158152553
243.0805303,655.3182192289119
248.3381582,522.0911994708968
253.5877075,404.5322318159167
258.8291917,378.96223477820575
264.0626244,287.00929293550365
269.288019,200.97093481989327
274.5053891,71.70445611668409
279.7147481,-146.56100068864663
284.9161094,313.4342549194048
290.1094865,2017.669420683328
295.2948927,7555.6901256445235
300.4723414,21705.532327059253
305.6418459,39518.05841272029
310.8034194,48151.985075935576
315.9570752,47344.74096791344
321.1028267,46209.839098096185
326.2406869,46297.12056199541
331.370669,45645.43903532876
336.4927863,45088.964307959286
341.6070517,44803.34287712595
346.7134786,44309.87476329686
351.8120798,43879.48052571128
356.9028684,43525.65461551639
361.9858576,43019.0780443463
367.0610602,42507.4513429292
372.1284892,42048.675812625064
377.1881577,41565.81697464659
382.2400784,41180.45452110385
387.2842644,40790.540971052746
392.3207284,40313.62816517544
397.3494833,39837.06852047716
402.370542,39253.564755834836
407.3839172,38693.67156370492
412.3896217,38357.67155505177
417.3876683,37961.969836793316
422.3780697,37302.038185397774
427.3608386,36589.61879897851
432.3359876,35839.2818024811
437.3035295,35033.44278467338
442.2634769,34579.78587163914
447.2158423,34317.553696240284
452.1606383,33712.733412270805
457.0978776,33083.09162242167
462.0275727,32629.155814601225
466.9497361,32096.97388184661
471.8643802,31528.479381623594
476.7715176,30842.28480119063
481.6711608,30019.335284428933
486.5633221,29307.277352041354
491.448014,28771.000106094958
496.3252488,28262.182225771972
501.195039,27510.504405591408
506.0573969,26693.696115359486
510.9123349,26253.023338336352
515.7598651,25877.064473255847
520.6,25125.08567917401
525.4327518,24340.635363669106
530.2581327,23902.886424840814
535.076155,23391.189305507534
539.8868309,22598.504370975545
544.6901726,21998.957846945068
549.4861922,21269.819499513487
554.2749019,20375.366386045866
559.0563139,20088.1079807215
563.8304402,19592.288482804404
568.597293,18459.138459795577
573.3568844,17921.29967661028
578.1092263,17607.257707901623
582.8543308,16749.08692609736
587.5922101,16150.529433239433
592.322876,15833.06760256015
597.0463405,15100.937523003733
601.7626157,14346.240990459308
606.4717135,14002.835495780404
611.1736458,13557.598375198362
615.8684246,12789.908345258016
620.5560617,12213.439715687673
625.2365691,11674.250495919256
629.9099585,10816.271842851565
634.5762419,10253.295375345348
639.2354312,10048.981880978317
643.887538,9632.358099867713
648.5325743,9137.090776529498
653.1705518,8658.730602906515
657.8014823,8199.985725379338
662.4253775,7878.703410979178
667.0422493,7413.381649546864
671.6521092,6777.69581688902
676.2549691,6257.700468319999
680.8508407,5829.548570356987
685.4397355,5431.730907481615
690.0216654,5059.141834280854
694.5966419,4592.497237055417
699.1646767,4102.666659399081
703.7257814,3764.3043260956474
708.2799676,3444.465681893329
712.827247,3035.509544274719
717.367631,2736.1319727495284
721.9011314,2655.5774657864604
726.4277595,2519.353853249566
730.9475271,2079.0772383743024
735.4604456,1593.0653728770048
739.9665264,1314.9229392846973
744.4657813,1171.3962616914214
748.9582215,1194.0817917482345
753.4438587,1226.9628885043276
757.9227042,1041.3603234302136
762.3947696,823.0834269574261
766.8600662,484.8092389565936
771.3186056,76.40609297633637
775.770399,55.837851740565384
780.215458,207.4566757503344
784.6537939,358.4440406443391
789.0854181,519.0784488997815
793.510342,338.5206548269998
797.9285769,177.72536043006403
802.3401342,379.78993354623526
806.7450253,429.0479948356369
811.1432614,361.67185975010216
815.5348538,554.6993798672265
819.9198139,728.7268570999659
824.2981531,675.7979272616285
828.6698824,646.1946721470304
833.0350133,841.6355113909303
837.393557,1025.906476721968
841.7455248,811.8216960519712
846.0909278,622.1964613979435
850.4297774,923.6672615942589
854.7620848,1049.2999131308025
859.0878611,805.6353693099445
863.4071176,867.0501760321349
867.7198655,1014.2617610769303
872.026116,817.325036773429
876.3258802,613.869053395545
880.6191693,570.362677275647
884.9059946,527.2841056440448
889.186367,277.8082508783773
893.4602979,-139.22453799224604
897.7277982,-97.04764757579687
901.9888793,442.1605373498387
906.2435521,804.2980196536591
910.4918277,1010.7964539458917
914.7337174,1204.9389917003355
918.9692321,1167.270745613816
923.1983831,981.7544785146674
927.4211813,743.7792483488156
931.6376378,582.7785663216127
935.8477637,551.5093675216704
940.0515701,436.16196941918315
944.249068,440.6083409112907
948.4402684,549.1844551208051
952.6251825,359.18545517232997
956.8038212,82.64581534619356
960.9761955,10.088086684525479
965.1423166,44.07498450312414
969.3021953,42.60681051148276
973.4558427,15.255375593173085
977.6032699,38.274732639729336
981.7444877,9.818668442472699
985.8795072,-28.21845634966303
990.0083394,-1.1891465117805637
994.1309953,-22.86332103312452
998.2474857,48.62671598439192
1002.357822,200.01368697088765
1006.462014,207.4346287103399
1010.560075,134.1655121438962
1014.652013,-38.35346659433708
1018.737841,-139.60414308618783
1022.81757,86.72413774017332
1026.891209,229.8132502299777
1030.958771,22.06230038364447
1035.020266,-65.53770992221689
1039.075705,199.89145867999468
1043.1251,335.87708298179496
1047.16846,205.470098821992
1051.205797,220.29811071966833
1055.237121,290.8633730728325
1059.262444,365.1013388295978
1063.281777,549.1919802896955
1067.295131,431.35698816641525
1071.302515,162.94128278803692
1075.303942,93.42258345141818
1079.299422,-33.36074969919355
1083.288966,-37.27155179708643
1087.272585,81.0697647404595
1091.250289,-53.908493350918434
1095.222091,-115.39676999191579
1099.187999,63.983317186426575
1103.148026,142.26779346079638
1107.102183,43.40270218974547
1111.050479,-9.930344089709251
1114.992927,79.02955242917233
1118.929536,4.874750145885628
1122.860318,-53.57303160674928
1126.785283,276.98420485781025
1130.704443,336.452793095028
1134.617808,-13.869801708551677
1138.52539,-76.35805212974446
1142.427198,21.34098619951328
1146.323244,16.72622357658838
1150.213538,-19.61988371458574
1154.098093,8.744795729697216
1157.976917,205.87149927992868
1161.850023,252.07721537843463
1165.717421,47.47264973014171
1169.579121,-73.71769275674887
1173.435135,39.66551576844722
1177.285474,332.64217825706874
1181.130148,368.1685390926432
1184.969169,48.065933005033
1188.802547,22.724585068226588
1192.630292,298.63330142060295
1196.452416,316.5273188135179
1200.26893,276.738872850241
1204.079844,430.7912514129239
1207.88517,516.8449213288004
1211.684917,451.7726675051963
1215.479098,60.78669752359929
1219.267722,-303.4614099242244
1223.050801,65.1703501756092
1226.828346,390.7577906021579
1230.600366,92.0428245554358
1234.366874,21.369617993059364
1238.12788,251.91583813685793
1241.883395,139.55103235022762
1245.633429,-108.45731067358065
1249.377994,46.43847290392296
1253.1171,291.2360169152489
1256.850759,170.39099281922608
1260.578981,41.22059959830585
1264.301776,67.59432582543013
1268.019157,86.90761512325844
1271.731133,251.6573956598113
1275.437715,321.5167765602746
1279.138915,15.682987727501313
1282.834743,-147.28490857523138
1286.52521,127.56692014267901
1290.210328,285.9316493706865
1293.890106,46.74301472306979
1297.564555,-43.111185848185414
1301.233688,206.02080364110225
1304.897514,205.705542017462
1308.556044,-43.80204431723541
1312.209289,86.09493345011651
1315.857261,376.4902643970672
1319.499969,244.87309085404195
1323.137425,7.4710152491497865
1326.769641,-25.67985486685575
1330.396626,-38.1085666539002
1334.018391,10.794071779986552
1337.634948,132.16865953766683
1341.246307,221.84594317246956
1344.85248,287.5096633169014
1348.453477,358.7654854393877
1352.049309,384.1659318697093
1355.639987,184.21855096460422
1359.225522,-20.924750829948607
1362.805925,73.08290115946511
1366.381207,147.6665848528428
1369.951379,21.324796091987082
1373.516452,-118.54434159791708
1377.076436,-163.51840571790672
1380.631343,-59.46359939748072
1384.181184,9.440475271527248
1387.725969,-27.670642410790606
1391.26571,75.15404125379791
1394.800417,182.72416201790838
1398.330102,90.3031529940381
1401.854776,44.01532008546201
1405.374448,69.71666156077845
1408.889132,57.260136151155166
1412.398837,155.61218221636227
1415.903574,218.2540965911976
1419.403355,281.42837377710384
1422.89819,605.9924262165187
1426.388091,747.9073183342298
1429.873069,747.0961348460914
1433.353134,1107.6790799797673
1436.828298,1354.6048233175825
1440.298571,1387.1029055821818
1443.763965,1729.3324262040696
1447.224491,2128.722381957021
1450.68016,2348.842172997629
1454.130983,2493.042284552397
1457.576971,2257.8185819810424
1461.018135,1643.039335289035
1464.454486,1371.3765744677767
1467.886036,1775.4110836622676
1471.312794,2266.4593074999975
1474.734774,2231.5678399698554
1478.151985,1603.1744474956104
1481.564439,598.4460739894785
1484.972146,-30.868367271013994
1488.375119,259.8067656573221
1491.773368,544.0331222586465
1495.166904,228.6809407329165
1498.555739,5.604363211419695
1501.939883,-35.934178997827985
1505.319349,47.31124639548216
1508.694146,650.6768475807221
1512.064286,1297.6683264170679
1515.429781,1521.8576442170197
1518.790642,1983.208549263276
1522.146879,2791.4869413792003
1525.498505,3235.1709994995726
1528.845529,3781.4583044646824
1532.187965,5008.972309621104
1535.525822,6070.437550284292
1538.859112,6977.363717866303
1542.187846,8432.573026593076
1545.512036,9794.731907773961
1548.831693,10927.995797919339
1552.146829,12454.347736242913
1555.457453,13898.791306154355
1558.763579,14788.938375229796
1562.065216,15317.849278666366
1565.362377,15631.575214803237
1568.655073,15979.697081176717
1571.943315,16519.22234033644
1575.227114,17103.449920300136
1578.506482,17519.836365279054
1581.781431,17812.2595892995
1585.051971,18466.953873124618
1588.318114,19185.660812966904
1591.579872,18478.07898279147
1594.837255,16046.942195124633
1598.090275,13147.146578164306
1601.338945,10455.20509970478
1604.583274,8149.199961842309
1607.823275,6488.968818860523
1611.058959,5424.874302314996
1614.290338,4770.019571647039
1617.517422,4244.509336383437
1620.740224,3693.262180936349
1623.958755,3192.8652586544285
1627.173027,2689.1619205316647
1630.38305,2237.797133717676
1633.588838,1970.4346037303753
1636.7904,1824.5511865037342
1639.987749,1594.6576363038844
1643.180896,1127.2260645814822
1646.369853,789.7338950939466
1649.554632,719.941099348333
1652.735244,385.6629782133109
1655.9117,-26.59032560860578
1659.084013,-36.34317995082574
1662.252193,41.90847103923693
1665.416254,5.8721614635587684
1668.576205,-0.3335175208983401
1671.732059,57.91631333025589
1674.883828,72.1835666528973
1678.031523,-68.33762963850813
1681.175157,-113.93650811635814
1684.314739,-14.888209959384199
1687.450284,-35.60744694008463
1690.581801,-36.14408948390417
1693.709304,20.82506434898397
1696.832803,-16.188174697742795
1699.952311,-30.814223292066288
1703.067839,22.443888560954633
1706.179399,113.98533683347395
1709.287003,152.98868717871653
1712.390663,81.52140496811614
1715.49039,135.0851972693988
1718.586197,224.98813427686457
1721.678095,60.89156105212443
1724.766096,-72.70587499375117
1727.850213,-3.1816562747358716
1730.930456,-2.137882640888776
1734.006838,-27.538248824356565
1737.079372,81.74080708647816
1740.148067,171.96155683422694
1743.212938,138.93489594729184
1746.273996,82.93810491487474
1749.331252,32.75211475763651
1752.384718,-3.6048319865747516
1755.434408,27.217543616908927
1758.480332,54.988558622656655
1761.522503,32.82823460746036
1764.560933,-57.77585473231022
1767.595634,-166.75680107392392
1770.626618,-56.92204533422739
1773.653896,85.14046313601523
1776.677482,-62.365341888762714
1779.697388,-113.43579562387924
1782.713625,146.33506261174324
1785.726205,307.1999461898381
1788.735141,230.84317382083444
1791.740445,79.71416281041859
1794.742129,37.58573477115553
1797.740206,220.8965301294637
1800.734687,343.28604885879935
1803.725585,198.79921674096656
1806.712912,140.0604860204803
1809.69668,213.9178387119327
1812.676902,65.99749990502823
1815.65359,-70.28701930964178
1818.626756,45.64165927919862
1821.596413,55.81668166572197
1824.562573,-37.93651743515585
1827.525247,24.397916624222034
1830.48445,61.78983116382618
1833.440192,-23.83663284315662
1836.392487,-35.83975123401761
1839.341347,-5.715666271561105
1842.286784,-78.3088792708472
1845.22881,-81.66071830792941
1848.167439,75.26299402549004
1851.102682,87.20652345842636
1854.034553,-55.778241662243
1856.963063,4.567849080016515
1859.888226,202.55809688154886
1862.810053,191.82927248406256
1865.728557,61.9222166555531
1868.643751,40.0230600172146
1871.555648,-29.289998826340735
1874.46426,-77.34840705414348
1877.369599,66.22024065820708
1880.271679,11.0086448991812
1883.170512,-159.44468867319762
1886.06611,3.4480655386301997
1888.958487,132.38002853610783
1891.847655,64.88133795199961
1894.733626,66.95864874804852
1897.616414,-31.042591844410953
1900.496032,-97.78773057928413
1903.372491,81.75657930835526
1906.245805,128.9910378540569
1909.115987,-18.902004630974865
1911.983049,-29.956783399310233
1914.847004,66.4464901059065
1917.707866,78.34421391533628
1920.565646,41.44400913827363
1923.420359,-6.0733234176628805
1926.272016,-71.19512171922447
1929.120631,-73.01919793466674
1931.966216,-75.5030662403949
1934.808786,-60.16297794763112
1937.648351,79.75113502971942
1940.484927,73.8421770570281
1943.318525,-20.25239421518231
1946.149158,183.67493615611076
1948.97684,280.21288463839545
1951.801584,29.633985203639156
1954.623403,-26.29490293324389
1957.44231,64.73077526116194
1960.258318,-13.893858621567226
1963.071439,-2.7751249368647493
1965.881688,226.45342045497335
1968.689078,297.7076281771141
1971.493621,-30.963408061393068
