Raman shift cm-1,4ATP_100pM_rep1_acc3_processed_intensity
-93.47115107,452.1923032133749
-87.69374369,49.30898691035462
-81.9253076,-61.336502341605446
-76.16582701,12.739507169236049
-70.41528615,94.27415304517775
-64.67366933,-7.893501533608708
-58.94096086,-48.71602341569715
-53.21714512,20.782983568585756
-47.50220652,25.21447248692074
-41.79612954,134.69029112011066
-36.09889866,229.24406567013676
-30.41049843,224.10547247257844
-24.73091343,110.16170315777711
-19.0601283,34.53665319635663
-13.39812769,79.95781442405791
-7.744896327,-62.51919619130687
-2.100418946,-16.28403864147088
3.535319659,113.53333318023438
9.162334658,-5.031093704874593
14.78064118,54.393724397445965
20.39025432,27.183394526761923
25.99118913,49.29186393739271
31.58346061,241.17265878769166
37.16708375,110.4949657381946
42.74207347,15.164156616694894
48.30844468,45.94103397677433
53.86621222,10.014632170551213
59.41539093,-79.60275624401183
64.95599558,-117.74706545505192
70.48804091,135.16580294012385
76.01154164,183.6677973235226
81.52651243,-11.546251928614268
87.03296792,128.12249013249794
92.5309227,271.22779057797135
98.02039134,123.35141598401466
103.5013884,57.42678537725378
108.9739282,106.88184011129985
114.4380255,38.20748032265067
119.8936944,185.17193515245177
125.3409495,392.51055468839127
130.779805,123.58159248625343
136.2102753,-88.99489021495616
141.6323747,41.73922516535469
147.0461174,77.56231019292944
152.4515176,-20.970072783443165
157.8485895,-21.481359118213742
163.2373472,11.300837705860793
168.6178049,48.443947152104286
173.9899766,177.88954021694803
179.3538764,129.84827956005466
184.7095182,22.862432588421058
190.0569161,91.93778926023523
195.396084,86.67736311710355
200.7270358,18.964683812033144
206.0497854,-30.905940743933375
211.3643466,-35.40140280087641
216.6707333,51.40739940215549
221.9689593,90.28560255444306
227.2590382,50.885275195427525
232.5409839,-8.540961416278193
237.8148101,-27.058914293855636
243.0805303,-0.4701574522997731
248.3381582,1.689023881898379
253.5877075,25.60013572437625
258.8291917,111.67731150648774
264.0626244,126.51215114457369
269.288019,142.94589018727356
274.5053891,174.69590329896607
279.7147481,-28.074213072389462
284.9161094,-63.77724451275307
290.1094865,211.2564356562743
295.2948927,877.6388399950748
300.4723414,2656.6675092822993
305.6418459,5049.254413636324
310.8034194,7147.432824901223
315.9570752,8384.690667117673
321.1028267,8558.086935243924
326.2406869,8586.277127653866
331.370669,8833.169619852324
336.4927863,8949.820584189458
341.6070517,8936.387797330342
346.7134786,9054.616666152313
351.8120798,9075.241819551713
356.9028684,8705.695738920147
361.9858576,8564.915360911518
367.0610602,8489.216558421926
372.1284892,8350.143525799434
377.1881577,8499.690392692164
382.2400784,8674.695042775867
387.2842644,9233.02375992163
392.3207284,9529.305042030252
397.3494833,8977.605483267442
402.370542,8460.507366987638
407.3839172,7692.01797910425
412.3896217,6830.556431582718
417.3876683,6419.452940976666
422.3780697,5994.24650159874
427.3608386,5669.574424224874
432.3359876,5414.720019079878
437.3035295,5202.294670736896
442.2634769,4958.109624639066
447.2158423,4462.695708577357
452.1606383,4221.490617140937
457.0978776,3991.209244741255
462.0275727,3782.6910471518786
466.9497361,3722.515263648705
471.8643802,3462.7707273954493
476.7715176,3468.21884275596
481.6711608,3324.7690840473906
486.5633221,2984.787325936062
491.448014,3073.453604051807
496.3252488,3001.403963206698
501.195039,2716.1780964894997
506.0573969,2489.378354458042
510.9123349,2173.513410709067
515.7598651,1941.513857163528
520.6,1804.4460977317467
525.4327518,1645.2616321336554
530.2581327,1372.752663911533
535.076155,1157.9946437642784
539.8868309,1187.4708903562696
544.6901726,978.0580294868432
549.4861922,788.3735340184248
554.2749019,815.6236297434107
559.0563139,477.44451970431874
563.8304402,262.67274878329954
568.597293,421.90138128967465
573.3568844,332.11058569473244
578.1092263,55.99318236101226
582.8543308,187.67005327083461
587.5922101,276.91623574537425
592.322876,31.118034460443596
597.0463405,176.43664407975757
601.7626157,272.5024249576554
606.4717135,121.19328681348907
611.1736458,6.399729384905186
615.8684246,-49.94050681572753
620.5560617,114.56813247958416
625.2365691,40.78411010593936
629.9099585,39.22908317405836
634.5762419,188.83960717995615
639.2354312,50.290666036119546
643.887538,-47.374432472855005
648.5325743,-85.26368317373363
653.1705518,31.941941335873707
657.8014823,49.16511911349426
662.4253775,-178.78550041206563
667.0422493,-83.0847251264654
671.6521092,86.75638870272496
676.2549691,45.37779326592272
680.8508407,44.927977110107804
685.4397355,32.511439539647654
690.0216654,-9.455165807728008
694.5966419,44.96112298348635
699.1646767,18.71911821384174
703.7257814,-4.713345467808722
708.2799676,82.07419241707066
712.827247,129.3822208659867
717.367631,149.68199414212904
721.9011314,-17.99014957850386
726.4277595,-44.227733684539544
730.9475271,62.3494699875946
735.4604456,35.45820129881804
739.9665264,238.74375241660164
744.4657813,269.71812051634197
748.9582215,48.48901989768683
753.4438587,-32.00475366875389
757.9227042,-34.06534140839631
762.3947696,-35.87427325324916
766.8600662,33.56401315613084
771.3186056,194.6075483827476
775.770399,187.73445498540832
780.215458,130.58653413592788
784.6537939,47.623091676342256
789.0854181,-40.12332659134427
793.510342,84.11528889748229
797.9285769,226.5009788425957
802.3401342,168.04672796201953
806.7450253,145.5901596784588
811.1432614,230.23548460265147
815.5348538,2.6071987240051158
819.9198139,-47.327939539124145
824.2981531,298.8270793434301
828.6698824,272.50554843185023
833.0350133,-2.5770783396427532
837.393557,-54.4998562731073
841.7455248,42.380489010285714
846.0909278,106.41753432767098
850.4297774,145.22067995666703
854.7620848,174.31363099160944
859.0878611,106.61279870987278
863.4071176,48.92327974373086
867.7198655,146.76229737251225
872.026116,273.74257588142507
876.3258802,278.460683388466
880.6191693,187.8159097748836
884.9059946,238.38598127167472
889.186367,272.49257539678035
893.4602979,-9.230790926163948
897.7277982,-69.83704720251085
901.9888793,175.59459623471122
906.2435521,216.5911285914525
910.4918277,58.64132618104843
914.7337174,-30.837287233440144
918.9692321,152.19476185900302
923.1983831,234.72153050678975
927.4211813,182.761348435494
931.6376378,180.73477517439147
935.8477637,145.69262598308876
940.0515701,312.6395061426805
944.249068,204.72167608646356
948.4402684,31.83393199216883
952.6251825,170.45496393100706
956.8038212,166.2238716324776
960.9761955,311.2299829577863
965.1423166,179.28609380944783
969.3021953,-54.26474592699053
973.4558427,155.8169336751439
977.6032699,62.6065404407818
981.7444877,63.240245024817746
985.8795072,170.0182208328652
990.0083394,-43.354442815862896
994.1309953,3.4079318273908896
998.2474857,-11.997493394015393
1002.357822,-86.0555063926502
1006.462014,16.661946164861135
1010.560075,-28.092717485796513
1014.652013,60.148205456201055
1018.737841,89.58166688970192
1022.81757,-14.960126495441227
1026.891209,36.37506430740653
1030.958771,31.458861905125158
1035.020266,61.0516087272184
1039.075705,97.30242717549638
1043.1251,-46.028896174728615
1047.16846,-41.67265978945967
1051.205797,8.286790011599447
1055.237121,-79.968241517906
1059.262444,45.57831989524564
1063.281777,231.3207276932339
1067.295131,837.4005444843494
1071.302515,1699.420064092666
1075.303942,1924.4467893940023
1079.299422,2062.5651020702917
1083.288966,1777.7038254073548
1087.272585,894.2457548995304
1091.250289,367.8857088856704
1095.222091,78.1208008799357
1099.187999,35.45162710163315
1103.148026,95.01413940679579
1107.102183,-4.787703337824693
1111.050479,0.8869452307918162
1114.992927,-38.37200523289302
1118.929536,-57.62526852400885
1122.860318,39.33556342480823
1126.785283,46.7631325975064
1130.704443,264.75750746564677
1134.617808,609.4430999753596
1138.52539,728.3657837669684
1142.427198,782.1450910779342
1146.323244,520.103631245308
1150.213538,246.86855470140503
1154.098093,296.9580057023989
1157.976917,215.30690882020662
1161.850023,231.57291277868714
1165.717421,278.0098995058611
1169.579121,356.2209012527399
1173.435135,499.1644036736743
1177.285474,405.9473956030075
1181.130148,487.256351211076
1184.969169,512.0106904180647
1188.802547,317.9378181576601
1192.630292,155.91388143166174
1196.452416,39.02679454840143
1200.26893,-9.249860082405869
1204.079844,-84.0174915562246
1207.88517,49.236194443836546
1211.684917,-28.517804216608457
1215.479098,-24.913833518716327
1219.267722,312.68626046203656
1223.050801,39.94029452647635
1226.828346,-7.669984304624688
1230.600366,193.277634839558
1234.366874,41.138739532046735
1238.12788,85.43651186872513
1241.883395,111.53946474247066
1245.633429,301.8340090849923
1249.377994,306.2832194903183
1253.1171,-12.496947140404542
1256.850759,-3.4691140394189954
1260.578981,-3.5026636679221586
1264.301776,49.72382834923903
1268.019157,61.12104515184372
1271.731133,-110.60808214003117
1275.437715,-53.14773312749085
1279.138915,108.77290329397982
1282.834743,173.6084802540673
1286.52521,40.37517498820961
1290.210328,-73.91088434465655
1293.890106,38.19009962084383
1297.564555,55.40085961584901
1301.233688,2.680180750635957
1304.897514,3.9181662865600497
1308.556044,42.29108911757649
1312.209289,85.9001747553655
1315.857261,-63.45278714084588
1319.499969,-2.923616678487498
1323.137425,266.81275826094594
1326.769641,250.055413497589
1330.396626,217.40606972955544
1334.018391,240.8248162469387
1337.634948,249.17116447659657
1341.246307,179.35036918205833
1344.85248,-2.81613248775826
1348.453477,0.10288838319808491
1352.049309,0.8873524163238002
1355.639987,4.241589203521933
1359.225522,144.77846508115056
1362.805925,91.5426288101541
1366.381207,1.320610906497869
1369.951379,-8.730037389132008
1373.516452,26.77864255938458
1377.076436,153.37044361527148
1380.631343,152.41969592687033
1384.181184,194.4388220476898
1387.725969,325.81812149967243
1391.26571,312.7292752797579
1394.800417,208.80866246023157
1398.330102,210.55665322710638
1401.854776,240.20125269988915
1405.374448,97.72181847016984
1408.889132,58.64432809422087
1412.398837,-45.152569444123834
1415.903574,-57.41743212930739
1419.403355,270.40736533965134
1422.89819,302.7307962869714
1426.388091,371.18574379216807
1429.873069,500.07734252515206
1433.353134,381.21289239593574
1436.828298,304.2135998908161
1440.298571,159.34480311619072
1443.763965,57.34264718267057
1447.224491,-67.43483467922945
1450.68016,-19.194172778963097
1454.130983,145.84162127995967
1457.576971,40.58536805276598
1461.018135,52.93440558308421
1464.454486,56.511889789413175
1467.886036,-18.631611255027398
1471.312794,-38.178159802897305
1474.734774,25.06900431705135
1478.151985,134.11779983106214
1481.564439,121.92240075815366
1484.972146,26.279768580352645
1488.375119,-148.26117384365295
1491.773368,30.50893801200109
1495.166904,164.2400685870488
1498.555739,38.067384378185345
1501.939883,142.49062266986925
1505.319349,15.021271424259535
1508.694146,-9.875129448860045
1512.064286,215.16549147848508
1515.429781,108.3383405665376
1518.790642,21.023419606055977
1522.146879,99.27985203606984
1525.498505,-43.207883835521145
1528.845529,-84.1294829885563
1532.187965,125.03359714813296
1535.525822,112.02964934927277
1538.859112,178.3325466743736
1542.187846,160.90288851655376
1545.512036,39.53399167627913
1548.831693,287.3218851835039
1552.146829,260.1298974787688
1555.457453,42.31478293198808
1558.763579,48.84429015108162
1562.065216,192.26929514970408
1565.362377,470.8602421939213
1568.655073,592.6054566624325
1571.943315,558.1223006746422
1575.227114,599.2565802612693
1578.506482,812.552514426803
1581.781431,849.1827343653486
1585.051971,716.8400738862725
1588.318114,821.4657799594161
1591.579872,782.6356395644733
1594.837255,546.87396834195
1598.090275,370.6398877516996
1601.338945,324.07923664462817
1604.583274,285.5419416748417
1607.823275,14.006050847373999
1611.058959,-24.86191483155452
1614.290338,91.7381232146124
1617.517422,-48.325780549316875
1620.740224,-9.881180753852668
1623.958755,186.2854354830891
1627.173027,108.5246396369568
1630.38305,92.96749402624478
1633.588838,155.84875958071348
1636.7904,15.494301612748007
1639.987749,146.45664609171604
1643.180896,211.29406567932716
1646.369853,47.94592780164321
1649.554632,210.07051165144966
1652.735244,170.9758670740401
1655.9117,-51.95461678994424
1659.084013,114.27724515182268
1662.252193,210.77015408490942
1665.416254,-6.103550364157865
1668.576205,21.821991007962257
1671.732059,223.18075189372462
1674.883828,132.90524143490893
1678.031523,7.519260149082925
1681.175157,35.063979623628576
1684.314739,13.948859247181087
1687.450284,12.801859231893527
1690.581801,6.0768187174740405
1693.709304,-91.55967845933394
1696.832803,-3.5885375532705055
1699.952311,126.08804769442509
1703.067839,126.41932628341723
1706.179399,227.16884336532303
1709.287003,195.01123357287892
1712.390663,48.73119536460959
1715.49039,119.0501871282332
1718.586197,214.20209564031586
1721.678095,140.41929912004642
1724.766096,-12.723398213955768
1727.850213,-53.25253248042238
1730.930456,27.76044602065788
1734.006838,20.43533134353167
1737.079372,-55.43856250522802
1740.148067,100.68807412354798
1743.212938,282.39508150120116
1746.273996,126.20374114604653
1749.331252,63.746733954237634
1752.384718,146.8894232474908
1755.434408,44.75405051236619
1758.480332,13.606655398957269
1761.522503,53.46331492909136
1764.560933,-66.46470900006332
1767.595634,-83.36641118218253
1770.626618,112.89250210624914
1773.653896,111.23803290580737
1776.677482,-44.406775731571706
1779.697388,32.70825964072799
1782.713625,174.88406331164433
1785.726205,197.96034615393063
1788.735141,189.08058962895961
1791.740445,29.798373227361168
1794.742129,-8.498546103549103
1797.740206,255.1122113967763
1800.734687,216.94809345849234
1803.725585,65.21093239884885
1806.712912,120.06174055946184
1809.69668,90.53670139754196
1812.676902,64.02564638830812
1815.65359,-38.60960340712559
1818.626756,-70.29486992369269
1821.596413,4.18336722529132
1824.562573,-55.42686146479471
1827.525247,21.55374205286992
1830.48445,110.8553667369394
1833.440192,14.388080920771618
1836.392487,-44.519246384396325
1839.341347,28.427047861881626
1842.286784,7.327953262351149
1845.22881,14.683716590658992
1848.167439,177.53193224767278
1851.102682,41.23628339315821
1854.034553,-58.266317696418795
1856.963063,104.81177805971119
1859.888226,179.90318732345065
1862.810053,182.90767036569991
1865.728557,61.993111016081016
1868.643751,46.44906685153047
1871.555648,-18.747335521566274
1874.46426,-98.78752615581212
1877.369599,109.18856181673306
1880.271679,35.80842264069368
1883.170512,-48.82176751031288
1886.06611,89.32118246870832
1888.958487,41.13498954267239
1891.847655,-8.514950635867748
1894.733626,27.214010356810483
1897.616414,21.96971009777605
1900.496032,-56.66681301989861
1903.372491,26.401058660177185
1906.245805,112.46681234355151
1909.115987,97.40352096740789
1911.983049,135.03452454856304
1914.847004,4.306138758769187
1917.707866,38.665202746426246
1920.565646,112.7750346598634
1923.420359,-64.5346143807189
1926.272016,-34.89296624248612
1929.120631,5.855873313934342
1931.966216,-3.4864001361412758
1934.808786,28.674278825680677
1937.648351,-19.083267840948604
1940.484927,28.586325884226525
1943.318525,1.6286407497370305
1946.149158,227.4711980839863
1948.97684,502.18408126089145
1951.801584,178.18509451769194
1954.623403,32.95239848034497
1957.44231,50.04326413437934
1960.258318,-46.193562591701536
1963.071439,-28.74160942327362
1965.881688,-7.9094277205411165
1968.689078,122.54383523665346
1971.493621,6.478619424616912
