Raman shift cm-1,4ATP_100nM_rep1_acc2_processed_intensity
-93.47115107,349.263117365413
-87.69374369,20.50618342128182
-81.9253076,71.17789194743972
-76.16582701,14.019364332280105
-70.41528615,215.64606141399435
-64.67366933,-86.12921782486802
-58.94096086,-65.45701779474145
-53.21714512,-49.296461244473214
-47.50220652,15.487110901871887
-41.79612954,137.42673077338748
-36.09889866,201.82485263657267
-30.41049843,184.62696403843867
-24.73091343,41.200230767319724
-19.0601283,68.47299410437319
-13.39812769,142.63778938775366
-7.744896327,0.7402253586566871
-2.100418946,-78.07563518121435
3.535319659,143.5565973865742
9.162334658,15.982070144628324
14.78064118,36.30111344218662
20.39025432,-63.9576432909539
25.99118913,56.78975482338623
31.58346061,128.5216573946661
37.16708375,48.56583315007049
42.74207347,34.14876796132043
48.30844468,59.40853915992095
53.86621222,21.711242567646053
59.41539093,-124.8757148185326
64.95599558,-54.60696046141319
70.48804091,60.86232654922144
76.01154164,140.78493184933697
81.52651243,-115.2720961599986
87.03296792,156.30764686876256
92.5309227,188.23815181459895
98.02039134,12.920071839633245
103.5013884,19.877752053712797
108.9739282,18.305155927962332
114.4380255,24.77705678343591
119.8936944,145.3586015901219
125.3409495,273.639173071727
130.779805,76.49867063517075
136.2102753,-53.447763636385375
141.6323747,-8.826399677000836
147.0461174,140.34846799850789
152.4515176,-73.80152436202519
157.8485895,-22.502658286222605
163.2373472,1.8158596028580263
168.6178049,43.78117875684859
173.9899766,126.25642441221298
179.3538764,101.79260301543329
184.7095182,22.795979816637725
190.0569161,71.73042835227261
195.396084,167.2073916577133
200.7270358,-14.3150725096856
206.0497854,12.411761234963201
211.3643466,24.182318472105862
216.6707333,36.01469628323902
221.9689593,-86.41557108772048
227.2590382,-94.53387462644088
232.5409839,13.53510291144665
237.8148101,-4.35639991708376
243.0805303,59.61922999260829
248.3381582,35.54272787852808
253.5877075,-39.449200599293775
258.8291917,58.718780726847086
264.0626244,-4.8357356840184496
269.288019,50.16291038063091
274.5053891,106.8903240467469
279.7147481,-37.64976465431453
284.9161094,-139.8455762662812
290.1094865,46.76765538715131
295.2948927,338.1098401167633
300.4723414,1269.429358609711
305.6418459,2648.6997756689075
310.8034194,3726.2161882301293
315.9570752,4493.095326447919
321.1028267,4717.112857209452
326.2406869,4665.494840782812
331.370669,4662.866639464953
336.4927863,4874.313956990925
341.6070517,4800.625960730161
346.7134786,4927.058950130648
351.8120798,5065.637849508986
356.9028684,4799.7646527836
361.9858576,4601.983800795921
367.0610602,4688.717078019132
372.1284892,4544.419579227264
377.1881577,4986.745056785838
382.2400784,5519.507401691506
387.2842644,6642.363666212508
392.3207284,7361.066609792973
397.3494833,6652.909305976074
402.370542,5776.3342586168965
407.3839172,4687.957224024966
412.3896217,3843.034425241594
417.3876683,3275.808251583184
422.3780697,2953.6925948488133
427.3608386,2620.274593832959
432.3359876,2514.232842701474
437.3035295,2133.681347415307
442.2634769,1962.736641606171
447.2158423,1608.6618969350484
452.1606383,1537.080742410652
457.0978776,1354.9219442157855
462.0275727,1242.6299198514266
466.9497361,1163.0239301321544
471.8643802,949.2766082493149
476.7715176,1139.2310601684317
481.6711608,892.3129761227569
486.5633221,1059.2443716969374
491.448014,859.0229548297448
496.3252488,747.8853492872317
501.195039,876.8170536862326
506.0573969,739.8159879851887
510.9123349,520.3248259206325
515.7598651,220.90127296443734
520.6,366.7551281062597
525.4327518,312.54713074100437
530.2581327,234.30631392351188
535.076155,77.97707415632294
539.8868309,63.8404270816136
544.6901726,138.63573162138164
549.4861922,144.2165682972677
554.2749019,259.1610258707119
559.0563139,20.154389034416454
563.8304402,-110.49764443082495
568.597293,148.72883526844225
573.3568844,156.00909352597046
578.1092263,-72.98544057818845
582.8543308,121.67722675391406
587.5922101,31.52369791601359
592.322876,-11.116102112717272
597.0463405,94.9717293289691
601.7626157,49.814521270591285
606.4717135,0.6554190959554944
611.1736458,-81.52458150157418
615.8684246,25.84851297192108
620.5560617,18.006806819806116
625.2365691,-0.10596424529967408
629.9099585,31.739347521188847
634.5762419,273.58898776477054
639.2354312,224.7571304313028
643.887538,115.78402920914687
648.5325743,29.89179065242024
653.1705518,-4.534099597112345
657.8014823,72.34982673755758
662.4253775,-179.72982999090846
667.0422493,-35.43728500212501
671.6521092,31.043830535806137
676.2549691,38.106027950430416
680.8508407,11.276369405033165
685.4397355,-23.83368614393453
690.0216654,14.846653997002477
694.5966419,-37.35043766956778
699.1646767,59.939674495487225
703.7257814,142.23315541342777
708.2799676,146.4018638640573
712.827247,139.00841580708448
717.367631,117.52906729721099
721.9011314,79.17177373983736
726.4277595,-98.57014414869286
730.9475271,59.056058952042804
735.4604456,46.5229998960333
739.9665264,195.19681970301576
744.4657813,168.73130186600338
748.9582215,199.099399283087
753.4438587,-76.29958692868217
757.9227042,-113.69717346080006
762.3947696,59.55019750532233
766.8600662,7.123792599278431
771.3186056,353.43783164704746
775.770399,36.00998256997764
780.215458,137.74711334552376
784.6537939,23.66048812080146
789.0854181,-14.938968991049933
793.510342,9.540523683012111
797.9285769,224.01529473361097
802.3401342,249.77833324114
806.7450253,232.70111457327585
811.1432614,348.0864150100489
815.5348538,146.8178122686693
819.9198139,15.116754732080267
824.2981531,165.9628698242895
828.6698824,101.4387316743734
833.0350133,-48.440404856495604
837.393557,-20.710348366559742
841.7455248,111.79641408221289
846.0909278,67.377846186194
850.4297774,12.739226332336159
854.7620848,28.489287718954756
859.0878611,-27.014643490095466
863.4071176,-45.24964383888212
867.7198655,125.04878786314373
872.026116,339.05968497665424
876.3258802,263.96057942900586
880.6191693,206.7845843067754
884.9059946,206.3193415559548
889.186367,307.2141048367313
893.4602979,71.52049031767827
897.7277982,-74.13533317234435
901.9888793,-40.54836633349744
906.2435521,295.6325674285424
910.4918277,118.70018036260119
914.7337174,-9.855572021186063
918.9692321,2.482211781601791
923.1983831,180.0702835031261
927.4211813,117.87778220910636
931.6376378,280.0447649959307
935.8477637,42.22323085369055
940.0515701,74.35231097094427
944.249068,153.06666546097046
948.4402684,-189.579369398168
952.6251825,69.28870336945309
956.8038212,54.19738414575613
960.9761955,291.10978229503655
965.1423166,19.926955680733357
969.3021953,148.63808475183467
973.4558427,181.7442935270993
977.6032699,-3.542835299540286
981.7444877,-60.901996649420965
985.8795072,110.71358461315114
990.0083394,67.89723058962389
994.1309953,21.856520753446432
998.2474857,170.7238842126951
1002.357822,-44.42893495522756
1006.462014,191.57219274351561
1010.560075,72.87754178659398
1014.652013,95.65520195480082
1018.737841,219.2858353841476
1022.81757,-80.55460313347085
1026.891209,30.079829170707782
1030.958771,32.701749611754266
1035.020266,-34.703749998533894
1039.075705,111.66332076811568
1043.1251,-4.544198046185089
1047.16846,20.003168331198747
1051.205797,112.28491568162275
1055.237121,-104.90159049081608
1059.262444,46.10303833566996
1063.281777,232.69549272368528
1067.295131,927.8588131239312
1071.302515,2154.3343412874938
1075.303942,2779.6225284607785
1079.299422,3276.2546888315755
1083.288966,2728.756104980188
1087.272585,1461.5222129106742
1091.250289,796.0974580945634
1095.222091,344.2726782231497
1099.187999,67.71383332706392
1103.148026,107.76706390478269
1107.102183,34.85433725762668
1111.050479,-19.59458894284281
1114.992927,-26.150715445817788
1118.929536,-93.50562706481111
1122.860318,14.237810888980974
1126.785283,167.88032842592193
1130.704443,195.76298283028586
1134.617808,493.6336870953075
1138.52539,691.7176917446242
1142.427198,571.1565648970831
1146.323244,497.61427066221285
1150.213538,304.8373757325514
1154.098093,302.11620987242077
1157.976917,34.62948218369044
1161.850023,59.9220576443071
1165.717421,248.21910929430732
1169.579121,215.62020849179905
1173.435135,499.66250683191373
1177.285474,572.543741217662
1181.130148,678.1765664896682
1184.969169,800.8431870941342
1188.802547,446.19231934162235
1192.630292,285.8405647386783
1196.452416,19.547480690017075
1200.26893,65.46972301830607
1204.079844,-86.49841582529201
1207.88517,-72.15032245450641
1211.684917,110.52659876888542
1215.479098,-12.503296815038265
1219.267722,325.7573866761055
1223.050801,-48.67230353776839
1226.828346,-49.25219893656285
1230.600366,40.654977600595984
1234.366874,12.03095417408393
1238.12788,48.08081871582954
1241.883395,79.43005066519183
1245.633429,169.0477946692745
1249.377994,221.35417339104447
1253.1171,15.794508237600851
1256.850759,179.94570146064513
1260.578981,228.5302913510862
1264.301776,-21.573235965156687
1268.019157,124.87366607126697
1271.731133,-14.016449997272254
1275.437715,-31.773157809502777
1279.138915,140.79455200415924
1282.834743,220.9510449230409
1286.52521,9.620366790124148
1290.210328,-41.07590575135557
1293.890106,-67.22064824644674
1297.564555,69.78120549716058
1301.233688,21.56693230715372
1304.897514,133.37437797516066
1308.556044,73.70109889098711
1312.209289,77.68440625414726
1315.857261,-78.3098691928775
1319.499969,-87.66400181940094
1323.137425,253.90891776414415
1326.769641,128.93255462491055
1330.396626,220.17754908887082
1334.018391,111.59414949701356
1337.634948,34.12909982161247
1341.246307,-16.764294793954065
1344.85248,-24.607146837924972
1348.453477,37.656497032582536
1352.049309,-54.93136548113171
1355.639987,-5.098202107123967
1359.225522,193.44917060361485
1362.805925,1.1782182162413903
1366.381207,27.565643108246235
1369.951379,41.266015586353035
1373.516452,32.77152193666561
1377.076436,247.03636426260374
1380.631343,158.99414475969414
1384.181184,294.64321741264973
1387.725969,436.27484038053615
1391.26571,296.0613033052991
1394.800417,169.30990948079707
1398.330102,225.6244677809887
1401.854776,250.83356987090647
1405.374448,46.06200624393075
1408.889132,-25.9195731111145
1412.398837,-64.94543264567257
1415.903574,-22.621586728330268
1419.403355,299.74219216540064
1422.89819,334.4208831830486
1426.388091,415.1399492892551
1429.873069,615.3382311819412
1433.353134,442.57098877533736
1436.828298,358.73063953913686
1440.298571,350.5265590106547
1443.763965,245.5028629678718
1447.224491,40.56788127499993
1450.68016,-74.48389180923297
1454.130983,125.1120373793746
1457.576971,76.02179625587888
1461.018135,263.03514552555464
1464.454486,240.89313890076167
1467.886036,163.9747787886938
1471.312794,149.64446477770198
1474.734774,31.261952565435145
1478.151985,218.8447862141581
1481.564439,225.45905635272214
1484.972146,190.2606847120412
1488.375119,-68.32013040209836
1491.773368,148.7578886151304
1495.166904,262.17654631636333
1498.555739,10.200938988577667
1501.939883,0.5284495425644913
1505.319349,8.974282468968482
1508.694146,-1.0177605168556276
1512.064286,135.86709074949204
1515.429781,71.36661537835391
1518.790642,2.405323510742001
1522.146879,26.0344556625315
1525.498505,-88.73804509371193
1528.845529,-175.40593259602545
1532.187965,69.69327692533753
1535.525822,45.390258309543526
1538.859112,-59.01495705037837
1542.187846,160.0943698188524
1545.512036,35.08971473716508
1548.831693,379.4323304754346
1552.146829,221.9168805191701
1555.457453,36.377672602142866
1558.763579,79.25575792587028
1562.065216,138.21094731694689
1565.362377,453.8834320251515
1568.655073,560.3233654710965
1571.943315,731.8795236760106
1575.227114,751.8634076908265
1578.506482,897.5552395547717
1581.781431,1123.7680133224978
1585.051971,1210.6570892572722
1588.318114,1285.8747665092044
1591.579872,1296.847049073831
1594.837255,832.1487826654728
1598.090275,481.7775066864134
1601.338945,335.67832175142576
1604.583274,261.1584871187206
1607.823275,55.35323916069598
1611.058959,-166.17349169212412
1614.290338,63.465896691134006
1617.517422,-101.8163831213467
1620.740224,3.7509099052582826
1623.958755,63.25240877594101
1627.173027,67.40088968368858
1630.38305,31.121415214098775
1633.588838,95.35972568580405
1636.7904,-31.516751695459448
1639.987749,-6.044460471185609
1643.180896,191.20442902635344
1646.369853,-42.09348150963377
1649.554632,216.63634446700098
1652.735244,37.032304885872286
1655.9117,-112.42900234689147
1659.084013,77.08677609385123
1662.252193,120.51717160765158
1665.416254,-17.60188648034589
1668.576205,46.11635695765334
1671.732059,22.476878323672338
1674.883828,2.6545838331647715
1678.031523,14.434162487183514
1681.175157,-8.878391052005593
1684.314739,-43.072038102520196
1687.450284,27.566263126387685
1690.581801,-38.125473538528766
1693.709304,-97.65776993545626
1696.832803,49.82489844029199
1699.952311,50.73004107386116
1703.067839,20.670872573947975
1706.179399,25.761928211233133
1709.287003,161.72876540830447
1712.390663,-70.66471673091127
1715.49039,67.67893050280759
1718.586197,138.43743130946575
1721.678095,64.13666485085686
1724.766096,-23.699818748951262
1727.850213,-65.20753538039989
1730.930456,-76.7893062101885
1734.006838,-40.83190206784059
1737.079372,72.07106445237119
1740.148067,4.617591394872221
1743.212938,247.86402126612316
1746.273996,67.55205187919026
1749.331252,27.437023803082027
1752.384718,-52.17609255983369
1755.434408,35.8149143175163
1758.480332,132.58806829980676
1761.522503,-40.01513131767855
1764.560933,31.547736967855826
1767.595634,-87.40795913206958
1770.626618,44.78348249453725
1773.653896,135.57805457403774
1776.677482,-6.116172371261818
1779.697388,-93.61353175195705
1782.713625,72.14865679802071
1785.726205,95.01257705880487
1788.735141,130.49858211055192
1791.740445,-9.079750272454504
1794.742129,-52.964353847070385
1797.740206,77.31665302356102
1800.734687,64.26688350034617
1803.725585,73.96927196310678
1806.712912,56.28782344868161
1809.69668,-20.22276984091144
1812.676902,-39.252304400150905
1815.65359,-64.4058755432273
1818.626756,-119.40344059894667
1821.596413,34.264578198499166
1824.562573,-55.86201370603589
1827.525247,40.79898646980814
1830.48445,-35.60796318435435
1833.440192,20.719272340025768
1836.392487,-23.596728730300008
1839.341347,65.43121412646934
1842.286784,36.2121823569055
1845.22881,23.50285694301443
1848.167439,47.736334753180245
1851.102682,-50.30347856279876
1854.034553,-31.280088624524343
1856.963063,4.109874864015193
1859.888226,223.7910446957264
1862.810053,100.46567307294029
1865.728557,67.69170835369994
1868.643751,-45.968844643026756
1871.555648,1.4089724237411012
1874.46426,-129.19540894709735
1877.369599,74.4756869087701
1880.271679,22.320906570051008
1883.170512,-50.531641348868966
1886.06611,63.570654135918005
1888.958487,91.07085188130014
1891.847655,-45.83912981845836
1894.733626,-24.14956797416624
1897.616414,40.77129086287027
1900.496032,-38.18042422118123
1903.372491,0.12150156076047836
1906.245805,73.04874402471489
1909.115987,35.67729260904457
1911.983049,-33.68194304796454
1914.847004,64.38564091967422
1917.707866,-26.1804140172938
1920.565646,25.653388434268678
1923.420359,-89.52540762814057
1926.272016,6.479687213062249
1929.120631,-48.952887113671565
1931.966216,-21.506711985249574
1934.808786,-33.14474189967979
1937.648351,16.725804137911183
1940.484927,68.75578332149045
1943.318525,56.65235108117659
1946.149158,149.18801322360702
1948.97684,399.7738425395337
1951.801584,181.80473891293605
1954.623403,41.68227926692142
1957.44231,172.22103258910872
1960.258318,-89.73802978232969
1963.071439,-23.46087127212899
1965.881688,-3.2960877019029837
1968.689078,177.48206500761006
1971.493621,35.71641288724385
