Raman shift cm-1,4ATP_10uM_rep3_acc5_processed_intensity
-93.47115107,423.5288184109944
-87.69374369,131.93351251244775
-81.9253076,-3.7937549759651397
-76.16582701,16.035356198819493
-70.41528615,74.35589559974372
-64.67366933,74.65845677749724
-58.94096086,12.441073877137768
-53.21714512,-42.6862494393892
-47.50220652,-20.65469816617093
-41.79612954,73.83732324191811
-36.09889866,163.81921956437031
-30.41049843,184.07595268650562
-24.73091343,141.306037930696
-19.0601283,81.98979628944414
-13.39812769,32.07862984913868
-7.744896327,-0.6452824078121466
-2.100418946,-1.8866895833954231
3.535319659,18.90423846141539
9.162334658,20.2598985728539
14.78064118,-0.26826823330748084
20.39025432,11.18173756267106
25.99118913,77.15928612857329
31.58346061,153.52749003164172
37.16708375,200.49272305416866
42.74207347,215.13939053352692
48.30844468,192.97021491512737
53.86621222,144.2627380397139
59.41539093,135.5072395527593
64.95599558,216.03680839433855
70.48804091,326.6016995461796
76.01154164,381.1356305283689
81.52651243,398.97916692187437
87.03296792,451.88704697880735
92.5309227,538.8043638031329
98.02039134,610.830071643657
103.5013884,659.1911473320574
108.9739282,720.7314906019737
114.4380255,832.2504020053213
119.8936944,970.4004332897762
125.3409495,1040.2145704062266
130.779805,997.6212283156437
136.2102753,952.2571685496814
141.6323747,1032.1651737505592
147.0461174,1192.8743972494606
152.4515176,1297.0924929277492
157.8485895,1327.2552501889973
163.2373472,1378.758480540624
168.6178049,1492.919707317902
173.9899766,1624.1560618935575
179.3538764,1741.752088921256
184.7095182,1852.8561110829294
190.0569161,1941.8601692377692
195.396084,1986.9995926398851
200.7270358,2019.0028004408682
206.0497854,2082.589871021568
211.3643466,2166.7765894790787
216.6707333,2231.1376713710715
221.9689593,2276.690161606399
227.2590382,2344.837321960867
232.5409839,2450.175076886346
237.8148101,2554.1959044912865
243.0805303,2620.105460066307
248.3381582,2661.180119577246
253.5877075,2719.59920361008
258.8291917,2824.7190310998008
264.0626244,2965.8755830746964
269.288019,3079.0585385145832
274.5053891,3105.15148524293
279.7147481,3083.8673284195343
284.9161094,3096.290480254555
290.1094865,3078.277882879787
295.2948927,2801.860951913527
300.4723414,2131.8593721563707
305.6418459,1259.499720185775
310.8034194,574.7717150170985
315.9570752,289.189610109207
321.1028267,279.2216739479307
326.2406869,304.00097314382276
331.370669,253.42789316327688
336.4927863,161.93931298527167
341.6070517,83.17906663072466
346.7134786,19.847653482438588
351.8120798,-28.92595644802283
356.9028684,-20.728533534150728
361.9858576,58.13088218393936
367.0610602,125.3747052678735
372.1284892,108.5757497021535
377.1881577,65.69564008993068
382.2400784,90.6112397110372
387.2842644,154.43762530301652
392.3207284,159.19578478342132
397.3494833,101.43958693445255
402.370542,60.875228707728425
407.3839172,61.88799716886174
412.3896217,53.3158072014424
417.3876683,11.48126749972738
422.3780697,-10.003248737562227
427.3608386,47.00532280879609
432.3359876,151.16033037231279
437.3035295,198.33941133209174
442.2634769,133.89924594519863
447.2158423,25.691936997397924
452.1606383,-21.15618179983234
457.0978776,3.1996098506499493
462.0275727,24.278395238653175
466.9497361,6.297831233067498
471.8643802,-6.2416369587127605
476.7715176,26.352381562927675
481.6711608,68.19237780025117
486.5633221,53.48197422349769
491.448014,-10.117213921743101
496.3252488,-36.02470310344711
501.195039,10.683895676758965
506.0573969,46.393014693972475
510.9123349,5.977775536561069
515.7598651,-34.86947236711283
520.6,12.055246405106224
525.4327518,82.71587087025134
530.2581327,66.42757219964932
535.076155,0.6390896207006236
539.8868309,11.789570331844281
544.6901726,115.75729278548103
549.4861922,192.21242369473862
554.2749019,147.67827544190877
559.0563139,44.818927761879124
563.8304402,17.856875265766362
568.597293,78.35911031801103
573.3568844,121.47791751900819
578.1092263,105.85590445212551
582.8543308,75.4499511657734
587.5922101,47.26098125271357
592.322876,12.058920951803437
597.0463405,-14.925501047798642
601.7626157,-22.996060016812248
606.4717135,-21.247425203320393
611.1736458,-9.379122996262536
615.8684246,8.142778864693346
620.5560617,8.42558869584407
625.2365691,-2.9161381530041304
629.9099585,14.691469585223185
634.5762419,72.59159885420233
639.2354312,139.38356790597632
643.887538,185.97951316996907
648.5325743,198.11006875889046
653.1705518,164.65546199523843
657.8014823,91.21413673704444
662.4253775,21.420733358044785
667.0422493,6.940421123210303
671.6521092,44.93603579063118
676.2549691,83.50766806115134
680.8508407,86.16505513990802
685.4397355,56.47722266978448
690.0216654,17.5687321487286
694.5966419,-7.965854665324246
699.1646767,-10.834730300360807
703.7257814,8.829857528028594
708.2799676,50.713618210060176
712.827247,92.32062017863254
717.367631,81.31268830871502
721.9011314,6.358655323669659
726.4277595,-52.573683388405605
730.9475271,-15.215971188053892
735.4604456,86.14359639920791
739.9665264,149.49821034984828
744.4657813,129.58761404604556
748.9582215,66.24330144225934
753.4438587,20.115164738915723
757.9227042,24.779104704476794
762.3947696,77.28109030874563
766.8600662,144.95776188701174
771.3186056,185.67595252810267
775.770399,171.16418761548715
780.215458,99.69632254108961
784.6537939,7.573340200142395
789.0854181,-37.973193201723966
793.510342,-8.621105012085843
797.9285769,37.210671802664905
802.3401342,37.39476409517074
806.7450253,11.929106944557045
811.1432614,5.07624454657131
815.5348538,12.992467732589905
819.9198139,20.958984848577458
824.2981531,42.07186247331031
828.6698824,81.94751892926087
833.0350133,114.25621967634076
837.393557,114.71922886642567
841.7455248,91.7183710542141
846.0909278,66.51953064103822
850.4297774,41.615128269196305
854.7620848,6.534106725607992
859.0878611,-25.524033351048292
863.4071176,-9.517500179147376
867.7198655,70.06344429474285
872.026116,157.24121526997308
876.3258802,197.6214050598464
880.6191693,203.63233966897357
884.9059946,192.57359995482636
889.186367,144.31093745410246
893.4602979,82.00076998675343
897.7277982,87.24838763861183
901.9888793,160.46567315723365
906.2435521,182.17436750121533
910.4918277,95.34521549609941
914.7337174,4.75609260209265
918.9692321,14.34155166460614
923.1983831,85.82659201562448
927.4211813,127.15833404341919
931.6376378,117.15246174813947
935.8477637,86.39456814504882
940.0515701,47.572536246485356
944.249068,0.1106363315558454
948.4402684,-28.632157173047286
952.6251825,-1.8067246433084598
956.8038212,67.27557446147685
960.9761955,114.53240616421768
965.1423166,99.88641500958995
969.3021953,50.8764427667468
973.4558427,17.57789339288731
977.6032699,19.002386076116586
981.7444877,41.13694053060617
985.8795072,58.437670142477664
990.0083394,53.49919925345486
994.1309953,25.440590308751663
998.2474857,-11.940868972204406
1002.357822,-31.749585209129577
1006.462014,-2.5964141817677913
1010.560075,82.29889077499618
1014.652013,174.36768616809223
1018.737841,201.02481759564844
1022.81757,162.56408656980506
1026.891209,144.70080905706584
1030.958771,190.39632859126334
1035.020266,243.10239188500435
1039.075705,260.50229786818045
1043.1251,275.27444205879976
1047.16846,296.127207323932
1051.205797,261.75774916492963
1055.237121,144.58227979086826
1059.262444,18.03561605744162
1063.281777,-19.11451657912098
1067.295131,46.905774837681804
1071.302515,134.70995465992735
1075.303942,163.62549637579454
1079.299422,127.24914082701332
1083.288966,65.64925484749648
1087.272585,11.7192444172926
1091.250289,-17.690300614635156
1095.222091,-12.514443635532242
1099.187999,19.376885597833887
1103.148026,47.60335069234545
1107.102183,51.732696377525784
1111.050479,39.28899019296423
1114.992927,22.794099720197234
1118.929536,5.708317137650106
1122.860318,-12.861140396386956
1126.785283,-23.121655475374304
1130.704443,4.664483772068319
1134.617808,75.87496707400294
1138.52539,132.56228024930311
1142.427198,122.49631696077836
1146.323244,77.29182668317837
1150.213538,53.76691920197078
1154.098093,39.91693815285802
1157.976917,6.519372983955037
1161.850023,2.3841766589847317
1165.717421,81.05161519959384
1169.579121,176.52056021557996
1173.435135,174.3212657180851
1177.285474,82.34536240906588
1181.130148,21.533255673981444
1184.969169,51.65909894882454
1188.802547,110.48489284829067
1192.630292,126.15968940037178
1196.452416,89.65905766350365
1200.26893,22.4501489708202
1204.079844,-42.9090717849319
1207.88517,-55.12492062116668
1211.684917,17.521154001206334
1215.479098,122.91427439354639
1219.267722,153.4850460888196
1223.050801,85.93619864402527
1226.828346,20.34258354188662
1230.600366,24.17213989901864
1234.366874,51.81588513226167
1238.12788,62.013983398743534
1241.883395,75.0214339529614
1245.633429,88.58374743515586
1249.377994,62.880682814903324
1253.1171,6.3114708811197495
1256.850759,-17.929787105419717
1260.578981,10.038830706087138
1264.301776,31.55229499811668
1268.019157,1.5706807309340203
1271.731133,-29.073982129437347
1275.437715,16.8555691932499
1279.138915,103.59221859262118
1282.834743,109.75049838612108
1286.52521,22.60054920713192
1290.210328,-25.583271732071797
1293.890106,37.29247236055189
1297.564555,125.42634017352754
1301.233688,147.274427592569
1304.897514,114.57835722969253
1308.556044,64.49282166746596
1312.209289,10.07500008877976
1315.857261,-8.394072370793129
1319.499969,52.159186123962684
1323.137425,154.29634122623455
1326.769641,214.74703249849458
1330.396626,206.6658281764212
1334.018391,166.4177910749923
1337.634948,125.95493268456326
1341.246307,81.95691294652272
1344.85248,25.587783251307883
1348.453477,-18.64994178875633
1352.049309,-0.5321659158268375
1355.639987,92.89831526761279
1359.225522,192.83317389077908
1362.805925,211.83258042620415
1366.381207,151.4681060569256
1369.951379,100.23382851836915
1373.516452,114.02651508313394
1377.076436,150.18934418654663
1380.631343,150.6028120832525
1384.181184,122.24137126379098
1387.725969,95.45605735996347
1391.26571,86.96464817011112
1394.800417,119.37316903373895
1398.330102,182.75437807672725
1401.854776,197.62839273180168
1405.374448,113.21916843475734
1408.889132,3.520775105095197
1412.398837,-25.39832311275427
1415.903574,21.41894375835262
1419.403355,62.54581038948417
1422.89819,68.5887837520967
1426.388091,69.26552122787346
1429.873069,71.68642111742119
1433.353134,55.33100059437984
1436.828298,20.469571763019868
1440.298571,-12.854963902478502
1443.763965,-27.77924166541348
1447.224491,-14.160094893592607
1450.68016,24.02244855008182
1454.130983,71.00980749566213
1457.576971,119.98494611482478
1461.018135,159.92564752680954
1464.454486,149.5770569485909
1467.886036,71.35451694845837
1471.312794,-7.199982038874921
1474.734774,-7.929292687981349
1478.151985,47.81104530876985
1481.564439,77.07202643054026
1484.972146,50.91056582953183
1488.375119,10.777565627748764
1491.773368,-4.862587293874917
1495.166904,1.5408246460447899
1498.555739,12.436090522573302
1501.939883,16.299211370399107
1505.319349,8.148526504620477
1508.694146,-1.8123780362415474
1512.064286,4.945298184367083
1515.429781,24.478228870087527
1518.790642,24.695936448011082
1522.146879,-13.336878149039144
1525.498505,-49.174174339848264
1528.845529,-20.789311864199824
1532.187965,55.23680352177458
1535.525822,100.4645565493426
1538.859112,101.90804620336903
1542.187846,128.48098925545486
1545.512036,212.80801785427516
1548.831693,279.8076322523286
1552.146829,230.52636032369458
1555.457453,92.58145587736203
1558.763579,15.87094864291113
1562.065216,86.28972651524722
1565.362377,218.07101863872003
1568.655073,270.0641821172334
1571.943315,218.2641296926796
1575.227114,164.1478335416714
1578.506482,181.6884659993508
1581.781431,228.38235125147932
1585.051971,236.99217171946358
1588.318114,209.0403499419132
1591.579872,178.62408822367405
1594.837255,167.5724386624094
1598.090275,188.33738804140492
1601.338945,215.64129389983924
1604.583274,185.55140172170962
1607.823275,88.31480026512239
1611.058959,-1.1058233224500782
1614.290338,-25.41547344983691
1617.517422,0.6233296821689152
1620.740224,41.39067160038841
1623.958755,72.72220105964611
1627.173027,80.74117225071744
1630.38305,72.49573389277538
1633.588838,73.19659358077094
1636.7904,95.03446809793128
1639.987749,118.49309160473224
1643.180896,121.75381301899495
1646.369853,110.36365132071747
1649.554632,88.61591227225364
1652.735244,47.335146577447624
1655.9117,6.578799122479396
1659.084013,-2.6010788200414154
1662.252193,4.0370966090165155
1665.416254,0.8622896097479895
1668.576205,2.1135292605147953
1671.732059,17.41484650921079
1674.883828,23.18353220267761
1678.031523,8.225951271596145
1681.175157,-5.944421496041912
1684.314739,1.4984597658186871
1687.450284,21.128340440624118
1690.581801,19.651262823844412
1693.709304,-16.897250964824003
1696.832803,-50.776651472846844
1699.952311,-27.349750691994107
1703.067839,58.442675766192195
1706.179399,143.78115837906086
1709.287003,158.5254219514273
1712.390663,110.30118075140442
1715.49039,68.76746444874215
1718.586197,57.78921017509589
1721.678095,43.41637308668576
1724.766096,19.882731283594048
1727.850213,6.679535832391998
1730.930456,-6.530686362306014
1734.006838,-18.88555508856812
1737.079372,21.005180547608077
1740.148067,126.86561526040374
1743.212938,209.66304478389276
1746.273996,191.99887483828672
1749.331252,125.56732232118921
1752.384718,107.82373895229183
1755.434408,139.088789985846
1758.480332,136.27765225522768
1761.522503,61.506748335371924
1764.560933,-13.208842267155404
1767.595634,1.3660104056222764
1770.626618,77.48263843786756
1773.653896,108.95235272462354
1776.677482,75.93046961727514
1779.697388,60.01132922863614
1782.713625,94.95572923999298
1785.726205,113.63875134848277
1788.735141,63.04747737451944
1791.740445,-2.998143085146432
1794.742129,7.483805854447587
1797.740206,89.05140264551342
1800.734687,141.800244736295
1803.725585,114.32348136711153
1806.712912,57.149270323940115
1809.69668,22.366536696867584
1812.676902,3.4515223059368925
1815.65359,-11.507750920596733
1818.626756,-9.688091009425104
1821.596413,11.27395237980803
1824.562573,35.400420332495074
1827.525247,53.73885022333084
1830.48445,68.87759948880021
1833.440192,82.8405484346788
1836.392487,84.6658822845879
1839.341347,55.41514044015044
1842.286784,5.0323270990257
1845.22881,-23.050252551337273
1848.167439,-14.20436920999807
1851.102682,2.483443011225013
1854.034553,26.180133136949898
1856.963063,88.79324141255458
1859.888226,164.35489011037427
1862.810053,172.66069971394174
1865.728557,94.52686350362227
1868.643751,0.9080889616668486
1871.555648,-38.669892633972836
1874.46426,-19.68241864344012
1877.369599,18.54342865208649
1880.271679,40.914785045716826
1883.170512,38.683685372925666
1886.06611,20.30691839943186
1888.958487,2.1111568375532648
1891.847655,-0.571378853153556
1894.733626,6.033600566479535
1897.616414,2.8803604708101336
1900.496032,-3.2368700828341392
1903.372491,11.04902147093481
1906.245805,38.429538960528504
1909.115987,48.65089604151237
1911.983049,35.608073797446245
1914.847004,19.91036965696498
1917.707866,15.522768084819951
1920.565646,11.955615148317378
1923.420359,-9.236059054523086
1926.272016,-35.364519888994664
1929.120631,-22.227186468548254
1931.966216,36.8480476113471
1934.808786,82.24398777025064
1937.648351,76.66603552165013
1940.484927,73.50354050841493
1943.318525,137.89481676303865
1946.149158,237.1223675928637
1948.97684,279.10378499352277
1951.801584,241.06984399667414
1954.623403,170.35328710851053
1957.44231,88.1859272817886
1960.258318,11.838004735158416
1963.071439,2.9473194486460237
1965.881688,63.01561761883603
1968.689078,80.47858238513061
1971.493621,-3.6467395085094694
