Raman shift cm-1,4ATP_1mM_rep1_acc3_processed_intensity
-93.47115107,107.46828400252123
-87.69374369,5.779144747499739
-81.9253076,3.522608961814811
-76.16582701,-50.1790964777892
-70.41528615,14.134230423642332
-64.67366933,-116.59379410728654
-58.94096086,-96.86572142977795
-53.21714512,-12.025180729543532
-47.50220652,-62.77310618150588
-41.79612954,21.61398443393956
-36.09889866,79.59492694666224
-30.41049843,156.8795270027977
-24.73091343,39.66562495578289
-19.0601283,-49.71589848342728
-13.39812769,35.61978925642383
-7.744896327,-70.30148309028685
-2.100418946,-26.563228685534888
3.535319659,46.16309877950587
9.162334658,5.255358449372441
14.78064118,14.266062653009357
20.39025432,-47.213673434047536
25.99118913,-35.0225167345256
31.58346061,21.81735120177618
37.16708375,57.69402114879855
42.74207347,31.159950061968434
48.30844468,8.207731325844085
53.86621222,-16.09876979073302
59.41539093,-78.44013068309964
64.95599558,-22.66201550010672
70.48804091,82.27677155639515
76.01154164,10.624022671074783
81.52651243,-145.90552836037318
87.03296792,-19.416934411738037
92.5309227,67.18043388233987
98.02039134,-27.174914716688768
103.5013884,-40.923422125948974
108.9739282,-11.925250837427484
114.4380255,-9.868140281096316
119.8936944,14.043286604912552
125.3409495,117.01556393823087
130.779805,9.917851954396042
136.2102753,-113.03168364418465
141.6323747,5.8284379017972014
147.0461174,47.91402986753488
152.4515176,78.85404448241113
157.8485895,32.258094733610506
163.2373472,72.89066613542184
168.6178049,317.32979818100864
173.9899766,369.9387186325555
179.3538764,408.0659184443782
184.7095182,343.0200091433068
190.0569161,490.1129597740593
195.396084,503.11484882208066
200.7270358,535.1521923874992
206.0497854,655.0032052676492
211.3643466,602.908709732159
216.6707333,792.2442987367978
221.9689593,678.9901989804023
227.2590382,809.1004073308842
232.5409839,701.6208682264084
237.8148101,855.1435051113937
243.0805303,635.4861894348355
248.3381582,710.5844910322958
253.5877075,620.7710247725922
258.8291917,512.3415399103716
264.0626244,618.7135655095016
269.288019,102.25445250109527
274.5053891,858.0103559037573
279.7147481,-314.53942345116883
284.9161094,2142.9123919786625
290.1094865,4385.240977220077
295.2948927,19465.08407922859
300.4723414,46700.85055696318
305.6418459,50095.22834906199
310.8034194,46792.62226115433
315.9570752,47152.31311627195
321.1028267,45156.031404894406
326.2406869,45577.45714622491
331.370669,44221.34337854968
336.4927863,43952.28740769486
341.6070517,43088.186005909876
346.7134786,42581.61205213294
351.8120798,41865.41187740696
356.9028684,41191.998794900646
361.9858576,40646.5859544583
367.0610602,39564.727060563826
372.1284892,39213.02078087976
377.1881577,38122.47556269771
382.2400784,37693.73090721159
387.2842644,36947.99434929568
392.3207284,36128.80316317677
397.3494833,35495.70792849083
402.370542,34489.803256903026
407.3839172,33722.946411181896
412.3896217,33056.51248832521
417.3876683,32358.247222417136
422.3780697,31435.42800401106
427.3608386,30381.475366079772
432.3359876,29353.742811313714
437.3035295,28306.568749716957
442.2634769,27413.215386053158
447.2158423,27055.771734195292
452.1606383,26015.921059637923
457.0978776,25116.612666724002
462.0275727,24513.610560689995
466.9497361,23499.427077861492
471.8643802,22852.27411641384
476.7715176,21801.73035282463
481.6711608,20723.93703483467
486.5633221,19828.207111834938
491.448014,18983.740708885587
496.3252488,18263.732589231513
501.195039,17340.743202087382
506.0573969,16223.627585698287
510.9123349,15646.52634397064
515.7598651,15096.030208021952
520.6,14058.258447009011
525.4327518,13295.549892996725
530.2581327,12478.682895976817
535.076155,12030.842439563272
539.8868309,11041.191826525646
544.6901726,10196.862671643928
549.4861922,9702.882083741417
554.2749019,8363.34419529776
559.0563139,8227.854322565454
563.8304402,7742.781036258835
568.597293,6352.407228990185
573.3568844,6041.810059010735
578.1092263,5640.7415873533355
582.8543308,4803.804516035052
587.5922101,4300.30170828382
592.322876,4057.8798943894144
597.0463405,3400.1093998348733
601.7626157,2786.774676179346
606.4717135,2594.0864892801183
611.1736458,2282.2951676060984
615.8684246,1793.3584766864951
620.5560617,1296.50868373704
625.2365691,1153.1283283878656
629.9099585,499.8555489974897
634.5762419,141.44546843300486
639.2354312,506.43218740334123
643.887538,157.04837574115663
648.5325743,236.97836339670175
653.1705518,132.5106554142185
657.8014823,-43.242781437140366
662.4253775,298.72881817900634
667.0422493,48.01080265377823
671.6521092,37.46587834672391
676.2549691,-128.85327732484075
680.8508407,-79.4194777510711
685.4397355,0.12712670083419653
690.0216654,-41.623764509255125
694.5966419,63.582804312020016
699.1646767,-206.53452522896987
703.7257814,11.811240765546245
708.2799676,-67.95337110677792
712.827247,-68.34755773641518
717.367631,-38.57045848858252
721.9011314,135.11015492056686
726.4277595,387.0096518936043
730.9475271,114.82286975110037
735.4604456,5.529386185095063
739.9665264,-153.9514443206972
744.4657813,83.94550168437854
748.9582215,135.1659566078015
753.4438587,506.1676187478006
757.9227042,441.7360032283468
762.3947696,243.1398350113268
766.8600662,301.66267234340194
771.3186056,-362.6463893435903
775.770399,-59.58356137721057
780.215458,29.880040248146543
784.6537939,93.03326551325517
789.0854181,427.1420002473242
793.510342,59.07068733835695
797.9285769,-83.32851539935291
802.3401342,91.51814999768612
806.7450253,37.23633981208695
811.1432614,-81.77880712719343
815.5348538,54.382904494130344
819.9198139,128.06494581813604
824.2981531,29.53517459744762
828.6698824,-162.00593893279438
833.0350133,34.71974661189961
837.393557,158.45682607905837
841.7455248,-15.384641726850532
846.0909278,30.484790202750446
850.4297774,231.82144200898256
854.7620848,0.1258144285675371
859.0878611,-35.977386328242574
863.4071176,348.1585209043442
867.7198655,178.9337272363482
872.026116,-69.32238349508043
876.3258802,-273.8603243067555
880.6191693,23.520883578785288
884.9059946,49.82360768985018
889.186367,-257.55038130993125
893.4602979,386.69351487289896
897.7277982,549.8911546109593
901.9888793,59.13870100913118
906.2435521,59.77964664494357
910.4918277,170.87638454797707
914.7337174,388.81208080735814
918.9692321,229.3287468860217
923.1983831,45.94111908630475
927.4211813,140.90421401227286
931.6376378,-229.9733477863174
935.8477637,89.79269166438462
940.0515701,-65.74928127208477
944.249068,-20.889846485619273
948.4402684,388.72995744000036
952.6251825,-14.647025293181287
956.8038212,48.356504500481606
960.9761955,-145.80616630857548
965.1423166,-7.668710929861845
969.3021953,58.621607657232744
973.4558427,-30.18246356705822
977.6032699,77.43520227477893
981.7444877,26.91876192063137
985.8795072,-23.099849859987444
990.0083394,16.622310127917444
994.1309953,42.889160430017
998.2474857,-34.37238925148449
1002.357822,316.2292601870922
1006.462014,106.8406507257132
1010.560075,119.82964110514877
1014.652013,-49.52107303045523
1018.737841,-359.4381165857485
1022.81757,-8.784434840154063
1026.891209,39.17970408986366
1030.958771,82.33460974539412
1035.020266,-131.60791389348014
1039.075705,-45.416481410755296
1043.1251,183.6987971813178
1047.16846,-35.79988546024833
1051.205797,-12.381453949999013
1055.237121,168.42421804922105
1059.262444,89.3779108620065
1063.281777,415.658729096549
1067.295131,343.6627680507954
1071.302515,-76.77988278778412
1075.303942,132.11083689215502
1079.299422,-167.13544940080556
1083.288966,-110.32037405619394
1087.272585,126.48998620103885
1091.250289,-159.88931738696465
1095.222091,-97.69960639403507
1099.187999,60.75895492971267
1103.148026,86.47596214548958
1107.102183,77.9539652783269
1111.050479,-18.309731623682637
1114.992927,34.04634458612145
1118.929536,102.03049762201545
1122.860318,-116.72035455349896
1126.785283,296.42510087256096
1130.704443,443.9729310112639
1134.617808,-125.6058973737081
1138.52539,46.88228514474986
1142.427198,25.852246868523252
1146.323244,-39.453942037448996
1150.213538,136.458308924437
1154.098093,-105.22039005750003
1157.976917,294.61068049715914
1161.850023,290.31511513075384
1165.717421,-45.70009860735263
1169.579121,69.02948522050815
1173.435135,-88.4314598486435
1177.285474,386.84834194057885
1181.130148,345.6795706035375
1184.969169,-31.017798725216153
1188.802547,59.989177873766494
1192.630292,149.44464014921027
1196.452416,398.0979638243182
1200.26893,100.69251532154681
1204.079844,469.8090317812596
1207.88517,504.0898852203919
1211.684917,290.8726972195343
1215.479098,257.36501602143016
1219.267722,-518.8072052696789
1223.050801,146.03696057133607
1226.828346,398.3843721760312
1230.600366,-55.946746865287764
1234.366874,116.39833529386732
1238.12788,91.2439637850805
1241.883395,154.44319114134152
1245.633429,-179.51593986315635
1249.377994,-44.89206993914701
1253.1171,296.9281499141402
1256.850759,66.8162024279614
1260.578981,-13.061116618709093
1264.301776,35.95025933839969
1268.019157,5.223106988520954
1271.731133,178.87339941618887
1275.437715,310.003368254553
1279.138915,-86.34579351420197
1282.834743,-148.79187816306884
1286.52521,58.85989088113363
1290.210328,259.42458961183144
1293.890106,48.22051987918157
1297.564555,-122.58069419700126
1301.233688,252.58108393291326
1304.897514,124.82754894554957
1308.556044,-8.636018282394474
1312.209289,14.484379713857209
1315.857261,376.30438363581914
1319.499969,249.37911528117067
1323.137425,-114.96929343364317
1326.769641,48.81166295218759
1330.396626,-194.73508308842074
1334.018391,-9.771240392746705
1337.634948,59.262699570359175
1341.246307,59.3576551443866
1344.85248,266.68411382632485
1348.453477,174.79918709402813
1352.049309,308.2964912185794
1355.639987,109.50527932790635
1359.225522,-157.08278150581748
1362.805925,48.85112797962174
1366.381207,87.04595290439859
1369.951379,-40.16650180838248
1373.516452,-88.43324307897174
1377.076436,-196.7879903513167
1380.631343,-41.92498805142375
1384.181184,56.96133675250485
1387.725969,-38.15180752252444
1391.26571,122.08292953422978
1394.800417,168.97821782273658
1398.330102,49.416126118247966
1401.854776,-119.17998440561261
1405.374448,-116.17886628092683
1408.889132,166.91200208255813
1412.398837,343.15077465557084
1415.903574,94.15983746400136
1419.403355,-276.8710360409061
1422.89819,66.9102953243441
1426.388091,91.23592768833412
1429.873069,-256.13302245459977
1433.353134,140.98447440300663
1436.828298,59.513701401859905
1440.298571,-101.4588852821116
1443.763965,80.77507720554836
1447.224491,164.45788394192513
1450.68016,152.97218216379838
1454.130983,-139.86520258156935
1457.576971,-50.76058579040861
1461.018135,-172.0145551189959
1464.454486,-128.00862558081644
1467.886036,75.65473490367577
1471.312794,159.42587259195233
1474.734774,256.8617325668476
1478.151985,-80.16377813116219
1481.564439,-2.939981511746396
1484.972146,66.36063836872756
1488.375119,296.07079299683323
1491.773368,36.9284848623397
1495.166904,-335.0651082720527
1498.555739,29.05890799592555
1501.939883,86.96309752627053
1505.319349,290.53051382111994
1508.694146,64.39612185524925
1512.064286,-35.09447157331965
1515.429781,135.4317773891005
1518.790642,110.74341296289845
1522.146879,110.72492129327748
1525.498505,332.5429729968887
1528.845529,386.184434970658
1532.187965,-160.67498951348193
1535.525822,307.26696835177813
1538.859112,164.32139938664386
1542.187846,-53.304958423798325
1545.512036,407.8208756438371
1548.831693,-308.3775860439764
1552.146829,-135.32922960955875
1555.457453,521.5595581992275
1558.763579,567.805933556041
1562.065216,419.8683820915071
1565.362377,72.24519222268054
1568.655073,49.977325537982324
1571.943315,16.579687908885717
1575.227114,112.98069385846975
1578.506482,59.03631931011432
1581.781431,-203.6872092965882
1585.051971,-7.74448512782692
1588.318114,-13.541879603408233
1591.579872,10.7968965153932
1594.837255,100.43444575687136
1598.090275,74.03613877775297
1601.338945,105.78874121031458
1604.583274,-269.44479721663083
1607.823275,72.01669106395002
1611.058959,162.52745293677435
1614.290338,-70.5169909551787
1617.517422,408.8934201893835
1620.740224,547.0441689973468
1623.958755,784.3523111509321
1627.173027,1025.5131636415044
1630.38305,1223.5773259945345
1633.588838,1225.1710914805963
1636.7904,1449.0955409718672
1639.987749,1586.3083435276185
1643.180896,1655.205761082002
1646.369853,2232.938249298515
1649.554632,2057.4350371098344
1652.735244,2331.664330235737
1655.9117,2305.4639460886447
1659.084013,1614.555387127385
1662.252193,1547.77672612891
1665.416254,1293.5758376788726
1668.576205,986.5869583205313
1671.732059,759.2537292245497
1674.883828,789.7027196156305
1678.031523,510.54680104992076
1681.175157,299.7952689689064
1684.314739,415.0706983243008
1687.450284,42.56423834244379
1690.581801,-67.80624340284703
1693.709304,18.538248963483966
1696.832803,47.77823236151289
1699.952311,9.952822419561016
1703.067839,-91.92687341252486
1706.179399,-71.35201720680152
1709.287003,-24.424549675345133
1712.390663,66.98458116323081
1715.49039,10.472974574583986
1718.586197,145.75617286067654
1721.678095,346.1741776508052
1724.766096,218.47092842037773
1727.850213,-70.34704770474082
1730.930456,-213.27879595248396
1734.006838,106.44195788369598
1737.079372,37.56582312503633
1740.148067,43.649385502787254
1743.212938,172.58574121836978
1746.273996,-6.601606576909944
1749.331252,118.33240649913319
1752.384718,31.502363505949006
1755.434408,126.10808899873302
1758.480332,83.29647538600489
1761.522503,0.07596426369968867
1764.560933,-232.4811808687318
1767.595634,-447.7681271315515
1770.626618,13.282888756158087
1773.653896,18.895619875928652
1776.677482,-119.62410169477899
1779.697388,-202.40063852095045
1782.713625,112.4256318687365
1785.726205,285.3749894387511
1788.735141,187.48492175709444
1791.740445,248.424883551964
1794.742129,-9.165691185173387
1797.740206,76.9204703179687
1800.734687,358.15156675273784
1803.725585,560.1294986039874
1806.712912,324.15700845905315
1809.69668,248.53175260960438
1812.676902,419.41364702252525
1815.65359,53.65486444444608
1818.626756,42.906287741506084
1821.596413,39.36547847407148
1824.562573,-240.5114364532978
1827.525247,46.40289139713065
1830.48445,174.71578437971664
1833.440192,120.01547950436452
1836.392487,216.7091453176129
1839.341347,-116.46404035708443
1842.286784,-100.70202003233507
1845.22881,-60.264828635937036
1848.167439,-29.619215065042482
1851.102682,147.2934323844931
1854.034553,-2.861310639601818
1856.963063,122.34776972467881
1859.888226,44.22407477801916
1862.810053,53.96359220744093
1865.728557,-50.51817764307021
1868.643751,-60.80759501390571
1871.555648,-17.727668454841236
1874.46426,-288.06520639972655
1877.369599,83.77251676239082
1880.271679,-33.36079421930725
1883.170512,-131.95526932541236
1886.06611,151.6510316839102
1888.958487,39.57319681168061
1891.847655,-33.41601566635204
1894.733626,73.57557317016281
1897.616414,103.14614618776348
1900.496032,-82.97982702318167
1903.372491,15.70146240836889
1906.245805,150.13888270368597
1909.115987,225.3686859293036
1911.983049,25.817048752383116
1914.847004,-156.05767936533948
1917.707866,99.73119909869503
1920.565646,-27.134156912214642
1923.420359,-159.61369140827057
1926.272016,-103.41138811196402
1929.120631,-105.85080581289532
1931.966216,189.99919034199038
1934.808786,188.4964580181573
1937.648351,67.35738187815019
1940.484927,-16.603827085133126
1943.318525,-297.30341391676217
1946.149158,108.68007655525167
1948.97684,347.9730367437215
1951.801584,-44.190802310191806
1954.623403,33.679844630329356
1957.44231,146.49328322261331
1960.258318,-47.11964792985594
1963.071439,-19.767788705407437
1965.881688,307.7584058510594
1968.689078,500.1005931109945
1971.493621,-29.320001173996957
