Raman shift cm-1,4ATP_10nM_rep2_acc2_processed_intensity
-93.47115107,566.3141575982374
-87.69374369,127.9153367182689
-81.9253076,-8.855486467161725
-76.16582701,78.01358387283973
-70.41528615,105.79283726545523
-64.67366933,12.416727745162305
-58.94096086,-46.69562664190933
-53.21714512,-15.300487525461264
-47.50220652,45.794999638683436
-41.79612954,121.47018795100183
-36.09889866,183.96205315311326
-30.41049843,161.77007325200856
-24.73091343,84.41591657883089
-19.0601283,42.83941694411861
-13.39812769,23.01375547159427
-7.744896327,-18.07890843254779
-2.100418946,-32.662309178216354
3.535319659,2.9469411569713557
9.162334658,18.545671960369134
14.78064118,-15.55454820293695
20.39025432,-22.472088397668855
25.99118913,53.30550560592085
31.58346061,135.43308750017061
37.16708375,136.33412456310796
42.74207347,94.04073347110689
48.30844468,44.528838526063595
53.86621222,-43.66805713952374
59.41539093,-107.61150904826991
64.95599558,-45.99481869586599
70.48804091,52.62718529627376
76.01154164,38.40759814449251
81.52651243,-16.616948022768078
87.03296792,29.521870316356736
92.5309227,107.27846821158275
98.02039134,96.51934685740973
103.5013884,33.032386062335505
108.9739282,-5.435521438959146
114.4380255,41.87429278324269
119.8936944,187.41159011319462
125.3409495,257.01416558582235
130.779805,101.22335466432554
136.2102753,-83.57148691289844
141.6323747,-60.10174943799165
147.0461174,47.447530921187365
152.4515176,30.842678071021524
157.8485895,-46.709367442098525
163.2373472,-38.6261062352527
168.6178049,24.310867204421058
173.9899766,31.166196784114724
179.3538764,1.3293127379738152
184.7095182,44.6934970829141
190.0569161,134.56464395644525
195.396084,128.78004069119675
200.7270358,33.16586550049776
206.0497854,-10.679428429065172
211.3643466,18.979271303036924
216.6707333,28.707929489535687
221.9689593,9.255872995100068
227.2590382,4.8892857983972355
232.5409839,-16.447706161228183
237.8148101,-65.67807411635548
243.0805303,-57.70679432831138
248.3381582,34.09110099737199
253.5877075,107.26800081914513
258.8291917,82.84502281136457
264.0626244,28.68951888668432
269.288019,44.83169847731092
274.5053891,78.53618282003752
279.7147481,10.024792590241123
284.9161094,-103.17773006744363
290.1094865,15.806979863854396
295.2948927,701.4406793747461
300.4723414,2075.7502527205784
305.6418459,3827.560656271584
310.8034194,5388.4022496671205
315.9570752,6390.1225551855605
321.1028267,6845.617974320087
326.2406869,6970.5410827550095
331.370669,6974.162848676931
336.4927863,6990.242341735994
341.6070517,7095.352948009526
346.7134786,7258.101180756765
351.8120798,7320.486128442169
356.9028684,7208.646658907987
361.9858576,7016.047924470754
367.0610602,6789.334555834347
372.1284892,6570.639404456974
377.1881577,6613.349145123097
382.2400784,7105.30549416639
387.2842644,7732.990937125467
392.3207284,7929.446878163944
397.3494833,7544.244586518637
402.370542,6901.347190367617
407.3839172,6269.038388595212
412.3896217,5698.261234047186
417.3876683,5217.32127963519
422.3780697,4844.031012388306
427.3608386,4585.027132724874
432.3359876,4455.569138660963
437.3035295,4353.153379954462
442.2634769,4132.66708282446
447.2158423,3851.8382282403027
452.1606383,3633.8484709772715
457.0978776,3422.514138777129
462.0275727,3185.3599541463445
466.9497361,3062.002970330137
471.8643802,3077.962784478519
476.7715176,3059.0879784659546
481.6711608,2924.8189263089184
486.5633221,2760.6478811934116
491.448014,2619.5544468718003
496.3252488,2496.8211981399136
501.195039,2399.4147128911477
506.0573969,2266.478684223508
510.9123349,2014.78461190107
515.7598651,1737.1314924250569
520.6,1595.5304542904346
525.4327518,1558.7996840038486
530.2581327,1495.9962020523612
535.076155,1385.5186870934012
539.8868309,1255.180800889908
544.6901726,1119.4727506506579
549.4861922,1026.9217873736284
554.2749019,985.3376016064631
559.0563139,956.6367814775967
563.8304402,952.6220791395726
568.597293,909.2641174812516
573.3568844,702.4053802040539
578.1092263,441.71729900121545
582.8543308,330.94843537003317
587.5922101,320.98302518871014
592.322876,282.40422443623766
597.0463405,216.1472999831517
601.7626157,123.40869753179004
606.4717135,26.51956731220662
611.1736458,45.852741823240194
615.8684246,185.14363799316152
620.5560617,257.9171282080829
625.2365691,190.05259568842257
629.9099585,125.54346299880035
634.5762419,134.1310272603555
639.2354312,128.44616122461366
643.887538,105.17742338601784
648.5325743,135.43043302035449
653.1705518,168.8766074344412
657.8014823,109.68105995183123
662.4253775,-8.748228812904472
667.0422493,-65.82996289828225
671.6521092,-4.527884620051282
676.2549691,115.16449350044923
680.8508407,189.22173316338012
685.4397355,155.69292147489887
690.0216654,34.98243158997275
694.5966419,-50.789737800305375
699.1646767,25.650777919373468
703.7257814,223.9505819279857
708.2799676,360.6239546274228
712.827247,332.9962550662244
717.367631,205.14860338580706
721.9011314,66.84241061285638
726.4277595,-20.468473518178143
730.9475271,33.53107094766165
735.4604456,207.25208991439763
739.9665264,290.159484608502
744.4657813,182.31765336153808
748.9582215,33.81655318863818
753.4438587,-27.576666946501064
757.9227042,-22.21112838475665
762.3947696,30.96751699855713
766.8600662,137.31242826721063
771.3186056,224.74981478364975
775.770399,204.75050732990007
780.215458,104.2297526927457
784.6537939,15.757956984443354
789.0854181,-4.395001744813726
793.510342,72.2773677423827
797.9285769,220.01031045380785
802.3401342,303.0537574658266
806.7450253,207.13245912242076
811.1432614,24.803737423732912
815.5348538,-53.024906594105516
819.9198139,5.049450957652709
824.2981531,75.82131431063891
828.6698824,69.2057857347865
833.0350133,8.646521387728427
837.393557,-26.267991492695614
841.7455248,-14.884658340025481
846.0909278,-4.130383743776804
850.4297774,2.737969581903428
854.7620848,22.76347192820139
859.0878611,21.926879251699436
863.4071176,16.799772263391226
867.7198655,91.0272350890246
872.026116,218.2866272962107
876.3258802,274.0980578660089
880.6191693,250.06705780374534
884.9059946,218.15179920154378
889.186367,133.55781366801685
893.4602979,-30.946342932360466
897.7277982,-100.2886644678067
901.9888793,24.51522749852282
906.2435521,138.9727189231744
910.4918277,78.15567135394554
914.7337174,-11.451459288103122
918.9692321,25.362173858479643
923.1983831,93.88156370798293
927.4211813,75.73320245936058
931.6376378,47.09544060235608
935.8477637,102.83873890052574
940.0515701,160.39911062129113
944.249068,114.48662253979785
948.4402684,25.080306028792222
952.6251825,-9.632751867731884
956.8038212,-5.259442233634331
960.9761955,-4.322044425163938
965.1423166,14.236047702087006
969.3021953,64.01558187878905
973.4558427,96.74384212844151
977.6032699,81.16996507964103
981.7444877,39.473759075353485
985.8795072,-1.6642700797231953
990.0083394,-16.023268474217858
994.1309953,-8.182609520828976
998.2474857,-21.515871853615764
1002.357822,-36.646725656554054
1006.462014,-1.5186996087239493
1010.560075,53.755989178086466
1014.652013,74.44447173468515
1018.737841,48.18611400707007
1022.81757,-7.076191017953132
1026.891209,-33.75679168076832
1030.958771,5.609008635345725
1035.020266,64.16947246520434
1039.075705,89.73363504570752
1043.1251,77.78373621223322
1047.16846,33.59077812635067
1051.205797,-20.551256582443656
1055.237121,-47.58865686722531
1059.262444,-12.669865841226226
1063.281777,162.74636527445074
1067.295131,561.2576916630906
1071.302515,1128.1975037636812
1075.303942,1648.5799714985849
1079.299422,1850.5266305152265
1083.288966,1587.2952445825065
1087.272585,1028.1844294797138
1091.250289,534.1210246585216
1095.222091,276.18999778121514
1099.187999,152.7795726139707
1103.148026,46.37499677597691
1107.102183,-36.411570227731104
1111.050479,-42.94883081696342
1114.992927,28.40073005898612
1118.929536,109.254188033662
1122.860318,148.46257408989737
1126.785283,205.91591505520014
1130.704443,366.57522991626496
1134.617808,583.3661117613985
1138.52539,708.4934594001496
1142.427198,661.8682505842385
1146.323244,516.9672289269514
1150.213538,392.45679893526085
1154.098093,286.2288798161951
1157.976917,147.48022814277812
1161.850023,38.54145968320256
1165.717421,39.109373902520275
1169.579121,112.12549469344856
1173.435135,188.321678553197
1177.285474,271.99394377526806
1181.130148,388.66444736008003
1184.969169,475.4691261471662
1188.802547,431.0936431140307
1192.630292,274.68759438212663
1196.452416,117.70325041520164
1200.26893,6.589503739039692
1204.079844,-66.73179621106144
1207.88517,-67.77587377436762
1211.684917,34.59029188500756
1215.479098,151.85958014159934
1219.267722,135.29988520275322
1223.050801,11.996927905419074
1226.828346,-36.65659162775956
1230.600366,14.346235997144603
1234.366874,50.292633222120145
1238.12788,79.31849291456801
1241.883395,160.02309588318013
1245.633429,211.15812486996484
1249.377994,133.45897785375502
1253.1171,0.7405423068791848
1256.850759,-37.06082578469916
1260.578981,51.51564529766067
1264.301776,161.1961896178875
1268.019157,155.52808668608793
1271.731133,50.274886506818824
1275.437715,31.330386929449542
1279.138915,120.77731095674507
1282.834743,97.05064583937548
1286.52521,-69.98408390938772
1290.210328,-117.51855156941176
1293.890106,50.69000155356652
1297.564555,215.67603386109735
1301.233688,226.49684763087825
1304.897514,173.66411070986524
1308.556044,121.89114710355923
1312.209289,26.006044332957696
1315.857261,-43.43020284174045
1319.499969,37.66972452867609
1323.137425,191.79379350796364
1326.769641,262.45814747677673
1330.396626,237.42920472814114
1334.018391,173.22722787729538
1337.634948,96.02332267251845
1341.246307,27.38952809161455
1344.85248,-3.600318496257046
1348.453477,15.294232794848952
1352.049309,84.1974621574513
1355.639987,202.66068378293102
1359.225522,306.93777145806393
1362.805925,286.2301836871217
1366.381207,179.52509533818773
1369.951379,183.0289759682034
1373.516452,357.9866999530469
1377.076436,553.4232888296237
1380.631343,661.4823279744597
1384.181184,705.8506995463791
1387.725969,690.0304125613717
1391.26571,586.4400016513116
1394.800417,448.12956642582253
1398.330102,358.2377786266079
1401.854776,288.72180785731683
1405.374448,150.3203843142013
1408.889132,-14.144983258809276
1412.398837,-33.30563646781178
1415.903574,139.04185392426282
1419.403355,323.9690898365857
1422.89819,380.04808959688995
1426.388091,376.0513241282087
1429.873069,388.1435168044559
1433.353134,379.8984638220476
1436.828298,335.76733671888
1440.298571,276.88634020424405
1443.763965,189.04373179758846
1447.224491,80.50958242833259
1450.68016,11.376791279282273
1454.130983,4.607471747558505
1457.576971,28.492509598824654
1461.018135,67.0264693741705
1464.454486,104.45311950308303
1467.886036,83.85375905243549
1471.312794,15.6083262943682
1474.734774,35.568870904595926
1478.151985,162.16049908716911
1481.564439,183.132194368738
1484.972146,19.082503403804083
1488.375119,-95.7314390782803
1491.773368,-7.780474726992452
1495.166904,123.60979925856961
1498.555739,138.66177483396336
1501.939883,104.32759832496211
1505.319349,116.86869241574043
1508.694146,129.9556576264407
1512.064286,83.18294016168637
1515.429781,32.11488538467813
1518.790642,27.580772528759844
1522.146879,3.197889924680478
1525.498505,-66.74672123845417
1528.845529,-78.20998292840265
1532.187965,1.0151120705818357
1535.525822,63.014064905928635
1538.859112,44.28133746769961
1542.187846,4.693516904368778
1545.512036,32.49879797679445
1548.831693,111.6363739694722
1552.146829,118.7474178450422
1555.457453,33.561047565426705
1558.763579,13.00380533526814
1562.065216,154.05666203046064
1565.362377,359.3649087548306
1568.655073,491.53558498693775
1571.943315,529.1539926333566
1575.227114,556.6674680050046
1578.506482,647.0563183372451
1581.781431,778.9866399271406
1585.051971,901.0214403287094
1588.318114,979.5829051549782
1591.579872,937.3013659064707
1594.837255,735.826220749345
1598.090275,511.62025956738887
1601.338945,398.45405125962293
1604.583274,308.7423614846793
1607.823275,128.3343873270566
1611.058959,-40.939159390683926
1614.290338,-59.13608667518784
1617.517422,36.90001074021597
1620.740224,125.6139571738346
1623.958755,126.68207422503559
1627.173027,42.51290018223168
1630.38305,-31.50964455297886
1633.588838,-1.2681109177924148
1636.7904,101.38113845612061
1639.987749,147.47906655740482
1643.180896,102.26422326762108
1646.369853,77.8647468910788
1649.554632,96.3575658082998
1652.735244,50.8336337451334
1655.9117,-22.07295352333248
1659.084013,-15.097519349758365
1662.252193,1.6477372810144644
1665.416254,-20.341386322448486
1668.576205,24.798713698505715
1671.732059,110.12518264577756
1674.883828,88.60943633432572
1678.031523,13.58310204761376
1681.175157,37.49094927158562
1684.314739,116.26416009011778
1687.450284,112.59618043431698
1690.581801,29.523754696058425
1693.709304,-36.64711438753019
1696.832803,-43.31030169829458
1699.952311,2.8559460096032225
1703.067839,94.13753115549748
1706.179399,173.19283640235446
1709.287003,159.5105540014526
1712.390663,107.1504580718304
1715.49039,138.10138211628586
1718.586197,196.14175195583954
1721.678095,134.30713491435415
1724.766096,-3.56544402444721
1727.850213,-55.879643223494405
1730.930456,-14.255718926576435
1734.006838,14.326004906686663
1737.079372,36.23720032598821
1740.148067,124.14321603932464
1743.212938,210.4298562160082
1746.273996,180.86234130700356
1749.331252,86.57014534290951
1752.384718,43.48854407486229
1755.434408,51.83988524106318
1758.480332,44.65345963927369
1761.522503,-16.353053502084887
1764.560933,-86.61393407238074
1767.595634,-46.70942427788914
1770.626618,93.22687903854515
1773.653896,135.89424832321632
1776.677482,33.230786908963736
1779.697388,-8.370613924245726
1782.713625,107.77871065047916
1785.726205,211.15135955174316
1788.735141,139.81127164127128
1791.740445,-7.850634132051819
1794.742129,3.722309195041607
1797.740206,184.06283497767242
1800.734687,285.0164645533418
1803.725585,198.52295846768857
1806.712912,78.75645646359759
1809.69668,31.816531698602837
1812.676902,7.958253410521262
1815.65359,-22.760815313209115
1818.626756,-32.11890711240861
1821.596413,-9.59043366591269
1824.562573,25.427493951418285
1827.525247,39.320388252286165
1830.48445,19.957055019953337
1833.440192,-10.156467658514108
1836.392487,-29.857157202844647
1839.341347,-32.50566572512495
1842.286784,-16.757534861240458
1845.22881,18.914866713631458
1848.167439,47.116520120265875
1851.102682,20.464238912043577
1854.034553,5.686863750333423
1856.963063,122.93475064151801
1859.888226,265.85838083673366
1862.810053,232.52642902541297
1865.728557,78.1988506314822
1868.643751,-31.877188175310643
1871.555648,-74.03692291985533
1874.46426,-59.5426113991178
1877.369599,-0.4711299421158337
1880.271679,29.822311253603708
1883.170512,18.593562411763948
1886.06611,21.857741070579575
1888.958487,30.013224767097086
1891.847655,24.942324908066517
1894.733626,32.346244325790764
1897.616414,23.810066624180102
1900.496032,-28.54569362708961
1903.372491,-49.69738778283077
1906.245805,9.493449154012396
1909.115987,62.42729605981854
1911.983049,32.57074692538734
1914.847004,-2.425021054686331
1917.707866,40.59325950804843
1920.565646,72.78294549977109
1923.420359,3.3701943629454334
1926.272016,-77.62502589619716
1929.120631,-67.98622287778306
1931.966216,-4.953053161642213
1934.808786,33.6258862126008
1937.648351,26.301162474407537
1940.484927,14.109849448975242
1943.318525,76.44617370610375
1946.149158,214.3715058443379
1948.97684,282.28610175264606
1951.801584,197.74033184123545
1954.623403,80.20932612706574
1957.44231,23.473041123199472
1960.258318,-9.09745150617449
1963.071439,-17.189440839558433
1965.881688,19.013345208954156
1968.689078,28.26181711152575
1971.493621,-39.39356701026258
