Raman shift cm-1,4ATP_1nM_rep3_acc3_processed_intensity
-93.47115107,399.7429611647114
-87.69374369,112.59258729330213
-81.9253076,-3.3817153634081265
-76.16582701,48.64114198326007
-70.41528615,59.56093148439679
-64.67366933,-29.50503016351729
-58.94096086,-51.39871575467187
-53.21714512,-10.811797245928936
-47.50220652,2.33933933659236
-41.79612954,96.43307038636867
-36.09889866,242.19424504698395
-30.41049843,202.04662038154976
-24.73091343,40.87827614255086
-19.0601283,-7.574726449922281
-13.39812769,1.3334844409198254
-7.744896327,-12.276153303392874
-2.100418946,27.345523298128384
3.535319659,69.73252939918692
9.162334658,41.82570750516911
14.78064118,1.3640968215658802
20.39025432,-17.02402434485409
25.99118913,30.013416415715312
31.58346061,123.97506858567102
37.16708375,95.85348345869826
42.74207347,-23.043168516299783
48.30844468,-25.759338663833933
53.86621222,12.271139353052863
59.41539093,-55.59736136870536
64.95599558,-70.11034440679155
70.48804091,28.195457732149585
76.01154164,32.710073721880136
81.52651243,12.49731538561819
87.03296792,144.34973269376582
92.5309227,207.24952235709176
98.02039134,83.94818736325112
103.5013884,7.4984251987241635
108.9739282,2.5547702062069657
114.4380255,38.0615613563361
119.8936944,235.51344246659744
125.3409495,359.74071092864534
130.779805,161.5204800754529
136.2102753,0.9928176652660241
141.6323747,140.8477545160195
147.0461174,281.2281877131209
152.4515176,232.01261374275452
157.8485895,140.36391698590188
163.2373472,137.02556052586598
168.6178049,233.25168859473075
173.9899766,324.7257443310463
179.3538764,309.9670109015336
184.7095182,288.62822979653174
190.0569161,354.37027797787425
195.396084,391.653261843355
200.7270358,329.1709457473696
206.0497854,257.2564724690431
211.3643466,255.92808673750463
216.6707333,293.05859734381517
221.9689593,289.06538682247094
227.2590382,252.05395280617492
232.5409839,227.3060364825292
237.8148101,220.51603684945943
243.0805303,226.6278238080156
248.3381582,214.54251458863894
253.5877075,180.06501430842465
258.8291917,138.04934896566948
264.0626244,98.34011460087034
269.288019,107.46500115786975
274.5053891,107.6089376205444
279.7147481,11.588187898684223
284.9161094,-47.741492194971
290.1094865,293.7335953786341
295.2948927,1809.4869548796316
300.4723414,5311.154166812546
305.6418459,10260.430378920462
310.8034194,14659.622994339865
315.9570752,17051.39697513758
321.1028267,17815.673272370655
326.2406869,18110.325321969605
331.370669,18406.93801945006
336.4927863,18652.776950899224
341.6070517,18996.733488378857
346.7134786,19463.53704694853
351.8120798,19626.875834351908
356.9028684,19366.580211877867
361.9858576,19136.92032942153
367.0610602,19048.615376701153
372.1284892,18830.059591478086
377.1881577,18738.532172888306
382.2400784,19237.939702271608
387.2842644,20036.084563005872
392.3207284,20393.72176963497
397.3494833,20036.943315351564
402.370542,19181.568115694095
407.3839172,18115.681331554326
412.3896217,17174.61978175947
417.3876683,16521.72702938862
422.3780697,15978.398447939417
427.3608386,15519.09655417321
432.3359876,15231.480291177564
437.3035295,14880.161009568637
442.2634769,14322.931192364245
447.2158423,13775.832095906471
452.1606383,13380.67130223197
457.0978776,13106.858772070455
462.0275727,12873.95132655753
466.9497361,12574.219772124987
471.8643802,12302.697766357105
476.7715176,12252.190236545652
481.6711608,12256.611462360317
486.5633221,12030.563512561897
491.448014,11644.059963988402
496.3252488,11310.542818818685
501.195039,11061.522257047509
506.0573969,10779.07747099737
510.9123349,10390.802576539874
515.7598651,9987.658754057626
520.6,9646.624600066665
525.4327518,9263.528565934119
530.2581327,8808.735316032431
535.076155,8464.311217504583
539.8868309,8184.855489067656
544.6901726,7770.2021687784145
549.4861922,7447.434195897192
554.2749019,7322.696023934565
559.0563139,7042.274118766021
563.8304402,6728.288849648947
568.597293,6607.349272408654
573.3568844,6321.64974233584
578.1092263,5958.988943289183
582.8543308,5894.87761088048
587.5922101,5791.035475929513
592.322876,5489.262125187903
597.0463405,5311.642381333353
601.7626157,5117.583223951386
606.4717135,4752.667908903615
611.1736458,4523.4840626394525
615.8684246,4459.490070852942
620.5560617,4287.058430824496
625.2365691,4027.875324951714
629.9099585,3822.338864436959
634.5762419,3572.9314616964075
639.2354312,3215.9372285267145
643.887538,2942.427763556767
648.5325743,2830.937003432471
653.1705518,2673.8600883040144
657.8014823,2399.5367955602924
662.4253775,2188.667132019782
667.0422493,2074.7431798711877
671.6521092,1944.0310106377983
676.2549691,1808.493187463373
680.8508407,1683.7154818822219
685.4397355,1522.3754275659994
690.0216654,1393.6604132837547
694.5966419,1396.5735257925771
699.1646767,1443.5783941665777
703.7257814,1376.9965131086046
708.2799676,1229.3738677431884
712.827247,1134.396402654982
717.367631,1057.790201481972
721.9011314,881.6996131428041
726.4277595,689.1015328152025
730.9475271,625.8464795925702
735.4604456,632.785559162161
739.9665264,649.2280679890646
744.4657813,644.9408079723507
748.9582215,464.41236855189163
753.4438587,179.5515467998539
757.9227042,49.900902090806994
762.3947696,45.635401631630884
766.8600662,81.365869967447
771.3186056,188.01818323215593
775.770399,279.200169677144
780.215458,282.9379359754221
784.6537939,174.67559165679995
789.0854181,18.347409253980004
793.510342,71.48053596375485
797.9285769,277.01312418187354
802.3401342,323.236833636759
806.7450253,300.1855014653047
811.1432614,294.88277981797
815.5348538,146.27641757479887
819.9198139,27.484592126598727
824.2981531,98.0275442299253
828.6698824,73.21599777097254
833.0350133,-78.62772410419166
837.393557,-62.066145881406555
841.7455248,20.28946706440911
846.0909278,-31.70800863351542
850.4297774,-12.186241459785379
854.7620848,138.0218189539537
859.0878611,179.93981347572299
863.4071176,167.3203563705074
867.7198655,301.9431247543371
872.026116,456.03622756295226
876.3258802,440.7536373228386
880.6191693,370.672097571246
884.9059946,384.2719452685915
889.186367,331.3506188127476
893.4602979,100.76556196904403
897.7277982,-36.625714086315384
901.9888793,132.68807341252977
906.2435521,309.2490727491395
910.4918277,198.60817964205853
914.7337174,43.41873929689791
918.9692321,113.37781812226058
923.1983831,252.77575361698837
927.4211813,250.04969799176342
931.6376378,156.8696195410339
935.8477637,170.94518441778473
940.0515701,284.94158715892536
944.249068,244.1542011363308
948.4402684,46.47226126083842
952.6251825,-31.19554471911806
956.8038212,106.46838888056527
960.9761955,296.31002038469796
965.1423166,325.7060114044425
969.3021953,225.9384478184279
973.4558427,191.80105601708874
977.6032699,205.71193636321004
981.7444877,165.7587447348251
985.8795072,86.70687673954035
990.0083394,27.070727336663822
994.1309953,19.180872443538647
998.2474857,9.358359536579428
1002.357822,14.20711336425984
1006.462014,107.79913518142303
1010.560075,212.99449510786235
1014.652013,265.5850652090603
1018.737841,231.411485319853
1022.81757,75.30571825619154
1026.891209,-35.14528763952603
1030.958771,4.850010666683374
1035.020266,44.852717670892616
1039.075705,14.798176497365148
1043.1251,-14.114963247273863
1047.16846,-18.05724307630271
1051.205797,-31.05269643324573
1055.237121,-61.381713850663346
1059.262444,-5.749398675136263
1063.281777,340.68307593374993
1067.295131,1011.385836728891
1071.302515,1772.9715005962748
1075.303942,2447.0058077114036
1079.299422,2738.811576631382
1083.288966,2232.4391603843706
1087.272585,1301.4987508020354
1091.250289,694.7349091812453
1095.222091,342.81255902935845
1099.187999,32.98060444908538
1103.148026,-31.923379320963704
1107.102183,46.89269465697885
1111.050479,22.065230865895728
1114.992927,-7.401419966429103
1118.929536,79.73529295238836
1122.860318,198.37758129524343
1126.785283,307.11887897636393
1130.704443,556.4855553940604
1134.617808,922.8538064353756
1138.52539,1054.5488080455884
1142.427198,837.2572093354322
1146.323244,617.1294314936575
1150.213538,631.4146481647394
1154.098093,642.6542251948597
1157.976917,471.6200938611486
1161.850023,403.15441757027133
1165.717421,579.0407089476025
1169.579121,718.7457507239982
1173.435135,680.7898301466189
1177.285474,650.5319149199846
1181.130148,749.9442268599701
1184.969169,778.863875741092
1188.802547,562.0816892428018
1192.630292,299.3529601046339
1196.452416,181.89033691143828
1200.26893,107.90634785241134
1204.079844,9.700097303048125
1207.88517,-52.72850151810176
1211.684917,-30.307692080717217
1215.479098,94.28360055962649
1219.267722,156.87384005585213
1223.050801,35.12122018071546
1226.828346,-57.222655515751526
1230.600366,-9.860307153089884
1234.366874,35.14464024047994
1238.12788,27.758609978262164
1241.883395,45.49909525910249
1245.633429,144.27713428582712
1249.377994,193.16225675923232
1253.1171,77.3361989244361
1256.850759,-3.992409294181641
1260.578981,100.02648773205499
1264.301776,205.91794832578938
1268.019157,145.05219600116405
1271.731133,18.723128144296044
1275.437715,22.557261856419537
1279.138915,188.67039108932488
1282.834743,292.8822531432491
1286.52521,118.4879365584842
1290.210328,-90.10223771357352
1293.890106,23.421526338591743
1297.564555,197.07207316927386
1301.233688,123.47480649286847
1304.897514,98.21218401343359
1308.556044,206.27011064544936
1312.209289,112.82916288744076
1315.857261,-45.38017215582254
1319.499969,73.8539447841577
1323.137425,263.61150877607776
1326.769641,251.64077821858893
1330.396626,189.0320413342526
1334.018391,202.05804259757812
1337.634948,144.51485153159499
1341.246307,11.508517378944816
1344.85248,-2.743168430459235
1348.453477,45.42040329921966
1352.049309,34.35268824074083
1355.639987,67.09066250443459
1359.225522,94.67662408691248
1362.805925,11.95108270630493
1366.381207,-40.432106358002926
1369.951379,15.842129522197268
1373.516452,159.4870115473883
1377.076436,355.74755360004656
1380.631343,407.55606131696317
1384.181184,292.5768619653305
1387.725969,251.38450290573076
1391.26571,228.99064208654312
1394.800417,87.34157241823183
1398.330102,41.42227791997774
1401.854776,151.0646407821057
1405.374448,159.23151538512667
1408.889132,6.195430619129574
1412.398837,-105.15172864925046
1415.903574,15.246467350271715
1419.403355,266.4292032490511
1422.89819,364.74431750636455
1426.388091,356.4586053105237
1429.873069,429.0625850899199
1433.353134,446.78296295364794
1436.828298,287.55710739335865
1440.298571,95.18853429519663
1443.763965,-4.846271856989315
1447.224491,-2.4295194944591607
1450.68016,31.649318712157974
1454.130983,7.992585567210179
1457.576971,14.70254595393363
1461.018135,140.02668856857295
1464.454486,191.05087447940042
1467.886036,59.21258365392178
1471.312794,-36.096211764300534
1474.734774,42.39193346803222
1478.151985,152.31338813786698
1481.564439,117.40375844236678
1484.972146,-21.742596308182286
1488.375119,-71.2810530076468
1491.773368,-15.861423219490163
1495.166904,46.768783192903044
1498.555739,129.8768046320286
1501.939883,141.96852289444
1505.319349,22.75718533828558
1508.694146,2.36545015977552
1512.064286,111.68436089381893
1515.429781,124.33614580556826
1518.790642,91.51016442837908
1522.146879,97.83747324552462
1525.498505,23.49026662576773
1528.845529,-26.41449710034044
1532.187965,99.5323275031459
1535.525822,240.1300966489393
1538.859112,286.87217003936877
1542.187846,298.8485046905527
1545.512036,360.74363975305744
1548.831693,532.3480263134879
1552.146829,607.6833063301074
1555.457453,441.8441110596399
1558.763579,363.3567789472795
1562.065216,574.8081133591958
1565.362377,835.5594390048028
1568.655073,971.5974372768667
1571.943315,1014.2089008569943
1575.227114,1072.9825312952612
1578.506482,1235.2309677859039
1581.781431,1355.793347572724
1585.051971,1348.410377814097
1588.318114,1373.166899949168
1591.579872,1310.2910698750343
1594.837255,949.8765300414145
1598.090275,586.103001141774
1601.338945,479.48548293687105
1604.583274,387.93794685534345
1607.823275,190.50400887148078
1611.058959,82.37731922162732
1614.290338,45.6484798401724
1617.517422,-5.820053669269896
1620.740224,45.70443788770575
1623.958755,148.79015802782186
1627.173027,118.88263845159162
1630.38305,-7.727434693285971
1633.588838,-49.1854586075203
1636.7904,98.9355067614996
1639.987749,228.14302544616973
1643.180896,104.48304943569771
1646.369853,18.665764705843927
1649.554632,160.49308673530584
1652.735244,129.29428291301178
1655.9117,-84.24439369759179
1659.084013,-38.0767960252697
1662.252193,112.62166521510986
1665.416254,43.544948973160956
1668.576205,18.181489561760415
1671.732059,167.7355226264125
1674.883828,187.35106590518626
1678.031523,59.938952445165654
1681.175157,16.82473027981809
1684.314739,43.096829441039986
1687.450284,27.955527624348406
1690.581801,-22.31848150893923
1693.709304,-52.00951346122229
1696.832803,-4.9143163584336875
1699.952311,89.3938165501373
1703.067839,160.8352277267919
1706.179399,223.4847337282945
1709.287003,234.21836764557185
1712.390663,153.46787959194927
1715.49039,132.6778085777072
1718.586197,195.92933204800713
1721.678095,162.7286884692341
1724.766096,41.48374425911563
1727.850213,-34.45537220803787
1730.930456,-45.83875416806299
1734.006838,-16.780431616111272
1737.079372,46.26027938158354
1740.148067,141.31751450580674
1743.212938,200.16663331799288
1746.273996,135.26263687219972
1749.331252,40.62746359034959
1752.384718,46.770705820057536
1755.434408,111.56233557722852
1758.480332,171.88828957221068
1761.522503,153.24324272658492
1764.560933,-8.472725748132753
1767.595634,-95.94791489783778
1770.626618,69.43562533718983
1773.653896,181.5334085084748
1776.677482,46.181831877052815
1779.697388,-22.269152067982414
1782.713625,133.62055305791168
1785.726205,277.2525578889368
1788.735141,202.9982543137655
1791.740445,11.205631481797353
1794.742129,28.91960173970315
1797.740206,254.15079878802212
1800.734687,327.3220108068411
1803.725585,251.01865861769244
1806.712912,221.97998128565348
1809.69668,145.20723344418562
1812.676902,14.618501909970139
1815.65359,-30.248998449815026
1818.626756,-40.512625338800866
1821.596413,-53.250726090487554
1824.562573,-2.778710493967985
1827.525247,64.73471357855163
1830.48445,72.76566860638417
1833.440192,34.1451043462676
1836.392487,14.100952275822607
1839.341347,40.837253189044574
1842.286784,34.016400627078994
1845.22881,-11.417371839078427
1848.167439,7.502011315230405
1851.102682,32.50800658325166
1854.034553,8.81927347250506
1856.963063,73.02958686861766
1859.888226,179.30660557317486
1862.810053,127.95251476781797
1865.728557,10.66064679144528
1868.643751,-34.78825629488257
1871.555648,-73.1619516147398
1874.46426,-29.614015824693837
1877.369599,113.11229392560114
1880.271679,115.54811588447485
1883.170512,34.60932310267466
1886.06611,69.77072492065001
1888.958487,68.3646054367116
1891.847655,-33.71813471252021
1894.733626,-41.286739580238915
1897.616414,40.107846226000035
1900.496032,47.69476610894923
1903.372491,-4.083435970411848
1906.245805,29.5943301315426
1909.115987,125.98601080802987
1911.983049,102.3510343694098
1914.847004,-1.3758134390642525
1917.707866,-5.927892321434371
1920.565646,27.458394744675715
1923.420359,12.511913079346932
1926.272016,6.043885969714271
1929.120631,-16.99158657562025
1931.966216,-60.58135696561483
1934.808786,-9.127350448458234
1937.648351,81.16591943712278
1940.484927,34.71490927547054
1943.318525,-2.6453392455839855
1946.149158,198.41482923705328
1948.97684,372.3771871155005
1951.801584,239.37589160234387
1954.623403,79.23451894912279
1957.44231,83.4555225286593
1960.258318,34.57523362979426
1963.071439,-62.939653307400924
1965.881688,-9.598229740194421
1968.689078,83.46625586562033
1971.493621,34.67200819737444
