Raman shift cm-1,4ATP_100uM_rep3_acc4_processed_intensity
-93.47115107,419.36585201813676
-87.69374369,15.379964626480863
-81.9253076,-31.975404452560774
-76.16582701,-1.7218648815839437
-70.41528615,90.40974168671977
-64.67366933,-80.66020743408181
-58.94096086,-22.212083338892477
-53.21714512,-69.58827945370031
-47.50220652,1.2284307437806206
-41.79612954,15.792703292692671
-36.09889866,74.66060108037787
-30.41049843,85.15437595360785
-24.73091343,-7.326119251094617
-19.0601283,15.135888387695857
-13.39812769,31.692236138762624
-7.744896327,-103.85514891850138
-2.100418946,-47.92757659317098
3.535319659,78.21683038239784
9.162334658,-100.2082229517478
14.78064118,31.746626636426114
20.39025432,-85.2590513120232
25.99118913,-40.086393963596215
31.58346061,170.40342443847356
37.16708375,130.74620734568222
42.74207347,25.124573827603683
48.30844468,-38.000535325738056
53.86621222,-30.189580222413202
59.41539093,-33.44129116805856
64.95599558,-137.22700450050547
70.48804091,74.3758309164258
76.01154164,-4.628144106100645
81.52651243,-233.92118114045988
87.03296792,60.2232360983615
92.5309227,78.51640592213141
98.02039134,-6.989187765680025
103.5013884,-44.95216606341677
108.9739282,56.06659682173621
114.4380255,-39.01144890167428
119.8936944,34.87477320231331
125.3409495,158.81237739841725
130.779805,8.348719096117854
136.2102753,-157.69863470197788
141.6323747,67.17489000242078
147.0461174,230.09346019813938
152.4515176,103.66042705885148
157.8485895,32.76778729730209
163.2373472,266.84476477621774
168.6178049,249.54422735934295
173.9899766,410.3315150470109
179.3538764,476.9493497307966
184.7095182,568.4283599140972
190.0569161,602.1645929859277
195.396084,707.1992704607964
200.7270358,684.7885018383633
206.0497854,701.4432311755068
211.3643466,825.0234896397334
216.6707333,788.1211983525636
221.9689593,816.5150075355939
227.2590382,578.4989271527386
232.5409839,958.3918416873138
237.8148101,607.9144494496489
243.0805303,862.8596013024018
248.3381582,373.8343415031228
253.5877075,659.5999080873438
258.8291917,253.21822018739817
264.0626244,591.0293987465765
269.288019,-31.01953640670888
274.5053891,392.2817249043141
279.7147481,-164.46380437242019
284.9161094,1099.7213524428364
290.1094865,4238.607635129962
295.2948927,16771.42948955701
300.4723414,42509.89140961214
305.6418459,48446.77155895618
310.8034194,46545.46180833722
315.9570752,45708.03439469035
321.1028267,44578.52356715569
326.2406869,44425.69164392318
331.370669,43316.012271398205
336.4927863,43044.32333586234
341.6070517,41961.682917045524
346.7134786,41803.114099544735
351.8120798,40650.50639446423
356.9028684,40432.66451779382
361.9858576,39448.9596976171
367.0610602,38757.6330205066
372.1284892,38084.47148581089
377.1881577,37255.293639492105
382.2400784,36637.02814394569
387.2842644,36043.44539350184
392.3207284,35126.041153595506
397.3494833,34583.73096995559
402.370542,33521.530185132666
407.3839172,32826.63059005553
412.3896217,32117.604556855807
417.3876683,31488.36150712391
422.3780697,30529.732881874334
427.3608386,29534.538701853075
432.3359876,28495.442264012054
437.3035295,27472.89079902171
442.2634769,26618.35019866928
447.2158423,26224.792285737793
452.1606383,25298.658147766768
457.0978776,24286.978709944615
462.0275727,23869.48286086348
466.9497361,22686.108163482622
471.8643802,22264.103538029187
476.7715176,21030.00073332675
481.6711608,20167.85786140293
486.5633221,19125.509907143347
491.448014,18436.85490074781
496.3252488,17649.627113075505
501.195039,16792.138189425703
506.0573969,15702.134426572826
510.9123349,15101.273555034008
515.7598651,14655.252727147636
520.6,13533.437038293072
525.4327518,12914.041192846846
530.2581327,11997.369976431877
535.076155,11684.134146849225
539.8868309,10622.571495008226
544.6901726,9872.635877983841
549.4861922,9350.170663590688
554.2749019,8063.559484617592
559.0563139,7930.340323194512
563.8304402,7474.334785502837
568.597293,6100.293931501499
573.3568844,5809.788694358576
578.1092263,5429.473688453378
582.8543308,4601.855074163766
587.5922101,4130.640356286767
592.322876,3883.3621738880975
597.0463405,3267.915856502801
601.7626157,2636.5140227276206
606.4717135,2493.9066820373155
611.1736458,2159.106493148607
615.8684246,1713.7131784837547
620.5560617,1201.3139445589914
625.2365691,1085.8492333871036
629.9099585,432.805487827296
634.5762419,79.60872260725955
639.2354312,458.25337276859864
643.887538,104.13117148241145
648.5325743,197.68571362063813
653.1705518,91.2426397438685
657.8014823,-68.03237811908184
662.4253775,267.67099141817016
667.0422493,43.54029146843459
671.6521092,3.8493003462426714
676.2549691,-103.31440900942107
680.8508407,-123.85309156190488
685.4397355,48.10525853342915
690.0216654,-88.89530861829917
694.5966419,113.45883716517346
699.1646767,-234.56737348086244
703.7257814,35.37722721399405
708.2799676,-50.0518177954109
712.827247,-91.45180524813622
717.367631,35.8027342739515
721.9011314,63.46566924551007
726.4277595,502.4193794098428
730.9475271,12.886516230944835
735.4604456,120.93125073373449
739.9665264,-253.5298714747878
744.4657813,156.14424824845264
748.9582215,73.98859530909613
753.4438587,504.46266956630643
757.9227042,439.68560964940843
762.3947696,166.72155934241528
766.8600662,354.88828465273764
771.3186056,-480.4187198042164
775.770399,20.207825885772763
780.215458,-88.95807740402961
784.6537939,163.95631663758468
789.0854181,339.03692170782233
793.510342,97.59424312334886
797.9285769,-122.98252682481325
802.3401342,91.94723185218027
806.7450253,42.742496979983116
811.1432614,-113.7864397753292
815.5348538,88.55166413724874
819.9198139,77.34022843165803
824.2981531,66.5828201485856
828.6698824,-212.90643505675325
833.0350133,49.473354012996424
837.393557,125.29317328436082
841.7455248,-39.50995051015343
846.0909278,21.325918303578874
850.4297774,172.88307154661197
854.7620848,20.97620525524144
859.0878611,-109.77513289493072
863.4071176,388.20604878301856
867.7198655,117.0572088463814
872.026116,-30.605096939687428
876.3258802,-297.850633556669
880.6191693,41.72099179061115
884.9059946,84.0880505913774
889.186367,-264.2222302762402
893.4602979,482.4179062813073
897.7277982,527.0086200116184
901.9888793,208.76286154612717
906.2435521,35.087741857596484
910.4918277,354.63098457668457
914.7337174,374.86794410159564
918.9692321,406.7966084936161
923.1983831,56.32486131766018
927.4211813,268.4000088687244
931.6376378,-179.39873717536466
935.8477637,133.98308972490486
940.0515701,35.19530931650479
944.249068,-61.28190952751174
948.4402684,530.1272294505779
952.6251825,-113.08982112347621
956.8038212,194.31944126345843
960.9761955,-253.30404543559962
965.1423166,103.23131404222295
969.3021953,-11.932148150356625
973.4558427,17.272060360438445
977.6032699,70.15056868791726
981.7444877,5.254481565503738
985.8795072,34.633980424501715
990.0083394,-54.014154510946355
994.1309953,140.46322607013735
998.2474857,-119.1812064817641
1002.357822,413.59024568558016
1006.462014,44.94251197405356
1010.560075,176.7427450103214
1014.652013,-64.32755207918854
1018.737841,-358.62186553025094
1022.81757,25.622152228658706
1026.891209,-8.244589356365395
1030.958771,149.38910615731675
1035.020266,-201.86072590405638
1039.075705,26.83220686165032
1043.1251,118.72360230371487
1047.16846,17.778630447678097
1051.205797,-47.67716274533086
1055.237121,185.40831196802355
1059.262444,96.26766560939768
1063.281777,391.6551943692475
1067.295131,391.03565118902
1071.302515,-134.1870392265464
1075.303942,202.36631215780653
1079.299422,-233.85608006258417
1083.288966,-40.145332414824225
1087.272585,66.64761049946969
1091.250289,-108.56497820719665
1095.222091,-134.47661213060678
1099.187999,86.03765938284482
1103.148026,74.53577432178554
1107.102183,78.81617700232778
1111.050479,-8.64671759667192
1114.992927,14.939695386477297
1118.929536,127.46105318890886
1122.860318,-148.46518594091185
1126.785283,327.4033325530061
1130.704443,407.73126636664557
1134.617808,-92.7761514741378
1138.52539,9.800795763743793
1142.427198,58.99894383756907
1146.323244,-76.94492167581961
1150.213538,168.9984173018942
1154.098093,-136.46976170344684
1157.976917,320.14771091904623
1161.850023,266.94566267554535
1165.717421,-28.248039005757974
1169.579121,50.21169073394181
1173.435135,-74.28364866401299
1177.285474,362.01284448601723
1181.130148,359.25568847846796
1184.969169,-64.65617514216154
1188.802547,60.77300402988217
1192.630292,116.40857735684074
1196.452416,370.13814930668354
1200.26893,81.65736119281237
1204.079844,398.73477418146683
1207.88517,511.5564027916073
1211.684917,184.12838259278814
1215.479098,289.67669184854105
1219.267722,-629.6498592557721
1223.050801,186.63371980797453
1226.828346,311.79418324700725
1230.600366,-26.10200407419498
1234.366874,66.87364082413696
1238.12788,106.01490540692352
1241.883395,136.62577845760046
1245.633429,-175.58268972671186
1249.377994,-46.10333453334932
1253.1171,293.2506276764809
1256.850759,72.37527394678159
1260.578981,-25.159667174484323
1264.301776,40.962785745240545
1268.019157,-22.294299226266347
1271.731133,187.87042301220288
1275.437715,259.50561808948635
1279.138915,-68.53851251151589
1282.834743,-224.92337242256266
1286.52521,91.76147944348754
1290.210328,163.73217360257152
1293.890106,97.85571445048708
1297.564555,-213.55421666655388
1301.233688,307.2491869432275
1304.897514,59.45341802806318
1308.556044,25.64498497134292
1312.209289,-9.61407843860404
1315.857261,369.5376162497897
1319.499969,265.4653501933977
1323.137425,-166.8053592916791
1326.769641,87.23989413383282
1330.396626,-284.9106861105613
1334.018391,21.961760115598338
1337.634948,-51.00765756945663
1341.246307,62.6312709933777
1344.85248,154.10202387842085
1348.453477,149.35343146403534
1352.049309,214.00462249959102
1355.639987,73.10971967023973
1359.225522,-217.6321795099208
1362.805925,15.201334534498477
1366.381207,58.20034960336472
1369.951379,-66.34251958084263
1373.516452,-93.24735652582419
1377.076436,-216.84940312603976
1380.631343,-34.63368732324318
1384.181184,42.134007659951564
1387.725969,-26.035191085193944
1391.26571,109.35291238597796
1394.800417,182.8040501696935
1398.330102,34.83922952956106
1401.854776,-102.3511542901424
1405.374448,-134.0618176809612
1408.889132,183.32089621837417
1412.398837,323.3428269689909
1415.903574,109.29689258268765
1419.403355,-295.15752465491323
1422.89819,81.09196818872555
1426.388091,74.6997357846331
1429.873069,-241.53731649880882
1433.353134,123.897410974997
1436.828298,77.03423710543083
1440.298571,-120.23651634778366
1443.763965,100.27237183908822
1447.224491,151.25652472343842
1450.68016,163.88472262080978
1454.130983,-134.15379909341078
1457.576971,-58.44181484136532
1461.018135,-138.97318508959407
1464.454486,-158.26969212589472
1467.886036,135.24585158091142
1471.312794,113.38142124776391
1474.734774,325.2554615447059
1478.151985,-121.0945878959766
1481.564439,50.214047127321436
1484.972146,49.06048905644823
1488.375119,316.82819068718044
1491.773368,52.45976881420552
1495.166904,-348.4482813421372
1498.555739,69.7574255223737
1501.939883,55.23645100058668
1505.319349,334.53582251963024
1508.694146,37.994964862125364
1512.064286,-6.979178072497298
1515.429781,128.68064729051784
1518.790642,113.41091801896769
1522.146879,123.21821187603398
1525.498505,319.91361336846217
1528.845529,404.5609788883623
1532.187965,-167.96500173391422
1535.525822,313.9758546420459
1538.859112,176.7031812079362
1542.187846,-66.69059297193644
1545.512036,439.16152944807624
1548.831693,-334.3156576598857
1552.146829,-102.41233278966007
1555.457453,499.8708006154365
1558.763579,587.5732704207744
1562.065216,416.0652092442904
1565.362377,75.56695836892855
1568.655073,70.01760768286621
1571.943315,7.724082104100005
1575.227114,156.10905780525474
1578.506482,47.83233410181613
1581.781431,-138.47926896003642
1585.051971,-15.460677347862799
1588.318114,63.22898839239747
1591.579872,9.431522031868496
1594.837255,164.33675310591838
1598.090275,70.16743725054596
1601.338945,107.92730339703292
1604.583274,-307.0509564114169
1607.823275,-54.85912428470459
1611.058959,27.093871305886523
1614.290338,-403.42561868757605
1617.517422,80.88180090377227
1620.740224,-52.532762855932674
1623.958755,175.51730718794522
1627.173027,133.16976549052401
1630.38305,277.1745860342901
1633.588838,27.0467381573485
1636.7904,131.22940660157883
1639.987749,52.997916204289595
1643.180896,-75.22113872032901
1646.369853,277.46427788127494
1649.554632,-212.62769585309275
1652.735244,156.33801500563163
1655.9117,450.02098704721493
1659.084013,76.8229734352094
1662.252193,-290.0438233517823
1665.416254,168.79847930950518
1668.576205,70.87154757594453
1671.732059,-207.92077636763725
1674.883828,-208.72363900243727
1678.031523,21.40725963376235
1681.175157,-10.346364367227125
1684.314739,-160.0428013334017
1687.450284,-61.08324883684918
1690.581801,-6.179226948952419
1693.709304,145.58546073146363
1696.832803,127.46733383305536
1699.952311,147.68200203780088
1703.067839,207.97433081015606
1706.179399,302.56362390429786
1709.287003,92.1031515045679
1712.390663,12.943046611944283
1715.49039,-44.95840249713865
1718.586197,-12.562281513869493
1721.678095,67.31568186770937
1724.766096,202.78649987383096
1727.850213,16.950002047457474
1730.930456,-328.7969755225067
1734.006838,42.173652761854555
1737.079372,292.0303235490551
1740.148067,167.2411268008218
1743.212938,439.9542495682849
1746.273996,-59.038984190708106
1749.331252,-72.69558765550164
1752.384718,148.26867306460008
1755.434408,280.30963398724793
1758.480332,127.80570291769993
1761.522503,10.214825216988856
1764.560933,43.82695129760634
1767.595634,-486.68567192755484
1770.626618,58.85626258643461
1773.653896,-92.23544610051167
1776.677482,-270.37030851626
1779.697388,-270.1895042453775
1782.713625,182.33851707414664
1785.726205,110.36334612986403
1788.735141,299.8325213699267
1791.740445,349.45333335909976
1794.742129,-61.070612790288436
1797.740206,404.3176271465185
1800.734687,212.18601011468624
1803.725585,416.6707916585143
1806.712912,311.74746708787353
1809.69668,208.42031126802377
1812.676902,146.84954475993592
1815.65359,-28.991513193757033
1818.626756,27.48319302347228
1821.596413,-160.97444174215335
1824.562573,-336.08019914707654
1827.525247,-106.27532558140956
1830.48445,209.54601574203144
1833.440192,190.7895553819772
1836.392487,24.459701447225285
1839.341347,63.839512795646186
1842.286784,-142.64578261515248
1845.22881,-22.961405650089407
1848.167439,114.52841566943042
1851.102682,66.5065803435979
1854.034553,-91.1146293271112
1856.963063,105.1165610619383
1859.888226,277.32797378447754
1862.810053,101.8424853631386
1865.728557,-140.12184781979352
1868.643751,-37.59092138124379
1871.555648,319.89379627690687
1874.46426,-232.62351771062444
1877.369599,25.910402720775622
1880.271679,-33.30326088884887
1883.170512,-81.95913176566953
1886.06611,0.5405014890133657
1888.958487,191.09614368641388
1891.847655,43.32561695044723
1894.733626,49.78909740507591
1897.616414,282.1399182982284
1900.496032,-118.30389701106705
1903.372491,55.12808941110684
1906.245805,32.51467379251932
1909.115987,123.14633360302443
1911.983049,-29.229088059919924
1914.847004,-81.55007789885465
1917.707866,54.598813365542334
1920.565646,58.20847265956969
1923.420359,-204.66123222228163
1926.272016,-37.14263538799151
1929.120631,30.191159356114923
1931.966216,111.05511030393157
1934.808786,170.7722303847398
1937.648351,-108.58909301322842
1940.484927,-4.0342796102576095
1943.318525,-305.36318847212993
1946.149158,199.1612585066405
1948.97684,411.4552126642997
1951.801584,32.03108396859264
1954.623403,20.882086726556075
1957.44231,-95.7047469279467
1960.258318,-38.52920862990132
1963.071439,-74.96085766058707
1965.881688,180.88301937842033
1968.689078,205.17618562063225
1971.493621,-213.49497464212055
