Raman shift cm-1,4ATP_1uM_rep2_acc4_processed_intensity
-93.47115107,334.3940173175308
-87.69374369,149.62232097722259
-81.9253076,69.46964536791792
-76.16582701,64.7903218366641
-70.41528615,46.7346694343923
-64.67366933,5.031904057987418
-58.94096086,-4.282980321048683
-53.21714512,47.50488096741093
-47.50220652,136.7652602024881
-41.79612954,218.83953730386742
-36.09889866,259.2286620854795
-30.41049843,254.27607715686278
-24.73091343,230.94666399787735
-19.0601283,207.31610555212484
-13.39812769,163.95202281839036
-7.744896327,100.31932872837683
-2.100418946,75.00316393312153
3.535319659,115.9676602172159
9.162334658,156.14412796648924
14.78064118,132.0253263806843
20.39025432,91.97726703719053
25.99118913,129.53701735526403
31.58346061,225.8461051654379
37.16708375,259.2071795152807
42.74207347,179.77425230756597
48.30844468,62.262665765226515
53.86621222,-3.3059856336022193
59.41539093,20.608584543231494
64.95599558,98.7930500427253
70.48804091,126.44605861342748
76.01154164,65.75519669203325
81.52651243,36.24841555766136
87.03296792,112.89652655926727
92.5309227,179.57903925926985
98.02039134,139.57100950175243
103.5013884,58.13034376088535
108.9739282,23.06765757267234
114.4380255,72.89573911456338
119.8936944,193.4756468335437
125.3409495,258.21218466875666
130.779805,161.09845058791672
136.2102753,16.919389310705494
141.6323747,3.3761777574261416
147.0461174,89.68063488563392
152.4515176,119.8764163654163
157.8485895,64.6033932805293
163.2373472,27.656283926100073
168.6178049,53.41800431652845
173.9899766,76.59301138777028
179.3538764,67.92391813574116
184.7095182,76.62665125603964
190.0569161,104.81994604244069
195.396084,94.07987693312157
200.7270358,46.78096899015633
206.0497854,23.436407634245963
211.3643466,29.580779851247378
216.6707333,22.372397932033213
221.9689593,6.507377933588209
227.2590382,14.398623741201364
232.5409839,29.253782072883368
237.8148101,24.600657787350094
243.0805303,13.666400924751418
248.3381582,2.994070169600189
253.5877075,-10.270541384542287
258.8291917,4.892782894753637
264.0626244,62.27905232283284
269.288019,105.64184461453526
274.5053891,84.46443383809351
279.7147481,24.832301967544296
284.9161094,-6.719649006597976
290.1094865,78.55580875600558
295.2948927,407.9441844810175
300.4723414,1047.0715305890085
305.6418459,1869.6610214401148
310.8034194,2622.7823808675666
315.9570752,3117.4514403436974
321.1028267,3348.052739771216
326.2406869,3471.5399054333043
331.370669,3640.9824723513925
336.4927863,3856.2518476899277
341.6070517,4029.2764951931995
346.7134786,4130.4692740846085
351.8120798,4193.997455699192
356.9028684,4237.908992903261
361.9858576,4235.4520723683645
367.0610602,4190.709960448714
372.1284892,4343.339207156474
377.1881577,5246.309532463887
382.2400784,7241.528941217163
387.2842644,9672.913924301942
392.3207284,11094.456858490375
397.3494833,10614.047804348726
402.370542,8708.325016174189
407.3839172,6555.119075438672
412.3896217,4951.012070222943
417.3876683,3996.805099113628
422.3780697,3463.318253014768
427.3608386,3166.0130571509144
432.3359876,3013.78579272745
437.3035295,2904.2584194104625
442.2634769,2737.129174830831
447.2158423,2514.20000437093
452.1606383,2321.886079698183
457.0978776,2211.8279531926687
462.0275727,2157.74931758663
466.9497361,2109.9188699287147
471.8643802,2064.422363001482
476.7715176,2065.7950699994526
481.6711608,2111.098320317524
486.5633221,2115.591092834837
491.448014,2040.2616639337534
496.3252488,1962.1968902576168
501.195039,1946.783807552017
506.0573969,1946.343861989758
510.9123349,1898.2253477780462
515.7598651,1824.881639368262
520.6,1761.7011112974158
525.4327518,1688.9618647056488
530.2581327,1600.1285251964418
535.076155,1534.061899562299
539.8868309,1505.4652170393033
544.6901726,1500.003098626065
549.4861922,1515.3384983099127
554.2749019,1527.488075634295
559.0563139,1504.098487773452
563.8304402,1461.8922270032376
568.597293,1395.4398768891504
573.3568844,1268.108139796981
578.1092263,1137.980587876391
582.8543308,1073.3744853894495
587.5922101,1014.3605710704775
592.322876,925.3338120028637
597.0463405,873.9793059231143
601.7626157,862.5185041490478
606.4717135,828.5548564358651
611.1736458,780.4146764444092
615.8684246,761.4224215679224
620.5560617,772.7089818189577
625.2365691,793.8771490104999
629.9099585,809.1598796131439
634.5762419,811.2752604040622
639.2354312,800.494628112303
643.887538,767.0527622020224
648.5325743,690.3531538192644
653.1705518,574.3508617134532
657.8014823,461.58838909927795
662.4253775,394.5857522865134
667.0422493,378.8107591463282
671.6521092,390.7462299926369
676.2549691,392.43118337381554
680.8508407,348.14065531634753
685.4397355,287.015111709287
690.0216654,306.5599157120464
694.5966419,434.8704338216877
699.1646767,562.1575268315885
703.7257814,583.2819594221492
708.2799676,521.6624749335934
712.827247,448.09592265449146
717.367631,364.5163685425622
721.9011314,243.05411532159496
726.4277595,126.29273801581564
730.9475271,97.50616393996972
735.4604456,154.15650300000095
739.9665264,200.106466064242
744.4657813,173.60411395068184
748.9582215,104.29460377967996
753.4438587,43.83457581219545
757.9227042,8.52784438676008
762.3947696,5.447808797445191
766.8600662,56.026451430146494
771.3186056,146.69405895567047
775.770399,202.31689186384403
780.215458,163.02744521040455
784.6537939,80.79126468972623
789.0854181,106.56980158479456
793.510342,314.92741250694843
797.9285769,562.3352160678214
802.3401342,655.1035281804092
806.7450253,604.1480131002158
811.1432614,540.3058232329046
815.5348538,490.6889132083273
819.9198139,413.1855388957431
824.2981531,316.2207318336395
828.6698824,226.38137218301145
833.0350133,148.64548419836518
837.393557,91.17083852762762
841.7455248,61.146092323868665
846.0909278,51.45406464634149
850.4297774,44.86459088323834
854.7620848,17.466912521488936
859.0878611,-20.154861030583753
863.4071176,2.245415384070391
867.7198655,119.64118402839352
872.026116,252.05480419150203
876.3258802,318.70867248949946
880.6191693,355.50466262030034
884.9059946,390.18284957264456
889.186367,340.5601741376478
893.4602979,216.87713399321746
897.7277982,205.89142374657374
901.9888793,360.53802870076595
906.2435521,488.2150985050631
910.4918277,483.5492119283243
914.7337174,468.63094721412165
918.9692321,546.4112466858959
923.1983831,674.3333784902544
927.4211813,771.1788190489269
931.6376378,792.3746911041361
935.8477637,754.5447049821831
940.0515701,723.9848533723962
944.249068,739.6645983986826
948.4402684,796.9205404469661
952.6251825,883.6784316310308
956.8038212,958.1760352032218
960.9761955,967.7757092463241
965.1423166,931.4365874261676
969.3021953,907.9261271922092
973.4558427,894.1112467608222
977.6032699,855.8987801980602
981.7444877,808.2583027955953
985.8795072,783.517296200009
990.0083394,788.1836951747131
994.1309953,817.9117056864652
998.2474857,851.147584203561
1002.357822,833.3554576565293
1006.462014,711.691784793258
1010.560075,499.1130257573985
1014.652013,280.67146241233456
1018.737841,130.33070825532562
1022.81757,52.737305074896646
1026.891209,17.754465760121604
1030.958771,4.0180154566406685
1035.020266,0.9856718334635417
1039.075705,5.546027252638936
1043.1251,19.902215825778143
1047.16846,33.869687628882886
1051.205797,38.04849728907412
1055.237121,79.18382536314894
1059.262444,304.2803546022719
1063.281777,974.0664407836207
1067.295131,2332.2765091760066
1071.302515,4252.211582432162
1075.303942,5984.600961665307
1079.299422,6494.584795770764
1083.288966,5353.492286152925
1087.272585,3266.6710135005374
1091.250289,1426.3802184728465
1095.222091,441.0998149809398
1099.187999,134.5267683714126
1103.148026,88.20596097083704
1107.102183,53.13977218157834
1111.050479,0.5984760487328948
1114.992927,-5.795842853953553
1118.929536,45.406592800798876
1122.860318,131.23587708155512
1126.785283,339.1603808639822
1130.704443,808.7027577131101
1134.617808,1448.3819056697723
1138.52539,1900.3077701470372
1142.427198,1888.9966231678734
1146.323244,1487.7262336392441
1150.213538,998.7232883346736
1154.098093,662.6068894363922
1157.976917,534.6841210696443
1161.850023,565.5146352588224
1165.717421,688.5324204469462
1169.579121,854.5076293619273
1173.435135,1053.4685358131026
1177.285474,1271.0070114946116
1181.130148,1412.3223672585148
1184.969169,1346.5043527625419
1188.802547,1050.5798461091497
1192.630292,655.1092179169771
1196.452416,328.2291925169232
1200.26893,141.6477698732425
1204.079844,51.46484667462383
1207.88517,-1.2035814220934071
1211.684917,0.8186993253008694
1215.479098,71.9335460308172
1219.267722,119.08325155191977
1223.050801,81.82748168704794
1226.828346,59.878465902691104
1230.600366,127.42036989082854
1234.366874,211.54335002289437
1238.12788,263.94460964511353
1241.883395,327.11028125504606
1245.633429,380.7774752817896
1249.377994,336.7915562940952
1253.1171,212.30333481172084
1256.850759,127.43689973936218
1260.578981,127.5206829295379
1264.301776,138.60799308402318
1268.019157,90.63148727470906
1271.731133,24.490892001249975
1275.437715,42.967216317225606
1279.138915,134.79328589071002
1282.834743,157.91273350434903
1286.52521,68.85504164892039
1290.210328,1.012427721265567
1293.890106,44.62766243777317
1297.564555,137.087427438695
1301.233688,209.71526950643806
1304.897514,252.54182716518648
1308.556044,229.24785750516125
1312.209289,123.52310260544449
1315.857261,44.645973932998565
1319.499969,96.07890899611567
1323.137425,210.80320580199793
1326.769641,269.9888562555394
1330.396626,254.42215121587992
1334.018391,197.53491642315083
1337.634948,133.60234065707263
1341.246307,98.73328316292823
1344.85248,92.0177449801393
1348.453477,80.22225331467884
1352.049309,76.99388802830697
1355.639987,142.4285415188844
1359.225522,270.2456085319671
1362.805925,362.53815989684466
1366.381207,366.8874587330197
1369.951379,354.9137331120628
1373.516452,412.31757457174564
1377.076436,542.2012503121682
1380.631343,725.6820634128153
1384.181184,940.5840979964024
1387.725969,1072.178560770359
1391.26571,989.0465123586082
1394.800417,738.6462204279348
1398.330102,496.79365782455795
1401.854776,340.5694860472693
1405.374448,208.67716655459907
1408.889132,66.0119684861565
1412.398837,1.4289503348483805
1415.903574,116.60861519088773
1419.403355,388.16481386113696
1422.89819,713.0614583453291
1426.388091,998.2464988935831
1429.873069,1161.9649618395686
1433.353134,1169.2692740556258
1436.828298,1052.1116828025285
1440.298571,831.4442395638894
1443.763965,537.3245604832057
1447.224491,296.6239478480089
1450.68016,215.42597031382883
1454.130983,227.60575315284052
1457.576971,216.7511088647001
1461.018135,170.85992885029486
1464.454486,120.38998066964871
1467.886036,80.13347440962184
1471.312794,85.85920697660302
1474.734774,152.59869524825996
1478.151985,212.2911786535343
1481.564439,186.63652724619072
1484.972146,106.76401412263559
1488.375119,89.77858640812161
1491.773368,165.66948985725608
1495.166904,215.8194308803586
1498.555739,155.70622827371366
1501.939883,50.0911941949077
1505.319349,-10.308562386018536
1508.694146,-3.7152665980160293
1512.064286,53.0957349141796
1515.429781,117.64674429257005
1518.790642,129.39632725495719
1522.146879,71.51138094154234
1525.498505,6.082629677313605
1528.845529,6.529849995270975
1532.187965,80.86688600942713
1535.525822,184.38310587323053
1538.859112,262.33234910869896
1542.187846,304.774896087723
1545.512036,376.21750515109727
1548.831693,488.1300012983988
1552.146829,528.9468955404593
1555.457453,481.2661950846706
1558.763579,518.1162793519114
1562.065216,742.6734767499651
1565.362377,1052.846218536155
1568.655073,1328.3913750240422
1571.943315,1570.253605387426
1575.227114,1847.8997663604612
1578.506482,2204.626638499554
1581.781431,2605.2942132677895
1585.051971,2947.79748050134
1588.318114,3079.8692042281345
1591.579872,2828.822493656477
1594.837255,2177.6556660200877
1598.090275,1393.3130728685837
1601.338945,794.1858854352821
1604.583274,449.5654610477979
1607.823275,248.4804167679262
1611.058959,117.67707854899871
1614.290338,39.0242120674459
1617.517422,0.8621213957714744
1620.740224,3.079110380657802
1623.958755,23.290399485197234
1627.173027,18.664289634568853
1630.38305,-4.0198042114039865
1633.588838,-1.9846356720827778
1636.7904,28.62195279025305
1639.987749,52.47344860898542
1643.180896,52.96068659213624
1646.369853,45.35772753964321
1649.554632,30.085696265632663
1652.735244,2.3403663378655715
1655.9117,2.892432129511022
1659.084013,46.882452686408094
1662.252193,65.7396998429344
1665.416254,37.507755336613606
1668.576205,34.52240705600396
1671.732059,71.21301330486057
1674.883828,80.34343955771337
1678.031523,43.66945787538908
1681.175157,4.358352823933949
1684.314739,-9.407429220120626
1687.450284,-3.5149360433691683
1690.581801,5.190721559183039
1693.709304,17.773284820679148
1696.832803,49.37327510692738
1699.952311,91.62912905964038
1703.067839,117.51134168647894
1706.179399,119.47202058110037
1709.287003,114.64043677761975
1712.390663,122.23616420471936
1715.49039,135.39295706377573
1718.586197,117.37464181100191
1721.678095,52.74505692578761
1724.766096,-5.497828345652636
1727.850213,6.606539392072563
1730.930456,57.16704161118006
1734.006838,65.93048350075577
1737.079372,63.83527669268689
1740.148067,144.1727219699273
1743.212938,258.65100668448525
1746.273996,266.4556259260214
1749.331252,167.05621786644815
1752.384718,96.70678979291799
1755.434408,125.5954278576723
1758.480332,176.1630882302148
1761.522503,136.6662028992934
1764.560933,28.746337118521765
1767.595634,-2.9020850215301834
1770.626618,86.21874958198391
1773.653896,167.6828114121268
1776.677482,165.70043264315944
1779.697388,165.72730454551976
1782.713625,222.09466686322634
1785.726205,250.02732319969556
1788.735141,184.32549804428146
1791.740445,108.36956410325782
1794.742129,139.56729320242863
1797.740206,246.53990674644584
1800.734687,294.71209938553085
1803.725585,255.04471108242825
1806.712912,212.1635245223435
1809.69668,186.1598563185098
1812.676902,128.1773168926794
1815.65359,58.133921784799355
1818.626756,40.224889910436204
1821.596413,70.26260709928331
1824.562573,96.43888969603756
1827.525247,87.7132356962027
1830.48445,44.78477065337371
1833.440192,2.5769612854040673
1836.392487,0.37691883069363286
1839.341347,31.849922595929876
1842.286784,73.06396842470113
1845.22881,117.27859676020832
1848.167439,137.6514323944807
1851.102682,102.81381542392712
1854.034553,55.275220953411264
1856.963063,71.90378295827539
1859.888226,137.1097871626128
1862.810053,158.2979377900918
1865.728557,102.94340975099274
1868.643751,27.81155893199638
1871.555648,-1.158601537408984
1874.46426,34.749610270190686
1877.369599,88.84615941794331
1880.271679,100.37788043752505
1883.170512,77.60079538213158
1886.06611,70.16402890691077
1888.958487,94.65797990846659
1891.847655,129.59372670027787
1894.733626,138.78753962511448
1897.616414,113.35521275069914
1900.496032,95.5165676003308
1903.372491,114.33485632999941
1906.245805,136.25823337083352
1909.115987,121.07794161850099
1911.983049,83.54324363784151
1914.847004,72.61867332810914
1917.707866,102.47575074300815
1920.565646,130.84052682721648
1923.420359,117.08235610983954
1926.272016,64.09617891498146
1929.120631,6.882056522391906
1931.966216,-8.1463723596476
1934.808786,31.15390440844174
1937.648351,77.86280446571354
1940.484927,99.31896605007432
1943.318525,139.5986469243074
1946.149158,234.3296863216226
1948.97684,314.66432010187185
1951.801584,295.4685290463707
1954.623403,194.84859527909748
1957.44231,82.23224340062512
1960.258318,4.071461306803602
1963.071439,-2.892207943843495
1965.881688,53.94723414394507
1968.689078,84.9290974870697
1971.493621,35.71667335581822
