Raman shift cm-1,4ATP_1fM_rep1_acc1_processed_intensity
-93.47115107,533.5611694535058
-87.69374369,37.21292762503903
-81.9253076,3.8361550750929148
-76.16582701,-18.66700473114536
-70.41528615,120.50942233899787
-64.67366933,-66.20544750076759
-58.94096086,-94.75996753961837
-53.21714512,-143.75880185343016
-47.50220652,62.172019797230405
-41.79612954,180.71433480175412
-36.09889866,218.24669856676587
-30.41049843,225.54638715832078
-24.73091343,80.40097501605108
-19.0601283,60.335027388919926
-13.39812769,104.5560329707115
-7.744896327,-111.30127228627804
-2.100418946,-50.50176660468746
3.535319659,201.08136829274181
9.162334658,29.484519102866145
14.78064118,13.70896510239016
20.39025432,-78.84565678059428
25.99118913,65.68328938128134
31.58346061,232.88491876016514
37.16708375,155.38420553648103
42.74207347,73.19946291389323
48.30844468,36.77677795240566
53.86621222,-52.80489076018616
59.41539093,-73.62267351219229
64.95599558,-62.2565820313144
70.48804091,70.3399179957347
76.01154164,115.78277523909479
81.52651243,-216.95339945527877
87.03296792,168.60476886299264
92.5309227,225.58531721498562
98.02039134,16.16683132602267
103.5013884,21.1162798471103
108.9739282,40.28756533174491
114.4380255,25.426876258317815
119.8936944,74.71041625247685
125.3409495,409.56880497610143
130.779805,54.1525831208518
136.2102753,-165.72465307070243
141.6323747,-57.54273954737991
147.0461174,88.27363331233803
152.4515176,-15.16229638616084
157.8485895,-29.896641477747053
163.2373472,-56.047830090236666
168.6178049,25.97328091876509
173.9899766,181.01098009566937
179.3538764,97.5122542747131
184.7095182,-21.626488089173485
190.0569161,62.78415438169193
195.396084,187.6323581373501
200.7270358,-34.24992190590405
206.0497854,32.712030038391376
211.3643466,-34.568152363217585
216.6707333,69.13662178493945
221.9689593,-10.151949065737387
227.2590382,-23.833277528467768
232.5409839,8.092738672922096
237.8148101,-76.81784395914624
243.0805303,56.250292019135514
248.3381582,-13.379365140607476
253.5877075,30.12840248573758
258.8291917,40.98143319524212
264.0626244,58.43624655431839
269.288019,46.92083270070012
274.5053891,12.775800894468233
279.7147481,-119.37861935089286
284.9161094,-147.3750379691569
290.1094865,-36.482919040113984
295.2948927,467.54702191267893
300.4723414,1906.2437432544352
305.6418459,3676.358586434559
310.8034194,5438.450225775243
315.9570752,6506.835291810317
321.1028267,6698.642927039294
326.2406869,6620.063664579017
331.370669,6713.616729136978
336.4927863,6723.009737255712
341.6070517,6717.316789196358
346.7134786,6640.9691781329875
351.8120798,6578.563693037581
356.9028684,6279.967817898731
361.9858576,5895.237773912357
367.0610602,5753.825936801283
372.1284892,5500.385525561922
377.1881577,5769.378343726761
382.2400784,6115.221214924502
387.2842644,6840.560288086863
392.3207284,7016.414278376989
397.3494833,6395.931923885084
402.370542,5341.632692779443
407.3839172,4461.939284944533
412.3896217,3535.347934275228
417.3876683,2840.4798274108343
422.3780697,2680.0583047908076
427.3608386,2146.1934155295276
432.3359876,1973.3686735163192
437.3035295,1631.3817439759414
442.2634769,1615.2493093186522
447.2158423,1029.6701508013157
452.1606383,773.0478479531839
457.0978776,667.3560782389113
462.0275727,290.0395027349887
466.9497361,315.69561380109644
471.8643802,91.99478186964643
476.7715176,189.00996876042882
481.6711608,112.62510889505029
486.5633221,294.9298405601321
491.448014,232.874042109318
496.3252488,75.42458227252155
501.195039,200.15511315260756
506.0573969,230.41060679123711
510.9123349,40.8153875561602
515.7598651,-151.9180409511764
520.6,-13.852890029714217
525.4327518,-17.53983665749638
530.2581327,-39.44824237722514
535.076155,-41.74837650424979
539.8868309,33.97827573450468
544.6901726,0.1739008210870452
549.4861922,-36.27207891813032
554.2749019,265.4095419232135
559.0563139,108.52191010612114
563.8304402,-12.557900046028408
568.597293,452.6172487639433
573.3568844,200.7345343302586
578.1092263,-205.4291229247765
582.8543308,56.07545191623558
587.5922101,204.58800478836656
592.322876,47.16187845370223
597.0463405,-10.214040326959548
601.7626157,92.56863415540192
606.4717135,-38.90795808924577
611.1736458,-75.03014037727189
615.8684246,-54.58113308850989
620.5560617,50.442167785033234
625.2365691,20.981854065914376
629.9099585,54.44499332656687
634.5762419,249.32661233389445
639.2354312,11.826480852363602
643.887538,49.22507107377078
648.5325743,-47.60791836341514
653.1705518,102.24208270898043
657.8014823,55.999103503492734
662.4253775,-231.87819363896915
667.0422493,69.29706459269164
671.6521092,-41.31938949468531
676.2549691,7.45475172874103
680.8508407,-10.352297944551083
685.4397355,-93.80927541763413
690.0216654,43.99736286876896
694.5966419,-43.28106342512001
699.1646767,207.96447042072577
703.7257814,94.6168224138928
708.2799676,261.79814940829147
712.827247,219.22512012067136
717.367631,118.04224538102471
721.9011314,201.57494565141087
726.4277595,-48.55718720543564
730.9475271,74.0263491783403
735.4604456,-63.68653821832322
739.9665264,303.2581719028226
744.4657813,209.1031343583145
748.9582215,185.30819645897623
753.4438587,-40.24245379666195
757.9227042,-75.28150527974299
762.3947696,67.82644026341268
766.8600662,-109.4119269501648
771.3186056,299.6317499503757
775.770399,91.91796920639763
780.215458,193.27747988907777
784.6537939,57.23494326664445
789.0854181,-168.15422638954215
793.510342,106.22077974655576
797.9285769,360.9907740563435
802.3401342,358.3461510796037
806.7450253,164.13867365290037
811.1432614,120.49689000646651
815.5348538,67.97864048674876
819.9198139,-78.20085775101404
824.2981531,-97.78427973769237
828.6698824,144.6291101599145
833.0350133,-15.452296147679817
837.393557,-19.59187688685961
841.7455248,104.38020713204486
846.0909278,-79.77394471941284
850.4297774,0.35713806998739983
854.7620848,107.99156909219624
859.0878611,9.59083394533559
863.4071176,-102.52307817109741
867.7198655,166.75685872988942
872.026116,360.3024793204748
876.3258802,500.59079832484383
880.6191693,258.46484830389676
884.9059946,376.8581138896757
889.186367,482.4642726701079
893.4602979,1.2744657613389747
897.7277982,-89.76854652775498
901.9888793,198.5737619271393
906.2435521,429.91489999329093
910.4918277,14.400622093266435
914.7337174,-45.89713741981781
918.9692321,-21.375966958946336
923.1983831,218.69684407116756
927.4211813,121.12036464575692
931.6376378,247.88888140199128
935.8477637,41.47883084628907
940.0515701,67.46678396710215
944.249068,153.1789062138176
948.4402684,-217.97998378438692
952.6251825,225.0449691561024
956.8038212,-11.0729781905751
960.9761955,239.63891954350697
965.1423166,69.65079977127641
969.3021953,94.372095483392
973.4558427,84.93848529860747
977.6032699,-47.659415771366014
981.7444877,53.742524214229064
985.8795072,-87.96009857498774
990.0083394,70.95797024862378
994.1309953,50.77645092078663
998.2474857,197.1325163753578
1002.357822,-151.62890549091458
1006.462014,10.104311845052337
1010.560075,22.54711440517997
1014.652013,186.30642335953374
1018.737841,223.10562383821153
1022.81757,-19.78831741582967
1026.891209,5.323002357011642
1030.958771,-92.31391464081081
1035.020266,158.9557461752795
1039.075705,38.401052810981696
1043.1251,29.419849920079322
1047.16846,3.070888241099226
1051.205797,50.35934031294904
1055.237121,-164.64307967924526
1059.262444,91.48176090681322
1063.281777,219.38927132598275
1067.295131,799.6892294341436
1071.302515,1854.8496468875
1075.303942,2167.6256379126653
1079.299422,2515.139486244827
1083.288966,1824.795017251911
1087.272585,951.2803309154621
1091.250289,290.82537594230297
1095.222091,107.89979656238513
1099.187999,-4.968044462633699
1103.148026,-19.63493776034398
1107.102183,-38.785677355946575
1111.050479,-17.09094251015769
1114.992927,28.93407747758303
1118.929536,-50.257071597168114
1122.860318,3.7804733599797373
1126.785283,-80.4417047426307
1130.704443,183.61794420562242
1134.617808,704.7317420020843
1138.52539,663.9114288550679
1142.427198,481.79934363164824
1146.323244,505.6383091398718
1150.213538,74.67303794289856
1154.098093,394.89126072597537
1157.976917,59.5628960503372
1161.850023,33.381352812871654
1165.717421,338.77219412736395
1169.579121,326.2315125986473
1173.435135,580.456702699418
1177.285474,343.57845169073846
1181.130148,648.3415440778683
1184.969169,597.1813925964709
1188.802547,369.6481172191864
1192.630292,282.10802573647754
1196.452416,115.47206848020457
1200.26893,149.94988524978297
1204.079844,-208.35440480452849
1207.88517,-76.86305020749012
1211.684917,24.89362276082218
1215.479098,-8.5187045741717
1219.267722,530.9984146062508
1223.050801,-3.7666167514194164
1226.828346,-10.667211877565201
1230.600366,218.2918094699051
1234.366874,-29.26172454813661
1238.12788,188.95649098389202
1241.883395,98.11296650391368
1245.633429,322.41721474279524
1249.377994,224.96119910661207
1253.1171,-49.587283516666375
1256.850759,116.26798506573296
1260.578981,19.52149156716645
1264.301776,85.4880166947614
1268.019157,104.41280020491499
1271.731133,-94.88252382746919
1275.437715,-132.66339343021315
1279.138915,246.28611489045295
1282.834743,195.11166810229602
1286.52521,-31.5924207573751
1290.210328,-62.04813805182127
1293.890106,-108.0712019006109
1297.564555,99.5460491286221
1301.233688,68.39700738481827
1304.897514,81.20873831708333
1308.556044,18.78860756626834
1312.209289,107.39176629826703
1315.857261,-295.0269685823772
1319.499969,-30.35627865490582
1323.137425,332.6211656623475
1326.769641,86.89392424574118
1330.396626,309.79987452200373
1334.018391,245.72612323346132
1337.634948,99.19548041576562
1341.246307,42.731174683431874
1344.85248,-1.576530883982599
1348.453477,-96.17392810956765
1352.049309,-51.10787196562271
1355.639987,-128.1111771112396
1359.225522,175.43906779994785
1362.805925,88.16022579594744
1366.381207,41.29102862858781
1369.951379,153.17739984940954
1373.516452,119.35656189221527
1377.076436,369.82793719347376
1380.631343,304.3237135383062
1384.181184,383.2241369138702
1387.725969,362.6792950735278
1391.26571,479.37548826639795
1394.800417,280.20260555316236
1398.330102,188.3333204896316
1401.854776,221.6141724622627
1405.374448,17.066346958194323
1408.889132,66.3783760321492
1412.398837,-123.57181649269553
1415.903574,-72.79367835797346
1419.403355,320.48718996738916
1422.89819,407.1220802486697
1426.388091,335.6886678101324
1429.873069,531.7464505021527
1433.353134,369.64818175836297
1436.828298,326.568766235427
1440.298571,195.40954070013288
1443.763965,19.5353155957027
1447.224491,-3.490910953723308
1450.68016,-119.0851455198177
1454.130983,210.86335051514698
1457.576971,47.79358758080481
1461.018135,60.60123866064518
1464.454486,111.37253794955646
1467.886036,1.283136720391198
1471.312794,11.908982483070616
1474.734774,-38.95930406595705
1478.151985,213.9880172030571
1481.564439,189.50013884118374
1484.972146,70.59258827829817
1488.375119,-94.7223677560169
1491.773368,24.053181218116062
1495.166904,303.1344817970751
1498.555739,-39.11336876220949
1501.939883,-14.287198041033252
1505.319349,23.996416434926154
1508.694146,-83.8424309926289
1512.064286,143.82780685784783
1515.429781,65.09327146297218
1518.790642,-12.062920618381295
1522.146879,113.50834235715843
1525.498505,-21.370752273091767
1528.845529,-260.6251217701589
1532.187965,92.98313530144353
1535.525822,-25.9744406472297
1538.859112,107.16523112915635
1542.187846,265.0512653685952
1545.512036,-107.98868540504151
1548.831693,275.1357720929023
1552.146829,186.47758561386598
1555.457453,47.36857821708287
1558.763579,33.71642030697268
1562.065216,80.95588655330164
1565.362377,429.0924668582408
1568.655073,551.4340261294961
1571.943315,770.682433356752
1575.227114,723.9973666231028
1578.506482,856.8681214215454
1581.781431,1082.4685885680997
1585.051971,1007.0223422041922
1588.318114,1092.3985143895732
1591.579872,1059.4269120718932
1594.837255,705.4535553550633
1598.090275,465.1769467868246
1601.338945,222.19637745634506
1604.583274,234.25421199633314
1607.823275,70.15631555654758
1611.058959,-140.5849752522491
1614.290338,9.210540497035709
1617.517422,-142.98726712898466
1620.740224,16.406010096024943
1623.958755,52.91745706115222
1627.173027,47.1904068476064
1630.38305,-66.51381529956561
1633.588838,88.79285192772454
1636.7904,23.112055766053487
1639.987749,62.46562212669765
1643.180896,74.08279913649163
1646.369853,-122.52171122809035
1649.554632,246.19860738442142
1652.735244,96.12889806808143
1655.9117,-104.57807608080955
1659.084013,-6.360200651324789
1662.252193,233.7687679989524
1665.416254,-95.67565945022986
1668.576205,55.19942020293628
1671.732059,228.59419946806503
1674.883828,55.25495507282955
1678.031523,-36.571213845586804
1681.175157,27.676445458682306
1684.314739,70.11351084044774
1687.450284,-97.07582481469989
1690.581801,26.438433497703343
1693.709304,-24.7394194704394
1696.832803,-25.545122064522616
1699.952311,-6.696786312426507
1703.067839,18.72113991937917
1706.179399,42.54030186713641
1709.287003,248.48140802716964
1712.390663,-0.35652682234717403
1715.49039,-29.216878870258796
1718.586197,198.9189526532805
1721.678095,102.50333595179535
1724.766096,-62.83506017099143
1727.850213,-63.28520401452535
1730.930456,36.40764227381955
1734.006838,-1.5874579629759138
1737.079372,-36.181986074473684
1740.148067,-16.504099371924063
1743.212938,215.74180611337613
1746.273996,39.387711948370956
1749.331252,27.91922102805574
1752.384718,-31.74292353820266
1755.434408,72.76154354689153
1758.480332,49.43109477390403
1761.522503,37.82956250416793
1764.560933,-8.947875309746074
1767.595634,-303.8465517568825
1770.626618,70.1816044218271
1773.653896,110.09182930231493
1776.677482,-50.40611652363097
1779.697388,-55.27696286018549
1782.713625,157.1639365664692
1785.726205,80.24568885356018
1788.735141,25.608247126577638
1791.740445,-62.321390110717
1794.742129,-114.25055940835057
1797.740206,98.30681424200718
1800.734687,120.49321996943702
1803.725585,95.43195325326761
1806.712912,41.965911643677714
1809.69668,63.77588630029541
1812.676902,-6.464793462728025
1815.65359,-237.86813707768422
1818.626756,-36.329207533683864
1821.596413,60.35008464136352
1824.562573,-110.35429372191078
1827.525247,169.18205427398598
1830.48445,26.49210872156527
1833.440192,1.6551810355862226
1836.392487,-74.7652891744901
1839.341347,90.82049672039557
1842.286784,-29.38209107228922
1845.22881,-69.31452115430669
1848.167439,84.36276728065997
1851.102682,62.190695391941574
1854.034553,62.43783666838776
1856.963063,-87.0013638190308
1859.888226,191.63157524551443
1862.810053,94.70091013231256
1865.728557,69.61216022135056
1868.643751,-58.07706181938033
1871.555648,-75.64461367427572
1874.46426,-152.41958178701236
1877.369599,86.84259382109315
1880.271679,65.74170039848374
1883.170512,-25.443961250507076
1886.06611,173.7245756434147
1888.958487,45.68685340389798
1891.847655,-16.244236067459656
1894.733626,-20.032255764937695
1897.616414,120.43682876399231
1900.496032,-160.97149109887917
1903.372491,-19.42376196356049
1906.245805,168.7850716971703
1909.115987,58.54775876882626
1911.983049,168.21081486653787
1914.847004,-25.24528152417748
1917.707866,91.73625863663824
1920.565646,180.3503134493783
1923.420359,-89.08028891066495
1926.272016,-7.414666669425376
1929.120631,-61.16813640661215
1931.966216,-26.81401646572851
1934.808786,68.8825506389031
1937.648351,23.919559798705112
1940.484927,53.141259141260406
1943.318525,-3.9411083352315543
1946.149158,190.85353568819968
1948.97684,559.8929325816725
1951.801584,176.37461793866748
1954.623403,73.19116519784319
1957.44231,198.2002537195658
1960.258318,-95.30850566012731
1963.071439,-46.78476480140935
1965.881688,-49.022790395308014
1968.689078,96.8112007960122
1971.493621,-4.464190908605545
