Raman shift cm-1,4ATP_100nM_rep3_acc1_processed_intensity
-93.47115107,383.9407666922831
-87.69374369,19.814340621162934
-81.9253076,7.113153163112543
-76.16582701,-23.058932814415748
-70.41528615,80.35797274535906
-64.67366933,-85.4416492855417
-58.94096086,-120.2928023602358
-53.21714512,-58.75604081965768
-47.50220652,67.81948820071104
-41.79612954,69.44941902192221
-36.09889866,96.04919927152707
-30.41049843,10.080077637097382
-24.73091343,-2.190947582185977
-19.0601283,-48.313393189649375
-13.39812769,31.462203586945925
-7.744896327,30.431058846006607
-2.100418946,-90.12316248450253
3.535319659,60.074494776740146
9.162334658,-52.71984880005048
14.78064118,2.7313975527869907
20.39025432,-34.65741761758752
25.99118913,-35.375066380536815
31.58346061,87.43886339150004
37.16708375,152.98489189459002
42.74207347,19.520514219077143
48.30844468,-79.98409936207702
53.86621222,-64.65962071675682
59.41539093,-142.4694709768761
64.95599558,-51.75252762387593
70.48804091,52.642724386196655
76.01154164,85.39714348186945
81.52651243,-56.36135430460526
87.03296792,2.5641473539801893
92.5309227,87.82030260811216
98.02039134,-35.142650197132475
103.5013884,2.988075583444285
108.9739282,-11.291985292844814
114.4380255,-74.30017960457093
119.8936944,55.6425472961699
125.3409495,412.1108223239156
130.779805,72.82839423933967
136.2102753,-81.99699245794338
141.6323747,-38.5293310855416
147.0461174,199.44764748567223
152.4515176,83.76982124285061
157.8485895,39.59394439811322
163.2373472,97.19104914915567
168.6178049,281.67682992453626
173.9899766,378.58485647309567
179.3538764,383.0246729933756
184.7095182,391.598041495733
190.0569161,470.30947417939586
195.396084,617.1338733117735
200.7270358,533.2602875258119
206.0497854,576.9061007866435
211.3643466,596.8694469480868
216.6707333,657.1181520997667
221.9689593,615.6646773455025
227.2590382,621.8315116383748
232.5409839,663.7177441054234
237.8148101,524.9434113866521
243.0805303,530.0684639784913
248.3381582,450.9380720214528
253.5877075,404.26551684607915
258.8291917,227.38039776889593
264.0626244,338.9952770802139
269.288019,47.82285357264982
274.5053891,8.475226618132439
279.7147481,-210.14455176538712
284.9161094,-49.15595498602488
290.1094865,1124.2003854361951
295.2948927,5783.269093077175
300.4723414,16722.746523862566
305.6418459,32417.49108831796
310.8034194,45126.64797810707
315.9570752,45303.710989418425
321.1028267,44551.09048923543
326.2406869,44082.820678223245
331.370669,43297.15480684502
336.4927863,42767.79640625857
341.6070517,41943.05991604687
346.7134786,41592.9620577359
351.8120798,40628.472827302714
356.9028684,40285.213844887236
361.9858576,39421.45849773683
367.0610602,38667.52850393034
372.1284892,38051.53308634949
377.1881577,37216.04360347015
382.2400784,36600.00567735196
387.2842644,36045.791285559375
392.3207284,35087.641180727136
397.3494833,34620.61697289074
402.370542,33487.44166778738
407.3839172,32887.37312952332
412.3896217,32090.53952688803
417.3876683,31565.385459250516
422.3780697,30513.52713588121
427.3608386,29620.42840223943
432.3359876,28491.860739914628
437.3035295,27563.72241074082
442.2634769,26630.821384106555
447.2158423,26313.52966060453
452.1606383,25326.349436576624
457.0978776,24373.325054067085
462.0275727,23911.126323166754
466.9497361,22767.195866641738
471.8643802,22319.395059253584
476.7715176,21106.307612712182
481.6711608,20232.80965272842
486.5633221,19198.062344215323
491.448014,18508.409558198684
496.3252488,17718.393377262448
501.195039,16868.54887021238
506.0573969,15768.284548768504
510.9123349,15178.79477889646
515.7598651,14720.123659432727
520.6,13611.697697974381
525.4327518,12976.231190527698
530.2581327,12074.009294255233
535.076155,11745.33131623111
539.8868309,10696.359093089388
544.6901726,9931.731525793999
549.4861922,9421.27975284914
554.2749019,8120.56828397511
559.0563139,7997.450554718482
563.8304402,7527.862552122944
568.597293,6163.345247875972
573.3568844,5859.075267509972
578.1092263,5490.609275181814
582.8543308,4647.449941630759
587.5922101,4188.723068140498
592.322876,3925.0004056198086
597.0463405,3323.8688515787
601.7626157,2674.1589740974377
606.4717135,2548.484945194359
611.1736458,2192.7638377377807
615.8684246,1767.105384321032
620.5560617,1231.6153606669395
625.2365691,1136.903502796973
629.9099585,460.77933949307044
634.5762419,132.85987543335796
639.2354312,484.70686349987955
643.887538,157.33371292825905
648.5325743,222.57093648815498
653.1705518,140.05654786043306
657.8014823,-53.799346507417795
662.4253775,306.4112772977387
667.0422493,47.60045541066211
671.6521092,29.505160888511455
676.2549691,-111.26634469856072
680.8508407,-110.25868352875841
685.4397355,32.513757630651526
690.0216654,-86.81238276035947
694.5966419,92.8133331954923
699.1646767,-241.54681519464793
703.7257814,14.067579774080514
708.2799676,-65.41931141341774
712.827247,-106.14687259683706
717.367631,19.33861984320174
721.9011314,70.6539027743238
726.4277595,500.13261773212434
730.9475271,64.29948000909644
735.4604456,157.93302270698769
739.9665264,-124.15974824900331
744.4657813,265.3396105923057
748.9582215,318.0694045780183
753.4438587,716.0328961311716
757.9227042,828.8808629357627
762.3947696,522.6490559479062
766.8600662,928.2293683571042
771.3186056,62.44555425578437
775.770399,852.4633114330973
780.215458,759.1848859656566
784.6537939,1258.7153432238592
789.0854181,1375.1379488219936
793.510342,1205.754873875023
797.9285769,996.5340243309984
802.3401342,1237.9279998294369
806.7450253,1185.073020901331
811.1432614,1007.5627556886175
815.5348538,1196.2102042000224
819.9198139,662.5993347671283
824.2981531,789.9351962544606
828.6698824,861.4576642000175
833.0350133,323.2375224917887
837.393557,83.94865550524628
841.7455248,660.2254299702363
846.0909278,-44.98257341218414
850.4297774,956.4062310184199
854.7620848,902.0399071590145
859.0878611,820.1304824314029
863.4071176,847.8768560059325
867.7198655,1202.48913157258
872.026116,1457.462116136965
876.3258802,1060.7447173505134
880.6191693,956.2516933368206
884.9059946,547.4842529507878
889.186367,603.5015624659172
893.4602979,-38.15308753233148
897.7277982,-171.65949887344686
901.9888793,582.1887036340795
906.2435521,879.2313674152174
910.4918277,545.340959797828
914.7337174,728.0531206274736
918.9692321,623.0036604616125
923.1983831,836.0855157810965
927.4211813,335.34329312902446
931.6376378,430.9925577420581
935.8477637,472.0459304303422
940.0515701,633.3142247330543
944.249068,756.94849471626
948.4402684,5.3873887894460495
952.6251825,-9.100287348035636
956.8038212,38.92748687505991
960.9761955,419.2250473636868
965.1423166,321.4154034888252
969.3021953,254.30483027299124
973.4558427,431.0827282682858
977.6032699,405.96385032947
981.7444877,121.93196192872892
985.8795072,246.3671180317251
990.0083394,-33.00856562774425
994.1309953,-12.6079890383171
998.2474857,166.1206483845508
1002.357822,-218.94876921783543
1006.462014,157.31527411726347
1010.560075,297.20017370285314
1014.652013,108.27548016018955
1018.737841,107.64116570195802
1022.81757,2.3029518546118197
1026.891209,-55.225708655556446
1030.958771,-55.873059053985344
1035.020266,-2.0665706927366045
1039.075705,-26.989258034730483
1043.1251,77.299814441345
1047.16846,-235.37465047037313
1051.205797,-58.36730209919915
1055.237121,-92.85742046933774
1059.262444,-9.974568563482535
1063.281777,102.87505951471303
1067.295131,688.128195266575
1071.302515,1501.455850806743
1075.303942,1012.412169706974
1079.299422,1675.7350888152932
1083.288966,1116.4176014528066
1087.272585,683.2903052611637
1091.250289,293.3741965991303
1095.222091,524.5542511369149
1099.187999,-144.24312479631044
1103.148026,92.06947095613668
1107.102183,434.88480721405267
1111.050479,-37.844148665675675
1114.992927,232.49089549718337
1118.929536,115.92053623600395
1122.860318,568.2276334508874
1126.785283,501.1827455303901
1130.704443,1113.3363781412595
1134.617808,1409.9592577767626
1138.52539,1544.0562059160015
1142.427198,1042.507407996619
1146.323244,862.2059695941216
1150.213538,676.2866678165051
1154.098093,1165.9422869464815
1157.976917,564.9323841657401
1161.850023,424.84803213614214
1165.717421,487.05276221981376
1169.579121,83.47051146091917
1173.435135,387.4244417565219
1177.285474,-26.72047606982119
1181.130148,432.8437030338964
1184.969169,651.1829352379355
1188.802547,155.6836676246537
1192.630292,321.2225672967036
1196.452416,8.110753649242724
1200.26893,310.8059218035339
1204.079844,16.37619867997921
1207.88517,1.7341520659477965
1211.684917,215.83293240844364
1215.479098,-219.2448825542065
1219.267722,395.7504438091281
1223.050801,-322.32355854407405
1226.828346,153.63247374935239
1230.600366,161.93034857298255
1234.366874,-62.873892629964196
1238.12788,102.80325782829416
1241.883395,-72.90614261412736
1245.633429,-114.07366126528439
1249.377994,398.688988502038
1253.1171,226.82332639429063
1256.850759,-11.068229153778429
1260.578981,30.823796607393128
1264.301776,0.9504242798857807
1268.019157,86.48407590526
1271.731133,38.49561619070751
1275.437715,24.179439079633045
1279.138915,168.76197832516468
1282.834743,382.94861645025765
1286.52521,-66.59285474347803
1290.210328,-124.36229365709383
1293.890106,-196.01248631821545
1297.564555,153.18938146161486
1301.233688,-9.459124020496347
1304.897514,232.74126530294043
1308.556044,144.20377583893287
1312.209289,118.3903278775419
1315.857261,-157.98529360293423
1319.499969,-175.37354310999527
1323.137425,452.50748041824784
1326.769641,-21.351695783276853
1330.396626,410.36563189036093
1334.018391,298.49064928095993
1337.634948,35.977566737712124
1341.246307,122.17639809746896
1344.85248,45.191247193441484
1348.453477,154.58357047678828
1352.049309,-236.21443737799206
1355.639987,286.35262787504865
1359.225522,155.15118787152554
1362.805925,77.2095886869048
1366.381207,-116.37129326799297
1369.951379,-82.71215816460959
1373.516452,350.82412280605195
1377.076436,275.28804363637977
1380.631343,569.136256650991
1384.181184,410.55201118091816
1387.725969,416.42552664029483
1391.26571,501.42295843622577
1394.800417,426.6046666266977
1398.330102,57.01602762544613
1401.854776,66.61152547102358
1405.374448,-214.069813478916
1408.889132,138.3202551522408
1412.398837,-84.89199738274885
1415.903574,-156.84747504703657
1419.403355,167.65083185649462
1422.89819,62.23475836085001
1426.388091,392.7721739322756
1429.873069,609.3998757394425
1433.353134,619.1912085191747
1436.828298,598.6937504096242
1440.298571,217.9376308720802
1443.763965,-114.71317227617527
1447.224491,-51.34309436722664
1450.68016,-5.00615029356231
1454.130983,161.0846896375864
1457.576971,-74.55572059695645
1461.018135,327.3008961591695
1464.454486,141.95739016100447
1467.886036,10.696853335524075
1471.312794,1.012188927287621
1474.734774,145.0737097602342
1478.151985,276.7212473418243
1481.564439,322.5375361443804
1484.972146,74.62327990385063
1488.375119,-276.71093116956274
1491.773368,-76.89711227257386
1495.166904,-210.3169054600278
1498.555739,75.15283433341244
1501.939883,112.04481332892897
1505.319349,-186.6429544791825
1508.694146,-19.15654269239144
1512.064286,133.57394482193695
1515.429781,74.22455917693594
1518.790642,143.63275470082556
1522.146879,96.00134769212514
1525.498505,-34.191454230459385
1528.845529,-521.6833888588773
1532.187965,37.04033006300301
1535.525822,65.13619685389313
1538.859112,44.17724160921284
1542.187846,65.23071253864873
1545.512036,-61.3328490786771
1548.831693,136.1413587054426
1552.146829,38.116695031755626
1555.457453,148.50100324877803
1558.763579,-456.0123070552677
1562.065216,55.754060590767494
1565.362377,358.1430024700189
1568.655073,145.31034334534615
1571.943315,150.02244314091377
1575.227114,88.49808381354387
1578.506482,283.264154414785
1581.781431,263.4265578541299
1585.051971,225.80406998164153
1588.318114,385.7469440796549
1591.579872,487.59647627614686
1594.837255,66.72926162968452
1598.090275,109.18819387207805
1601.338945,-5.06920888120294
1604.583274,21.88338579018955
1607.823275,143.70989605180807
1611.058959,-240.03468686755218
1614.290338,42.918747477856414
1617.517422,-127.38293614098029
1620.740224,111.49587046170063
1623.958755,-5.650546514551593
1627.173027,-113.34118299741226
1630.38305,-267.32929198608446
1633.588838,14.14674989820844
1636.7904,67.36001621521098
1639.987749,147.28275160580404
1643.180896,16.52551155767543
1646.369853,-25.29989992095568
1649.554632,273.03147325707334
1652.735244,-7.644016613499048
1655.9117,-55.05884004962295
1659.084013,-76.67213962713664
1662.252193,67.10829287556143
1665.416254,-97.13231186335278
1668.576205,284.8820459815002
1671.732059,40.19271855974826
1674.883828,413.9864173071874
1678.031523,-103.7612461925448
1681.175157,127.82435957056833
1684.314739,307.47306850804097
1687.450284,144.20377282182613
1690.581801,-43.77764469533164
1693.709304,-186.64450771527555
1696.832803,-23.366798338340956
1699.952311,-136.16449665711357
1703.067839,118.33444217605205
1706.179399,153.40686457957247
1709.287003,90.38826717467501
1712.390663,-102.42569759024448
1715.49039,65.04011208317232
1718.586197,82.6683152680744
1721.678095,-34.481549071855824
1724.766096,-69.40992067662836
1727.850213,-5.713297508249553
1730.930456,-38.52721923410152
1734.006838,79.56720827525433
1737.079372,-37.030590310360225
1740.148067,-31.872809524429158
1743.212938,86.5084117682348
1746.273996,77.2129087892449
1749.331252,-133.5922424177705
1752.384718,226.59240347941335
1755.434408,142.5496785494874
1758.480332,50.909989864964004
1761.522503,127.86798645329316
1764.560933,-44.1686247585742
1767.595634,-282.5404037916847
1770.626618,47.78524786953187
1773.653896,23.128518249436638
1776.677482,-292.07071243961263
1779.697388,-27.75428231547866
1782.713625,56.96106885791468
1785.726205,21.74530758079019
1788.735141,78.67137200851705
1791.740445,-39.214306586670226
1794.742129,-179.51662216028237
1797.740206,148.98243854967643
1800.734687,139.63945729209905
1803.725585,159.2907742554384
1806.712912,-55.916153360078994
1809.69668,-8.638501581481734
1812.676902,117.02704217946672
1815.65359,-98.34496100707509
1818.626756,-38.26425665735283
1821.596413,-36.414059824920784
1824.562573,-69.11215637357198
1827.525247,24.110325896725612
1830.48445,118.83313700777445
1833.440192,59.527359723785835
1836.392487,-84.47382672518128
1839.341347,24.68081106685834
1842.286784,-98.7484251973477
1845.22881,-136.35057455897982
1848.167439,-6.835006605564168
1851.102682,109.55724163065554
1854.034553,-102.43889749106619
1856.963063,68.36271344849571
1859.888226,168.9579930875693
1862.810053,125.15792305782541
1865.728557,-28.749182899152196
1868.643751,-29.742351719548502
1871.555648,34.680369073458834
1874.46426,-275.45362506078266
1877.369599,302.1417686535832
1880.271679,-18.545144326187533
1883.170512,3.0218829404484
1886.06611,14.00041540261985
1888.958487,48.090691934086934
1891.847655,0.8271281067384764
1894.733626,1.594729003774539
1897.616414,150.60620812652107
1900.496032,-242.45704398799722
1903.372491,-14.35683777666475
1906.245805,53.90396557533604
1909.115987,159.48820524042426
1911.983049,24.23833255111351
1914.847004,-22.96673328423178
1917.707866,75.17631815913319
1920.565646,-41.27139240314955
1923.420359,-80.87448661721194
1926.272016,-27.638724830727604
1929.120631,-66.55363997764171
1931.966216,53.196021102121165
1934.808786,135.47530194610619
1937.648351,-138.62189421500847
1940.484927,-165.83662211123362
1943.318525,15.78517529655895
1946.149158,111.48398781429576
1948.97684,373.16135737518806
1951.801584,91.29648850627032
1954.623403,-87.24073074029417
1957.44231,143.01801567660195
1960.258318,-23.581785446422682
1963.071439,-57.853882198413224
1965.881688,61.77781695305163
1968.689078,298.0245549989496
1971.493621,-69.60278277499106
