Raman shift cm-1,4ATP_1uM_rep1_acc5_processed_intensity
-93.47115107,348.5155628290226
-87.69374369,44.838156249592686
-81.9253076,-38.06929653415591
-76.16582701,-30.380568274663148
-70.41528615,122.79129245602775
-64.67366933,-86.88136543161086
-58.94096086,-72.81375454881501
-53.21714512,-52.01356607552977
-47.50220652,25.115168593047812
-41.79612954,-39.60594662806691
-36.09889866,72.49770741806687
-30.41049843,70.98180289382753
-24.73091343,88.30569896710179
-19.0601283,1.3250266907107253
-13.39812769,-5.920353788690598
-7.744896327,-77.22386182766803
-2.100418946,-145.67851039550752
3.535319659,124.43482151907408
9.162334658,-41.204829533830846
14.78064118,11.217329379063969
20.39025432,2.603253559466321
25.99118913,23.947502838509397
31.58346061,81.58281354888533
37.16708375,61.495646417511004
42.74207347,23.522497858974738
48.30844468,-56.89165789125546
53.86621222,-76.25493162553462
59.41539093,-3.847178529329433
64.95599558,-132.6216170011051
70.48804091,42.86351630857679
76.01154164,5.58566175238429
81.52651243,-153.40141265521396
87.03296792,51.413653105359806
92.5309227,184.27620630136042
98.02039134,-12.634374754940389
103.5013884,-44.4663107060138
108.9739282,17.3215529700254
114.4380255,33.369701164659766
119.8936944,-23.176672003091547
125.3409495,247.2049697496211
130.779805,4.463733413302755
136.2102753,-78.2159610395866
141.6323747,-41.91978956532498
147.0461174,62.84865242405441
152.4515176,5.349357870900362
157.8485895,-24.039171518397144
163.2373472,85.99515849616392
168.6178049,125.39080936958564
173.9899766,299.14961069914557
179.3538764,203.67466069807486
184.7095182,258.00852430020586
190.0569161,393.1875326833135
195.396084,577.0835247586508
200.7270358,344.86106126310204
206.0497854,592.4523348341465
211.3643466,424.66311015114314
216.6707333,659.3256129656929
221.9689593,457.4324443548487
227.2590382,574.5551347362363
232.5409839,437.3195089183187
237.8148101,467.48946881587347
243.0805303,352.5016787257422
248.3381582,491.75181220362754
253.5877075,240.55105062045968
258.8291917,338.4318292349329
264.0626244,8.308674397530524
269.288019,112.17710954802035
274.5053891,-211.79104787377435
279.7147481,-174.23186022588237
284.9161094,56.79438516801554
290.1094865,2605.2189910321395
295.2948927,10286.35640629383
300.4723414,29039.873316264595
305.6418459,47837.82248010343
310.8034194,46721.558282301194
315.9570752,45140.500362322506
321.1028267,44755.71609781691
326.2406869,43908.38679258197
331.370669,43481.48692706687
336.4927863,42584.57573693713
341.6070517,42106.11163208123
346.7134786,41406.17254485651
351.8120798,40768.790716588
356.9028684,40098.76585592398
361.9858576,39538.79096169293
367.0610602,38485.37557460611
372.1284892,38145.061986781264
377.1881577,37039.567011341016
382.2400784,36671.74712950521
387.2842644,35878.21202256415
392.3207284,35137.62293830594
397.3494833,34460.42681622826
402.370542,33515.46558577996
407.3839172,32739.577065209312
412.3896217,32098.535346665114
417.3876683,31428.15099497772
422.3780697,30503.10055090113
427.3608386,29495.339690400164
432.3359876,28465.43753213883
437.3035295,27448.237428786175
442.2634769,26589.189297189216
447.2158423,26210.238942803455
452.1606383,25272.199159895015
457.0978776,24279.410766547295
462.0275727,23846.192376579012
466.9497361,22682.29113152158
471.8643802,22245.396157721727
476.7715176,21028.956156397715
481.6711608,20152.189880919126
486.5633221,19129.175269533
491.448014,18422.684991587434
496.3252488,17654.89796381126
501.195039,16779.86424048865
506.0573969,15710.161537464046
510.9123349,15088.892587254231
515.7598651,14667.431545236079
520.6,13521.300657273066
525.4327518,12927.516935731139
530.2581327,11985.216388697329
535.076155,11699.827977531513
539.8868309,10609.653391249158
544.6901726,9890.946128382693
549.4861922,9337.143610004958
554.2749019,8081.664795005068
559.0563139,7917.783390193479
563.8304402,7491.443931617043
568.597293,6087.2817882506715
573.3568844,5826.364278020756
578.1092263,5417.540300533172
582.8543308,4615.66688652771
587.5922101,4119.918398861351
592.322876,3894.3404523704594
597.0463405,3259.099019135596
601.7626157,2644.3717340893236
606.4717135,2487.6402554908527
611.1736458,2163.335885404522
615.8684246,1709.8115432316663
620.5560617,1202.9565752620656
625.2365691,1084.133390207633
629.9099585,431.0128713036502
634.5762419,81.74198710491328
639.2354312,453.46203282359056
643.887538,109.99728690073971
648.5325743,190.5336024698372
653.1705518,101.06192400622604
657.8014823,-78.14922956176088
662.4253775,281.50113326542487
667.0422493,30.94466988912609
671.6521092,20.606641246609797
676.2549691,-119.08409897964157
680.8508407,-104.59564301269711
685.4397355,28.72389628966266
690.0216654,-67.80841451815286
694.5966419,93.70528399863542
699.1646767,-212.37891506855158
703.7257814,15.512691905594693
708.2799676,-28.353658564639773
712.827247,-110.28730929580706
717.367631,56.52034885941612
721.9011314,48.02357848403335
726.4277595,520.4316318762721
730.9475271,2.0025093536896748
735.4604456,133.587086039337
739.9665264,-258.46911698285476
744.4657813,162.47353824526
748.9582215,77.71880356587644
753.4438587,502.4517144225392
757.9227042,450.97935999456604
762.3947696,156.96363930934967
766.8600662,372.3285537211268
771.3186056,-499.21408407410854
775.770399,41.755507479207154
780.215458,-114.74184967022302
784.6537939,189.12909542459602
789.0854181,308.7611706879834
793.510342,124.45031751086572
797.9285769,-156.0509090939995
802.3401342,119.53585899475729
806.7450253,11.891208631986956
811.1432614,-87.84640191740618
815.5348538,60.61147685002288
819.9198139,100.42374176208978
824.2981531,42.431009737349086
828.6698824,-194.48661427733532
833.0350133,30.66392236068714
837.393557,136.17923356396568
841.7455248,-52.03076489831801
846.0909278,25.689416488374263
850.4297774,166.9849435230608
854.7620848,17.794238992973987
859.0878611,-106.47444151203854
863.4071176,381.96121311142997
867.7198655,133.2199980724963
872.026116,-35.54666138733592
876.3258802,-263.36091526373275
880.6191693,44.92194799305253
884.9059946,137.49538709432272
889.186367,-246.76763423775992
893.4602979,558.5389520186873
897.7277982,559.8013466038083
901.9888793,297.4957231810222
906.2435521,73.04233200736962
910.4918277,439.6914579786571
914.7337174,409.02908706128073
918.9692321,477.9508345645572
923.1983831,83.67210787196382
927.4211813,322.05217580855424
931.6376378,-157.23288154944748
935.8477637,174.65276321128476
940.0515701,58.72753963786636
944.249068,-29.587998773617073
948.4402684,561.076104296375
952.6251825,-86.42193737610069
956.8038212,229.69376052599182
960.9761955,-234.57959860044411
965.1423166,135.1085510019393
969.3021953,-4.191624305556616
973.4558427,41.66043463199276
977.6032699,68.69134776950432
981.7444877,22.801833426736266
985.8795072,26.133708419472896
990.0083394,-43.20808927227881
994.1309953,129.17353597723195
998.2474857,-112.78661526076758
1002.357822,402.6614101520745
1006.462014,47.68421799330281
1010.560075,169.23926141918673
1014.652013,-62.68093703402519
1018.737841,-365.9994002019821
1022.81757,25.081464298690662
1026.891209,-11.450143847131585
1030.958771,148.0918522805723
1035.020266,-200.50271787949896
1039.075705,24.97074759379575
1043.1251,128.4892406050576
1047.16846,19.439282411595286
1051.205797,-28.34309207303022
1055.237121,194.24507306976284
1059.262444,127.39428253613733
1063.281777,410.269272106832
1067.295131,431.93986720615885
1071.302515,-108.27445406980178
1075.303942,246.24315629754346
1079.299422,-210.11514016072078
1083.288966,-5.6726588281458135
1087.272585,84.61964090454876
1091.250289,-87.94764891171917
1095.222091,-122.56314678712238
1099.187999,93.68628394514644
1103.148026,83.27636686828441
1107.102183,75.30892267983916
1111.050479,1.014913868252961
1114.992927,3.4902211189564696
1118.929536,139.55445260109184
1122.860318,-165.4326888299098
1126.785283,343.4418495296023
1130.704443,388.04296650018375
1134.617808,-76.18395206930356
1138.52539,-11.150382200246241
1142.427198,77.27291222595917
1146.323244,-97.54669679267252
1150.213538,185.31698412056147
1154.098093,-155.66843977000164
1157.976917,331.98208611882364
1161.850023,252.1210512122915
1165.717421,-21.97144600657907
1169.579121,41.09819456126735
1173.435135,-73.93179391848525
1177.285474,360.58788592432177
1181.130148,353.6994652740131
1184.969169,-56.118336137316504
1188.802547,53.90480801614831
1192.630292,136.604124702425
1196.452416,364.0210059599989
1200.26893,118.22400286540966
1204.079844,398.3865514395549
1207.88517,563.6870765828261
1211.684917,192.1144676266403
1215.479098,353.7459465674664
1219.267722,-615.916482458562
1223.050801,253.18206110840796
1226.828346,322.8736807942548
1230.600366,30.43108090789977
1234.366874,71.96903644315992
1238.12788,147.35569401775942
1241.883395,139.72644132440516
1245.633429,-146.3055855920714
1249.377994,-39.09950139860176
1253.1171,315.116105365996
1256.850759,89.38038253497402
1260.578981,-6.788838385744903
1264.301776,72.48214902000328
1268.019157,-4.332275608431452
1271.731133,228.7060401552528
1275.437715,271.3993305499441
1279.138915,-26.44825010178073
1282.834743,-224.26794487632696
1286.52521,130.04050528265105
1290.210328,155.59995430115202
1293.890106,130.21560197007355
1297.564555,-226.40416994445937
1301.233688,335.2876366691849
1304.897514,46.065006853074095
1308.556044,49.04404575639211
1312.209289,-21.15473013913902
1315.857261,386.70966056583325
1319.499969,259.6648888101666
1323.137425,-153.87950499604523
1326.769641,89.12521447853362
1330.396626,-272.95611666275687
1334.018391,32.82008824502586
1337.634948,-37.84373496423193
1341.246307,84.45390636597625
1344.85248,170.77257808386497
1348.453477,179.90363144197892
1352.049309,232.96005003425728
1355.639987,103.34653006771978
1359.225522,-205.90635185651308
1362.805925,38.22195800869545
1366.381207,62.29048443269238
1369.951379,-53.04344379392742
1373.516452,-96.19390579856508
1377.076436,-211.0127052186025
1380.631343,-38.24723457479428
1384.181184,43.76551789053872
1387.725969,-29.32441904387497
1391.26571,108.37747910393557
1394.800417,182.5171566444858
1398.330102,32.79332525681593
1401.854776,-101.95299500868941
1405.374448,-136.96555450762025
1408.889132,185.6267756669149
1412.398837,319.9220084298513
1415.903574,112.35473957012414
1419.403355,-297.58737243015776
1422.89819,83.34973588610296
1426.388091,74.15222952595195
1429.873069,-241.02478291538705
1433.353134,126.37614937249373
1436.828298,75.91313426367287
1440.298571,-114.44991512032811
1443.763965,95.41294559566404
1447.224491,159.6862741146383
1450.68016,156.61523874334216
1454.130983,-123.38952518363658
1457.576971,-66.94341775005387
1461.018135,-126.0925860150387
1464.454486,-168.1008267730681
1467.886036,148.97609331317972
1471.312794,102.94864283313927
1474.734774,338.37753120612297
1478.151985,-134.74134926538136
1481.564439,55.73027293589348
1484.972146,31.54974756885167
1488.375119,311.0053890612189
1491.773368,25.73661832318976
1495.166904,-370.62471770815046
1498.555739,33.47609090711012
1501.939883,15.324914079975315
1505.319349,290.775623401194
1508.694146,-14.912518773305237
1512.064286,-47.28021053892644
1515.429781,82.33980940265246
1518.790642,105.5622949612407
1522.146879,123.33572854518206
1525.498505,397.0823949257074
1528.845529,518.6102520528048
1532.187965,72.03098081427925
1535.525822,638.0510018918822
1538.859112,685.6839758611277
1542.187846,575.8472519686939
1545.512036,1328.575971574728
1548.831693,750.0167578946757
1552.146829,1304.8019288719925
1555.457453,2170.051775617031
1558.763579,2631.37300881145
1562.065216,2781.2146325340336
1565.362377,2881.6903330691475
1568.655073,3292.0059614254396
1571.943315,3658.393611545481
1575.227114,3994.519667823577
1578.506482,4291.133503749591
1581.781431,4002.8437315562824
1585.051971,3574.5948477785614
1588.318114,3776.7641174061255
1591.579872,3378.784286854403
1594.837255,2797.7841444315036
1598.090275,2451.3126784381457
1601.338945,2124.11381570945
1604.583274,2040.6661918235159
1607.823275,1853.9470743500115
1611.058959,1101.6745666074603
1614.290338,1131.7558104513464
1617.517422,582.6257664335708
1620.740224,703.6206822237605
1623.958755,538.1668836135204
1627.173027,173.3194166219505
1630.38305,-20.544140480007172
1633.588838,-73.39881504587765
1636.7904,37.87231482717789
1639.987749,191.5599226770987
1643.180896,114.76037327412405
1646.369853,-14.834994710494357
1649.554632,93.07881958759799
1652.735244,-182.05016654294923
1655.9117,-254.6095977980521
1659.084013,-310.7890817495438
1662.252193,83.55879442556471
1665.416254,-110.20237798298155
1668.576205,15.915957440236411
1671.732059,126.08245821140797
1674.883828,594.1718460791202
1678.031523,-15.308554056673188
1681.175157,-139.85248479766815
1684.314739,268.7638875541038
1687.450284,137.68292710638053
1690.581801,-77.85417764522145
1693.709304,-110.78167551590676
1696.832803,-27.498657752666716
1699.952311,-35.65769266478577
1703.067839,105.43607591300186
1706.179399,118.31859324047527
1709.287003,137.80485289489167
1712.390663,45.99196298132833
1715.49039,63.925197585223984
1718.586197,23.531454697341132
1721.678095,-48.26775361974403
1724.766096,74.94119823718269
1727.850213,-78.44809687511335
1730.930456,-320.66830877214466
1734.006838,99.40778028113404
1737.079372,-113.84533898814402
1740.148067,112.16146432859645
1743.212938,169.10803539470606
1746.273996,73.61025318278033
1749.331252,166.20447755378237
1752.384718,-2.4172835913638195
1755.434408,48.46016939868669
1758.480332,109.40373630858151
1761.522503,-93.01469439983813
1764.560933,-48.678823994515824
1767.595634,-330.2959485862378
1770.626618,-98.1443883848205
1773.653896,4.562624886160563
1776.677482,-210.0116624867485
1779.697388,-14.740108094573657
1782.713625,140.5602756194906
1785.726205,113.0615979800404
1788.735141,131.25012204718203
1791.740445,-66.85933631772659
1794.742129,-155.0940332420277
1797.740206,-18.501309490276096
1800.734687,109.66147841076584
1803.725585,346.2829649043553
1806.712912,123.53475969331454
1809.69668,155.54001515036694
1812.676902,99.28437927355475
1815.65359,-157.35829496353762
1818.626756,-3.0174109398809037
1821.596413,-36.217913932417275
1824.562573,-165.37032207480007
1827.525247,109.54154781797854
1830.48445,-59.817947821689245
1833.440192,44.94552471856106
1836.392487,-132.45198112962407
1839.341347,188.24599979747268
1842.286784,-32.416436591304674
1845.22881,-130.31031392357806
1848.167439,64.46868208045791
1851.102682,69.30544694940949
1854.034553,-111.98145557746167
1856.963063,174.3290383011631
1859.888226,51.86583122052351
1862.810053,57.31648884145933
1865.728557,124.07658704526199
1868.643751,-189.2536390928587
1871.555648,75.17901092115198
1874.46426,-330.9227623224933
1877.369599,258.61139227679575
1880.271679,-158.4122485458226
1883.170512,5.885385109426991
1886.06611,125.63937929688936
1888.958487,251.19740201938976
1891.847655,96.73083371925264
1894.733626,55.317924568659635
1897.616414,113.14580765038836
1900.496032,-194.2854329088075
1903.372491,106.74018830855658
1906.245805,-59.15320750737621
1909.115987,174.13025585308014
1911.983049,-73.22223400419782
1914.847004,-30.43931388046748
1917.707866,83.836620990737
1920.565646,-3.252040035638437
1923.420359,-140.124324822297
1926.272016,-51.3375376078134
1929.120631,-50.172840051580486
1931.966216,84.94790002216746
1934.808786,119.2375210703991
1937.648351,-104.24004108442382
1940.484927,-51.14533506646707
1943.318525,-85.13663014610128
1946.149158,107.47421688358178
1948.97684,360.5166977956957
1951.801584,72.65258283296671
1954.623403,-52.23523572737214
1957.44231,54.56564847698628
1960.258318,-58.951082427207155
1963.071439,43.292547793029506
1965.881688,100.48518952608295
1968.689078,434.3293098185237
1971.493621,-112.76241440163125
