Raman shift cm-1,4ATP_1uM_rep2_acc5_processed_intensity
-93.47115107,466.16674027614306
-87.69374369,44.237560088499464
-81.9253076,-22.916576681235753
-76.16582701,154.4058164683812
-70.41528615,147.43810224027308
-64.67366933,-33.419578646906366
-58.94096086,-53.90866161891521
-53.21714512,-2.486115581878714
-47.50220652,-7.4410132515360985
-41.79612954,46.35164939543089
-36.09889866,198.20893220093504
-30.41049843,155.72969098892452
-24.73091343,46.66394352892676
-19.0601283,7.498312344030097
-13.39812769,49.7103426348354
-7.744896327,-3.1698549482420475
-2.100418946,-73.61724310344816
3.535319659,42.61000985478819
9.162334658,-69.86950234038473
14.78064118,-33.4054814283159
20.39025432,48.21472043391672
25.99118913,34.41700646256809
31.58346061,114.46096327310214
37.16708375,37.72557190001284
42.74207347,-9.544836337934884
48.30844468,-41.56453744073948
53.86621222,0.12935274058675805
59.41539093,5.518756187294058
64.95599558,-62.17013181807566
70.48804091,40.35322459412112
76.01154164,53.54609057700242
81.52651243,-59.42833822553902
87.03296792,70.10430695632303
92.5309227,236.6958590211637
98.02039134,86.31625006630986
103.5013884,-8.668223214438218
108.9739282,52.84292177473152
114.4380255,0.5314295873877555
119.8936944,177.98196526705055
125.3409495,335.8368384990755
130.779805,90.99110612355179
136.2102753,-59.73382579859155
141.6323747,1.8960257134475889
147.0461174,111.16462136769303
152.4515176,5.417584218523926
157.8485895,-39.14856050817218
163.2373472,13.273632740229706
168.6178049,32.42727987495924
173.9899766,184.8200497653231
179.3538764,33.09176184441653
184.7095182,17.41548731681351
190.0569161,165.82937761630234
195.396084,128.4849409971578
200.7270358,111.22362062474801
206.0497854,-10.54124834402764
211.3643466,-11.406520225400206
216.6707333,30.876496204336974
221.9689593,-41.2408134415288
227.2590382,-17.78558452322487
232.5409839,30.187974758590993
237.8148101,9.243795287478344
243.0805303,-15.423323996321741
248.3381582,-30.222455980163083
253.5877075,20.83630413539429
258.8291917,36.96740060798179
264.0626244,32.19034842909177
269.288019,90.10739499163128
274.5053891,52.15872956798242
279.7147481,-16.526917329347384
284.9161094,-86.0646665824694
290.1094865,-44.826852493169525
295.2948927,243.46197398399624
300.4723414,859.4086467236219
305.6418459,1555.5900021179702
310.8034194,2159.680526315268
315.9570752,2695.9622375789513
321.1028267,2852.1592249759206
326.2406869,2885.242937008788
331.370669,2969.66342537347
336.4927863,3158.477093313384
341.6070517,3284.4474865272614
346.7134786,3240.792055723285
351.8120798,3434.748590482995
356.9028684,3390.1134235120003
361.9858576,3235.924631859609
367.0610602,3267.6760966990723
372.1284892,3241.2928942765566
377.1881577,4047.307161186122
382.2400784,5961.987071881045
387.2842644,8336.539870138553
392.3207284,9821.094943492211
397.3494833,8994.911503804507
402.370542,6968.568337615318
407.3839172,4936.737093831798
412.3896217,3214.8137697164448
417.3876683,2318.209903825332
422.3780697,1739.4393177240338
427.3608386,1369.1680025319604
432.3359876,1224.6736365067068
437.3035295,1115.1506451196046
442.2634769,932.1473040621768
447.2158423,613.2529464573186
452.1606383,450.5520202091425
457.0978776,247.89645649863132
462.0275727,240.23288619011055
466.9497361,160.66211615631482
471.8643802,35.37759722799683
476.7715176,125.08682435635183
481.6711608,84.4628278953287
486.5633221,170.00320631706427
491.448014,161.5969268898475
496.3252488,98.51170216405717
501.195039,40.83584953525087
506.0573969,52.07521628026507
510.9123349,1.7799697912009833
515.7598651,-76.09348225768235
520.6,5.716402891307098
525.4327518,24.91437082515631
530.2581327,28.068433903208643
535.076155,-123.35180581988811
539.8868309,39.09798131429716
544.6901726,29.87463438812165
549.4861922,-14.826449161479104
554.2749019,347.79317729495506
559.0563139,139.91024386013441
563.8304402,84.90834215627433
568.597293,326.67952366484656
573.3568844,214.88624785908155
578.1092263,71.1633672501323
582.8543308,5.975567256441991
587.5922101,48.91700012559045
592.322876,-0.47457092436411585
597.0463405,-41.33612778364477
601.7626157,-28.24698322849804
606.4717135,-100.75806707807192
611.1736458,18.263158720786805
615.8684246,116.45082478351401
620.5560617,150.74577836205594
625.2365691,53.590977935859655
629.9099585,36.526603628381736
634.5762419,261.6488844172793
639.2354312,260.93331284440774
643.887538,311.84843844788065
648.5325743,209.5057951118224
653.1705518,88.32714243556666
657.8014823,53.28705387353716
662.4253775,-61.46577035357427
667.0422493,7.620249300433443
671.6521092,83.60836555097126
676.2549691,198.21179473799066
680.8508407,12.09338571943772
685.4397355,-14.79190070065033
690.0216654,147.1300401330118
694.5966419,173.71055687454304
699.1646767,386.4750059770507
703.7257814,470.9084483032435
708.2799676,473.65370284938206
712.827247,249.0024422653887
717.367631,237.5660947031388
721.9011314,208.56823569534504
726.4277595,-4.328131154189236
730.9475271,87.55166317003125
735.4604456,102.87459860518959
739.9665264,236.54318355239934
744.4657813,120.81532800973525
748.9582215,4.464579606378152
753.4438587,2.532588552584116
757.9227042,-94.21870762395156
762.3947696,8.013006556561777
766.8600662,32.29918436212256
771.3186056,180.15908227095622
775.770399,153.45950430968935
780.215458,36.83783607454791
784.6537939,100.54744388990343
789.0854181,47.466148769416804
793.510342,166.0930825852863
797.9285769,495.2956461652942
802.3401342,561.8524116186752
806.7450253,452.9493086087444
811.1432614,424.6210757908168
815.5348538,273.7176411437417
819.9198139,274.18818563126445
824.2981531,330.83922429725305
828.6698824,193.50429098024412
833.0350133,118.67977437622588
837.393557,21.789075984249536
841.7455248,72.65580605184905
846.0909278,149.35973298801068
850.4297774,-7.348638888702688
854.7620848,-48.09572692146668
859.0878611,-35.19232591735579
863.4071176,-54.840804579331284
867.7198655,45.231909655135
872.026116,221.2053698683645
876.3258802,239.75228381137742
880.6191693,173.64140158698376
884.9059946,331.2782797412879
889.186367,311.04189846565805
893.4602979,11.655451226830076
897.7277982,26.198292620730374
901.9888793,216.88405546847997
906.2435521,261.86237636290184
910.4918277,375.3160921423792
914.7337174,272.56418642055036
918.9692321,321.9275770027683
923.1983831,700.4499249304953
927.4211813,665.293388218699
931.6376378,536.422207186211
935.8477637,599.4723027192717
940.0515701,779.961997612186
944.249068,627.0363522900578
948.4402684,526.9448874673514
952.6251825,735.816516712737
956.8038212,718.8322808389659
960.9761955,823.8832602631861
965.1423166,698.4911731251696
969.3021953,628.0638959680205
973.4558427,824.7217036560561
977.6032699,703.3361941586412
981.7444877,695.4980539146611
985.8795072,727.5839315459209
990.0083394,543.1793985383823
994.1309953,701.9391486208688
998.2474857,754.8928452089618
1002.357822,616.5181060230217
1006.462014,832.8174478118021
1010.560075,688.793605161131
1014.652013,367.2710745836883
1018.737841,170.5613757378572
1022.81757,23.778468259463907
1026.891209,25.989670029921797
1030.958771,-22.764076707408947
1035.020266,14.99281747541393
1039.075705,38.71848900537951
1043.1251,-96.93474442997902
1047.16846,7.769597511479795
1051.205797,184.82184445540383
1055.237121,129.7823340633142
1059.262444,494.3893227709271
1063.281777,992.9179099461054
1067.295131,2175.1439789257997
1071.302515,4259.239154840049
1075.303942,5827.209858153347
1079.299422,6505.741052042834
1083.288966,5337.083090661182
1087.272585,3041.2305659115805
1091.250289,1535.7249472705369
1095.222091,645.7705655954561
1099.187999,136.33440633256416
1103.148026,88.04540116636866
1107.102183,42.728061804225014
1111.050479,-26.43407784829222
1114.992927,18.56676850627261
1118.929536,-23.747547326653503
1122.860318,122.40611697269439
1126.785283,297.7373155543556
1130.704443,698.9060045446435
1134.617808,1467.6188351254787
1138.52539,1749.970354062125
1142.427198,1704.4122447058528
1146.323244,1309.0716446531658
1150.213538,845.6483771794203
1154.098093,790.7775139462783
1157.976917,420.10977075896585
1161.850023,376.7452910919997
1165.717421,655.8910652119082
1169.579121,755.2031379046641
1173.435135,1080.5873756547098
1177.285474,1140.886396242494
1181.130148,1375.3340528285496
1184.969169,1403.3601652674563
1188.802547,987.1639188773968
1192.630292,633.7007225104153
1196.452416,192.91017359737327
1200.26893,219.96500102376802
1204.079844,46.78285589338911
1207.88517,-49.63515842078299
1211.684917,-12.340409916124358
1215.479098,-4.720858020988921
1219.267722,340.7232632571309
1223.050801,33.54263000903534
1226.828346,99.19701627406894
1230.600366,303.53924186847166
1234.366874,120.08784094528697
1238.12788,198.53929061932945
1241.883395,213.54378749883443
1245.633429,522.3119453932212
1249.377994,504.89562404429836
1253.1171,246.81144665376164
1256.850759,216.1813239748475
1260.578981,152.3290489469719
1264.301776,154.08801006243354
1268.019157,126.771327916097
1271.731133,-12.524892572597281
1275.437715,-38.99023265768072
1279.138915,275.5235143787978
1282.834743,291.83381026225936
1286.52521,153.6687707544368
1290.210328,16.972778616309313
1293.890106,19.25778078407554
1297.564555,228.79001466614667
1301.233688,96.39839943339005
1304.897514,135.22469156491275
1308.556044,172.94976135056146
1312.209289,34.36426521073084
1315.857261,-63.7637950358235
1319.499969,10.695153576592524
1323.137425,155.47009777914968
1326.769641,107.9973983289473
1330.396626,138.5186497502208
1334.018391,73.08744165207938
1337.634948,25.663955869765033
1341.246307,-1.4487343838254105
1344.85248,3.2582483575263126
1348.453477,93.21698649931729
1352.049309,-16.726836465453218
1355.639987,30.198635316497842
1359.225522,276.13372925999585
1362.805925,271.7995491563208
1366.381207,224.44425062204218
1369.951379,292.4120565831988
1373.516452,415.2916978696578
1377.076436,640.4337024640736
1380.631343,670.1328752194408
1384.181184,823.8661448535369
1387.725969,1044.7012417903495
1391.26571,912.7890634807474
1394.800417,728.9906051031935
1398.330102,579.8148040917039
1401.854776,455.58927184440876
1405.374448,188.032358555761
1408.889132,29.14506341426483
1412.398837,-70.1250945669866
1415.903574,-13.134823271294572
1419.403355,559.0043049922416
1422.89819,694.8642540247987
1426.388091,856.8402099852511
1429.873069,1254.9919270854257
1433.353134,1055.6514402594844
1436.828298,913.4629233267086
1440.298571,673.7365628963304
1443.763965,324.09065855296353
1447.224491,134.73392045513884
1450.68016,18.9384813848375
1454.130983,118.04319035206643
1457.576971,12.62909738028523
1461.018135,37.70167152700273
1464.454486,104.58748623435822
1467.886036,-13.194071489077274
1471.312794,-56.4828077042781
1474.734774,3.6960049849280523
1478.151985,163.68566291708112
1481.564439,53.601385671256814
1484.972146,9.140359958156793
1488.375119,12.754853503250686
1491.773368,74.81184179988685
1495.166904,177.09670036465326
1498.555739,22.1497102635781
1501.939883,-7.97883668961993
1505.319349,-32.80483101241576
1508.694146,-53.42789424740596
1512.064286,128.36869056507635
1515.429781,183.86631970334776
1518.790642,23.491294358996146
1522.146879,219.5111974935831
1525.498505,152.31870548399064
1528.845529,-0.47785100909297995
1532.187965,285.17498885445127
1535.525822,200.51901247927378
1538.859112,378.6738871554049
1542.187846,495.9048694909413
1545.512036,495.99168770914054
1548.831693,727.2722873771024
1552.146829,653.0772928960301
1555.457453,553.8148578680881
1558.763579,631.6379908395193
1562.065216,956.8521930639007
1565.362377,1211.9160922819094
1568.655073,1536.758868864067
1571.943315,1817.5281354272563
1575.227114,2013.024811042109
1578.506482,2423.1744935784186
1581.781431,2766.12317634952
1585.051971,2974.1611317816382
1588.318114,3080.3800726140544
1591.579872,2869.995682556883
1594.837255,2202.702809412343
1598.090275,1428.6534775241244
1601.338945,897.0585662267437
1604.583274,674.8935031378455
1607.823275,235.11412351962662
1611.058959,-25.35953408422781
1614.290338,30.23079488991941
1617.517422,-41.865780784750044
1620.740224,83.82420046220477
1623.958755,151.82151485022996
1627.173027,47.099463733469776
1630.38305,-30.715638618703025
1633.588838,46.43690438902679
1636.7904,66.83875577654622
1639.987749,99.30099355118075
1643.180896,46.86625232759806
1646.369853,-8.735269491607319
1649.554632,226.56408022403576
1652.735244,142.38435232168857
1655.9117,-83.35466712706514
1659.084013,25.17661468481535
1662.252193,116.1783206173599
1665.416254,-46.10748391608024
1668.576205,34.7237120198652
1671.732059,163.16425025986226
1674.883828,24.499373402481787
1678.031523,80.42811733731605
1681.175157,127.90468065224337
1684.314739,7.989024982064592
1687.450284,-6.008984416427751
1690.581801,-3.1091125784111426
1693.709304,-49.813214679923895
1696.832803,-16.678358420252422
1699.952311,26.849913537544793
1703.067839,66.30810932857905
1706.179399,171.68397224866177
1709.287003,133.2257131894144
1712.390663,34.86369689297274
1715.49039,93.17214228731905
1718.586197,23.33773219190735
1721.678095,-8.121926283864461
1724.766096,26.89617121311237
1727.850213,-69.5640879414011
1730.930456,-18.47977854206777
1734.006838,35.71074263822232
1737.079372,-13.335535160536665
1740.148067,73.15087246001478
1743.212938,187.99593920188835
1746.273996,127.09641307398441
1749.331252,84.6233440285423
1752.384718,22.742084356173333
1755.434408,13.028002419141787
1758.480332,98.00786199349469
1761.522503,26.490746816588633
1764.560933,-3.790996344485876
1767.595634,-46.6915428714392
1770.626618,36.7248306268383
1773.653896,137.15944512087236
1776.677482,-62.61425572696495
1779.697388,-17.2107767887237
1782.713625,155.29651910396447
1785.726205,150.57580528951567
1788.735141,120.13684042503381
1791.740445,27.68703699272409
1794.742129,39.622412182446595
1797.740206,156.80367096157045
1800.734687,221.5332868192184
1803.725585,209.66187331982283
1806.712912,98.72656500501192
1809.69668,30.859607980093923
1812.676902,-11.53245879810232
1815.65359,-69.77978634436109
1818.626756,10.945701634758697
1821.596413,-0.38965224985769575
1824.562573,-17.646817664975128
1827.525247,18.37340518072977
1830.48445,3.5495154759972074
1833.440192,21.05282429340614
1836.392487,-16.74752608217725
1839.341347,79.89708674465935
1842.286784,70.0165196694932
1845.22881,-26.5221490282896
1848.167439,32.23639295584539
1851.102682,25.165608957884885
1854.034553,-37.58523703924002
1856.963063,54.29581695912556
1859.888226,227.76971531983267
1862.810053,177.11949413541686
1865.728557,11.073803521304233
1868.643751,-14.706465002741709
1871.555648,10.86568080039814
1874.46426,-82.86142264418159
1877.369599,40.747791183304706
1880.271679,81.46017256971895
1883.170512,-43.19968246736522
1886.06611,123.63414342993218
1888.958487,119.23312404649661
1891.847655,28.932327297227392
1894.733626,97.4464757986441
1897.616414,34.25580405974499
1900.496032,-64.12819660855988
1903.372491,36.79319965731504
1906.245805,116.12628453568027
1909.115987,106.89773636478643
1911.983049,81.98448068020255
1914.847004,50.99792871894707
1917.707866,166.08889661704035
1920.565646,80.20396635174062
1923.420359,-67.57744240829848
1926.272016,13.774269463354234
1929.120631,-23.344456439340377
1931.966216,6.070733951213779
1934.808786,111.98117594439161
1937.648351,43.54641403981821
1940.484927,126.37199192666401
1943.318525,150.72944414602898
1946.149158,170.6104284960888
1948.97684,401.57366614488245
1951.801584,190.16220981334192
1954.623403,74.31181324911232
1957.44231,126.75592922079731
1960.258318,-52.740033288818054
1963.071439,-16.297813726111034
1965.881688,39.30089714599495
1968.689078,114.7900546777091
1971.493621,10.99644248241289
