Raman shift cm-1,4ATP_1fM_rep1_acc3_processed_intensity
-93.47115107,471.8013072986771
-87.69374369,209.2408989690557
-81.9253076,51.989406732776295
-76.16582701,9.971801196786451
-70.41528615,12.014519016215026
-64.67366933,-2.493183879632138
-58.94096086,-30.719219518064193
-53.21714512,-32.29990558439117
-47.50220652,18.76232274043246
-41.79612954,106.71036788191465
-36.09889866,185.80902867566982
-30.41049843,217.04286341791803
-24.73091343,192.22769020077678
-19.0601283,130.76287133680336
-13.39812769,65.67619680321955
-7.744896327,28.08747085872421
-2.100418946,28.558245202317224
3.535319659,50.251162949833216
9.162334658,68.59771386665123
14.78064118,78.36087144435699
20.39025432,96.72715350115116
25.99118913,135.96725108900063
31.58346061,174.4076044012007
37.16708375,169.89384756320484
42.74207347,108.14056958455183
48.30844468,21.73148720400424
53.86621222,-40.12159775758353
59.41539093,-49.00615131233968
64.95599558,-14.859815388232231
70.48804091,24.4718635534842
76.01154164,46.21062873619097
81.52651243,64.97488053597715
87.03296792,91.08690058388594
92.5309227,97.86636788694474
98.02039134,64.20131468669746
103.5013884,19.01152007254933
108.9739282,15.712779250099343
114.4380255,74.67058914442494
119.8936944,155.6569077017437
125.3409495,189.62101849754953
130.779805,149.01669802964437
136.2102753,73.76548559403837
141.6323747,15.404360806697444
147.0461174,-15.320258096954758
152.4515176,-27.867562143952796
157.8485895,-15.577634691437819
163.2373472,28.984045416918057
168.6178049,84.58179408051163
173.9899766,117.23094942993717
179.3538764,121.51015258307363
184.7095182,121.0588784940371
190.0569161,125.52402800481724
195.396084,114.32109806228569
200.7270358,73.82123077285648
206.0497854,23.50571226765986
211.3643466,-8.11809612301301
216.6707333,-12.996825891601933
221.9689593,-0.42098456804009743
227.2590382,15.895060534003424
232.5409839,21.64791639506597
237.8148101,9.62045609533152
243.0805303,-9.107653684464722
248.3381582,-10.577039252410785
253.5877075,21.88544215668668
258.8291917,85.8165251296675
264.0626244,160.39767841013258
269.288019,204.07603375364022
274.5053891,161.4908826878355
279.7147481,23.985865761232603
284.9161094,-83.06010146754703
290.1094865,99.14810064142256
295.2948927,819.8035406219952
300.4723414,2118.870605614921
305.6418459,3737.1103616444443
310.8034194,5236.029564908302
315.9570752,6260.868768037887
321.1028267,6739.0413872870895
326.2406869,6856.479892852965
331.370669,6868.257015624456
336.4927863,6933.8457473696535
341.6070517,7076.639037846946
346.7134786,7226.405650865765
351.8120798,7287.550168839154
356.9028684,7206.518111862072
361.9858576,7010.5571593488385
367.0610602,6804.797900004119
372.1284892,6741.150800135943
377.1881577,6953.62809543038
382.2400784,7447.46372140665
387.2842644,8019.641250663012
392.3207284,8341.45777981978
397.3494833,8182.622621139741
402.370542,7572.878273384615
407.3839172,6754.24398159121
412.3896217,5994.479777265637
417.3876683,5438.065764432115
422.3780697,5090.95648985139
427.3608386,4887.787521656755
432.3359876,4740.00645263763
437.3035295,4556.944979327054
442.2634769,4289.97689782939
447.2158423,3971.5345244535865
452.1606383,3680.7088809644383
457.0978776,3464.394864074663
462.0275727,3309.125201083498
466.9497361,3182.188786652233
471.8643802,3074.4642982087003
476.7715176,2996.673361933335
481.6711608,2946.7269695045397
486.5633221,2896.7113069472225
491.448014,2817.0088382253653
496.3252488,2696.5342506445663
501.195039,2530.3569584794022
506.0573969,2317.7856921693624
510.9123349,2088.2404115161685
515.7598651,1889.387083615351
520.6,1731.271068887529
525.4327518,1579.902599765148
530.2581327,1418.664748685586
535.076155,1279.1476808376196
539.8868309,1197.615422694596
544.6901726,1168.4595398403858
549.4861922,1151.3229788657363
554.2749019,1112.4523857256677
559.0563139,1056.0400355190195
563.8304402,1002.7322819813571
568.597293,935.2746920434015
573.3568844,809.1989103390315
578.1092263,627.6422417169515
582.8543308,452.291641964423
587.5922101,331.7024435244293
592.322876,259.7507181262913
597.0463405,202.53030554732368
601.7626157,137.77481915151793
606.4717135,70.29182431785603
611.1736458,21.711442448880916
615.8684246,4.209406151444455
620.5560617,6.2159669852712796
625.2365691,12.314142231862661
629.9099585,27.457022957656136
634.5762419,64.62728062898168
639.2354312,113.24688442919933
643.887538,137.3132956411855
648.5325743,110.19399774025169
653.1705518,45.468715041361975
657.8014823,-12.510947546344141
662.4253775,-26.242463553978723
667.0422493,4.7741011192151745
671.6521092,44.57083581732468
676.2549691,53.61128685699077
680.8508407,22.805898587657794
685.4397355,-24.361948482740445
690.0216654,-47.73439109390597
694.5966419,-9.848471223744127
699.1646767,88.72984008844855
703.7257814,191.11736366170248
708.2799676,229.24876180165484
712.827247,186.37260806781978
717.367631,102.23566330854715
721.9011314,30.937532381362644
726.4277595,5.747724390443636
730.9475271,29.04183706982576
735.4604456,79.02887084720646
739.9665264,122.62274199895364
744.4657813,128.93244529045614
748.9582215,83.85853462138925
753.4438587,8.492618537929047
757.9227042,-38.91042825594957
762.3947696,-2.756133615365684
766.8600662,110.9697155471273
771.3186056,221.66533686843343
775.770399,239.1675131584111
780.215458,148.52589852697986
784.6537939,30.268282941628968
789.0854181,-5.03480602932018
793.510342,84.72646344715156
797.9285769,232.43295804087933
802.3401342,323.76252854381454
806.7450253,296.60731014209773
811.1432614,178.1104991159993
815.5348538,47.04274656630449
819.9198139,-27.434079292657685
824.2981531,-28.919914973310625
828.6698824,6.281789885124127
833.0350133,29.5133480550508
837.393557,19.91258863761024
841.7455248,-7.86519441835064
846.0909278,-24.1263403911741
850.4297774,-14.813075407603083
854.7620848,6.463602815469539
859.0878611,25.90911049275423
863.4071176,59.38393639669982
867.7198655,131.02720078216117
872.026116,227.33052851833742
876.3258802,297.71461856622466
880.6191693,298.04864629248743
884.9059946,215.7533753270688
889.186367,77.78998336577081
893.4602979,-38.80377041265562
897.7277982,-51.29440974991286
901.9888793,32.28575258926569
906.2435521,107.66158046048174
910.4918277,99.03094271270098
914.7337174,44.33483355310028
918.9692321,31.751843553928552
923.1983831,94.98323465893228
927.4211813,189.68447974857492
931.6376378,244.5439439981692
935.8477637,219.51284728765916
940.0515701,128.77467026323802
944.249068,26.479726945053926
948.4402684,-24.631405247484906
952.6251825,6.560653278449308
956.8038212,90.72367738973804
960.9761955,160.20804589865418
965.1423166,171.97647897024095
969.3021953,136.54430420015285
973.4558427,88.14770582580829
977.6032699,49.60991346164781
981.7444877,27.04767731086622
985.8795072,17.69757987541732
990.0083394,13.188919918653625
994.1309953,1.9074515606882017
998.2474857,-19.62350964705388
1002.357822,-34.65796362438533
1006.462014,-19.957838954114607
1010.560075,23.687227760328568
1014.652013,65.55399835982024
1018.737841,73.78534496797903
1022.81757,48.60302910556791
1026.891209,19.973904085593063
1030.958771,9.809428540707238
1035.020266,11.497628437132612
1039.075705,14.108556016797028
1043.1251,18.956279407652456
1047.16846,15.818748253362559
1051.205797,-21.250045826330194
1055.237121,-74.13343741732169
1059.262444,-29.023697522391522
1063.281777,268.25998732404173
1067.295131,864.8459932477747
1071.302515,1597.535641987268
1075.303942,2150.5420678798464
1079.299422,2249.2176157680265
1083.288966,1850.2039531189394
1087.272585,1176.17484461892
1091.250289,547.3293570136553
1095.222091,158.11956757918156
1099.187999,6.160538433629789
1103.148026,-13.467205227134857
1107.102183,4.244096737157086
1111.050479,14.195774896892033
1114.992927,8.41440783588547
1118.929536,1.2509137103938315
1122.860318,29.00691773406389
1126.785283,138.9402752300234
1130.704443,343.6642498932117
1134.617808,577.6091093603937
1138.52539,726.5145333978768
1142.427198,724.5743369643847
1146.323244,610.7381830999475
1150.213538,476.5826137165468
1154.098093,381.86383579313485
1157.976917,341.87047633771164
1161.850023,359.94791754185457
1165.717421,426.85536573838056
1169.579121,510.1416800372693
1173.435135,580.9214236783295
1177.285474,635.0061708683917
1181.130148,664.3598848826757
1184.969169,632.5262478385168
1188.802547,512.8538212761342
1192.630292,335.0459204750071
1196.452416,160.74348430137331
1200.26893,29.144897498893954
1204.079844,-42.30518746920799
1207.88517,-30.90588884803293
1211.684917,66.1497159826826
1215.479098,185.4473678094854
1219.267722,231.5638314758836
1223.050801,173.7610067528496
1226.828346,73.25469272425593
1230.600366,9.592281646412289
1234.366874,18.069502256678167
1238.12788,92.76561970103236
1241.883395,199.38663284855437
1245.633429,278.8427839869249
1249.377994,279.6508931621114
1253.1171,207.657032520602
1256.850759,125.12796280297181
1260.578981,84.01798338474335
1264.301776,73.71023115573269
1268.019157,54.299933642187256
1271.731133,25.939310923419292
1275.437715,25.397144297369163
1279.138915,53.12936554441705
1282.834743,56.13231325286939
1286.52521,6.647216735167699
1290.210328,-49.42792769249891
1293.890106,-54.326665222298715
1297.564555,-8.288606375707825
1301.233688,47.034106754087865
1304.897514,76.15936355176362
1308.556044,64.42617857204755
1312.209289,23.863387008027757
1315.857261,-3.2707859902302374
1319.499969,20.99100248158956
1323.137425,86.03909363569942
1326.769641,139.76304767144148
1330.396626,138.8744115334399
1334.018391,87.17349536975335
1337.634948,28.445949350924607
1341.246307,-1.179470223249055
1344.85248,-5.752324964202131
1348.453477,-2.3923111944641136
1352.049309,15.640340017179298
1355.639987,62.85482575211944
1359.225522,126.33341432948792
1362.805925,177.84221395808567
1366.381207,213.1455622599051
1369.951379,257.66841049060486
1373.516452,333.6757026088305
1377.076436,429.26191261735994
1380.631343,502.476411360994
1384.181184,518.8977440195563
1387.725969,483.92099813544587
1391.26571,433.7385298251485
1394.800417,392.17898378855267
1398.330102,342.32367670420285
1401.854776,252.03334622075022
1405.374448,123.90703468775916
1408.889132,6.584449841790338
1412.398837,-43.782513339844556
1415.903574,-9.457577402428115
1419.403355,81.71558813709235
1422.89819,190.5296203177661
1426.388091,292.6366442446387
1429.873069,365.8016080191016
1433.353134,379.1065283525229
1436.828298,314.3135454220799
1440.298571,190.932267894318
1443.763965,63.70910753947541
1447.224491,-11.721138494982151
1450.68016,-20.85725328984165
1454.130983,4.933192602500988
1457.576971,27.17542769875216
1461.018135,30.12349491777556
1464.454486,16.95352120342808
1467.886036,3.450422848550744
1471.312794,14.485581098569085
1474.734774,56.22486358617361
1478.151985,89.4165289965426
1481.564439,65.7677582188706
1484.972146,-0.4434862523328178
1488.375119,-38.08231116096259
1491.773368,-14.069859512235539
1495.166904,23.55937664191789
1498.555739,20.572487319290886
1501.939883,-12.953364394912004
1505.319349,-33.03592494003162
1508.694146,-20.073270790092693
1512.064286,14.950832212881291
1515.429781,49.61847913520738
1518.790642,59.00724427117514
1522.146879,31.46378711038751
1525.498505,-8.743284200278804
1528.845529,-17.43489932650715
1532.187965,17.38852162027822
1535.525822,66.13974604583852
1538.859112,110.25810411488963
1542.187846,168.91457346447828
1545.512036,252.02165943165775
1548.831693,314.1042586911198
1552.146829,296.23321238978474
1555.457453,217.97063242870811
1558.763579,185.44110979379383
1562.065216,282.6924430846994
1565.362377,481.9651721791613
1568.655073,686.2946792123838
1571.943315,837.4558082966562
1575.227114,947.8034779952044
1578.506482,1042.2459045753526
1581.781431,1115.326122699833
1585.051971,1145.6919098432904
1588.318114,1114.346071260843
1591.579872,1007.134993750799
1594.837255,830.0009015888972
1598.090275,620.8228586465272
1601.338945,423.7051035856772
1604.583274,256.803589711616
1607.823275,120.42404969298737
1611.058959,21.703284468311644
1614.290338,-27.691687402415432
1617.517422,-28.90604049292744
1620.740224,-2.3915659901166464
1623.958755,18.238987743058935
1627.173027,10.883578987240433
1630.38305,-10.536413339975468
1633.588838,-10.602555217323456
1636.7904,26.51144154046525
1639.987749,81.19335789796072
1643.180896,120.16880461348738
1646.369853,121.96589252546782
1649.554632,84.63493542837358
1652.735244,28.553726617828772
1655.9117,-11.601803341807788
1659.084013,-18.126707022954847
1662.252193,-3.989395114724971
1665.416254,16.677819847880077
1668.576205,46.736377405881385
1671.732059,80.10201486544454
1674.883828,90.0727242043763
1678.031523,62.34481907971682
1681.175157,17.28029447075913
1684.314739,-13.755131786565013
1687.450284,-19.361520601710232
1690.581801,-7.269435953262423
1693.709304,14.766671993885748
1696.832803,47.350853925358614
1699.952311,92.30271212374811
1703.067839,141.59922386281963
1706.179399,172.76993050392701
1709.287003,164.58546107260386
1712.390663,123.6972244314933
1715.49039,80.35536263119087
1718.586197,51.00215204082764
1721.678095,24.406205754630243
1724.766096,-9.558087918991347
1727.850213,-35.7976816155623
1730.930456,-26.255371058648052
1734.006838,30.492396944955495
1737.079372,115.57687903821437
1740.148067,190.26952952179178
1743.212938,220.85394474460452
1746.273996,201.61194807343932
1749.331252,155.09182097715995
1752.384718,106.2589925327413
1755.434408,63.69870410665338
1758.480332,26.268489558276944
1761.522503,-3.8836683743693
1764.560933,-16.82935565770478
1767.595634,-3.762247901982363
1770.626618,25.23368553080185
1773.653896,48.92026790348168
1776.677482,67.08061655705396
1779.697388,97.9244473220943
1782.713625,137.34855418871587
1785.726205,153.2314583883205
1788.735141,130.22634174041576
1791.740445,98.35447518692129
1794.742129,102.43334818618385
1797.740206,149.83222257601278
1800.734687,203.84076145585811
1803.725585,226.99660747605475
1806.712912,211.17092704759548
1809.69668,165.2079626697065
1812.676902,97.85747864457488
1815.65359,22.716072944812282
1818.626756,-34.06701567337315
1821.596413,-47.43264805258367
1824.562573,-19.839112305331135
1827.525247,13.72027665681275
1830.48445,20.231834213557615
1833.440192,3.241670899924145
1836.392487,-9.406458472707289
1839.341347,-3.238265912399279
1842.286784,11.981536093303124
1845.22881,20.080814583271895
1848.167439,15.508084386417753
1851.102682,9.692722752883514
1854.034553,23.381153988860223
1856.963063,62.092103095182715
1859.888226,100.85215792996611
1862.810053,106.49074230687755
1865.728557,71.00990708627555
1868.643751,15.335126693475246
1871.555648,-29.35455783128247
1874.46426,-39.33981200121922
1877.369599,-10.309842769663401
1880.271679,41.210321515275346
1883.170512,88.93217379040513
1886.06611,110.32726029798374
1888.958487,97.80498976512521
1891.847655,61.68098459282584
1894.733626,20.75334104944948
1897.616414,-6.654816281567314
1900.496032,-5.056818832510878
1903.372491,32.26876681777186
1906.245805,93.48862728263495
1909.115987,152.42171719033269
1911.983049,189.57982846944765
1914.847004,201.26675286555323
1917.707866,184.754386244291
1920.565646,132.31398956169508
1923.420359,53.96119567766663
1926.272016,-10.910826937455909
1929.120631,-25.195559491466348
1931.966216,7.1357833862721165
1934.808786,47.5553276429024
1937.648351,69.95223455861324
1940.484927,92.74305255777524
1943.318525,153.22933340720184
1946.149158,248.08496594832494
1948.97684,316.86557344071383
1951.801584,303.62324856715605
1954.623403,218.35263674513163
1957.44231,118.06674068349339
1960.258318,49.432651255268176
1963.071439,23.052759028168964
1965.881688,18.21358233108765
1968.689078,3.1890973732007026
1971.493621,-32.666683378958915
