Raman shift cm-1,4ATP_10uM_rep1_acc4_processed_intensity
-93.47115107,317.5906861326243
-87.69374369,55.550149576195
-81.9253076,-117.56421530854942
-76.16582701,23.88909837770437
-70.41528615,79.25035121074318
-64.67366933,-54.8959137553819
-58.94096086,-30.27974671264097
-53.21714512,8.645498690815455
-47.50220652,-76.3378506585561
-41.79612954,75.29163964658495
-36.09889866,122.46340060861748
-30.41049843,10.03153319704112
-24.73091343,-36.37833187008427
-19.0601283,-62.48660810966915
-13.39812769,25.130373312754045
-7.744896327,-93.145562099326
-2.100418946,-69.85962917310171
3.535319659,154.28285187390247
9.162334658,21.618471284490866
14.78064118,15.224985735808087
20.39025432,-17.64597211213809
25.99118913,-43.49487982690219
31.58346061,78.60835072560718
37.16708375,51.78690700686478
42.74207347,-3.2018022827576686
48.30844468,-24.931135259101193
53.86621222,-72.84876493323564
59.41539093,-96.25608088239515
64.95599558,-8.565509396365915
70.48804091,-27.527946436293966
76.01154164,102.19736377584236
81.52651243,-89.34745570109875
87.03296792,4.703632687802955
92.5309227,158.80976275383114
98.02039134,-65.46397657328356
103.5013884,-44.88653363629368
108.9739282,-52.331619121146005
114.4380255,-38.618807112516954
119.8936944,77.57125322447126
125.3409495,229.55881372676606
130.779805,111.0568794089736
136.2102753,-78.43890862978117
141.6323747,-57.4524286383331
147.0461174,113.49804305212089
152.4515176,26.17815826981227
157.8485895,8.520886880176022
163.2373472,55.74618238910416
168.6178049,260.3568909716664
173.9899766,438.9418957178994
179.3538764,396.12759752527404
184.7095182,368.0171030144854
190.0569161,534.9453890851031
195.396084,601.1448745539456
200.7270358,637.7684785834226
206.0497854,519.0214163779785
211.3643466,574.6466656256606
216.6707333,648.7997890189515
221.9689593,537.1075874221862
227.2590382,644.7704914617667
232.5409839,584.4583700154317
237.8148101,489.29135797624053
243.0805303,497.5895787847545
248.3381582,446.9338814327772
253.5877075,231.81296288576746
258.8291917,356.44469033210487
264.0626244,59.30770835825467
269.288019,47.941657576758104
274.5053891,-239.75585024506267
279.7147481,-44.146333943787624
284.9161094,-12.947000496777093
290.1094865,2700.3761600817834
295.2948927,10307.16646118198
300.4723414,29577.644641318228
305.6418459,47824.09141664366
310.8034194,46858.07763153998
315.9570752,45107.48368449091
321.1028267,44870.028802722794
326.2406869,43868.61556906042
331.370669,43566.81746167491
336.4927863,42546.681593906564
341.6070517,42158.56203851428
346.7134786,41377.61998823109
351.8120798,40789.09141764853
356.9028684,40080.91114283254
361.9858576,39527.91970074257
367.0610602,38476.904231841865
372.1284892,38108.996928054454
377.1881577,37037.70974680861
382.2400784,36616.33161550182
387.2842644,35880.529789934735
392.3207284,35068.41788213055
397.3494833,34466.63012178828
402.370542,33438.333332101
407.3839172,32745.09593202621
412.3896217,32016.321811102986
417.3876683,31433.824746500683
422.3780697,30420.134606984127
427.3608386,29500.368066597057
432.3359876,28383.29401952642
437.3035295,27455.137362592868
442.2634769,26509.3779174214
447.2158423,26215.543163223767
452.1606383,25196.447186458972
457.0978776,24285.038849413813
462.0275727,23778.57231403453
466.9497361,22687.78153632373
471.8643802,22188.08458064499
476.7715176,21031.730906988938
481.6711608,20107.21055178422
486.5633221,19126.12305539785
491.448014,18392.678125154845
496.3252488,17646.78173104845
501.195039,16767.954072269844
506.0573969,15696.442682261517
510.9123349,15093.390855937872
515.7598651,14647.62632275662
520.6,13539.703202525605
525.4327518,12906.831715654458
530.2581327,12016.341558645108
535.076155,11679.867707877027
539.8868309,10649.237691830469
544.6901726,9872.68021365031
549.4861922,9382.442751302995
554.2749019,8070.329805866535
559.0563139,7966.110712261438
563.8304402,7488.179474350076
568.597293,6137.63790926207
573.3568844,5830.03670358771
578.1092263,5468.613168899312
582.8543308,4629.819809691777
587.5922101,4170.5484479888255
592.322876,3917.167841725026
597.0463405,3309.8390620854516
601.7626157,2675.420224007281
606.4717135,2535.604755958917
611.1736458,2201.3013183750445
615.8684246,1757.031308053014
620.5560617,1244.9703830293947
625.2365691,1129.8491094717938
629.9099585,475.94469641994874
634.5762419,125.92806754881167
639.2354312,500.1402837081041
643.887538,150.0834200029276
648.5325743,236.7358184099976
653.1705518,131.04389053247723
657.8014823,-40.93660803034072
662.4253775,295.7585620592108
667.0422493,61.10088266729872
671.6521092,19.13653740245718
676.2549691,-94.75355108805888
680.8508407,-119.251391149759
685.4397355,52.30834955885075
690.0216654,-91.42394433769368
694.5966419,118.31310525885783
699.1646767,-243.4617696440837
703.7257814,43.09709233116155
708.2799676,-65.14320810702702
712.827247,-81.77450920414049
717.367631,17.257495381891204
721.9011314,75.52584011012732
726.4277595,482.1550340499598
730.9475271,24.77624126831506
735.4604456,103.99732259513621
739.9665264,-243.85104069275258
744.4657813,143.48611524209628
748.9582215,78.94512261918135
753.4438587,497.93575350780884
757.9227042,438.15324058043916
762.3947696,169.37458260845597
766.8600662,347.1462956350297
771.3186056,-471.39651145599055
775.770399,8.864952986175922
780.215458,-73.19089664409694
784.6537939,150.17170663828801
789.0854181,357.80139465018146
793.510342,82.83073665677875
797.9285769,-104.9718546281074
802.3401342,77.29286360056722
806.7450253,59.18526924177786
811.1432614,-127.08445320302417
815.5348538,101.99032275082936
819.9198139,65.71009727926139
824.2981531,75.84826651362164
828.6698824,-222.68801153816094
833.0350133,55.542247139695974
837.393557,118.10897613507404
841.7455248,-36.658992875127296
846.0909278,17.700753363944386
850.4297774,172.16112917243663
854.7620848,21.63693570275609
859.0878611,-111.50025282253955
863.4071176,395.8031917513581
867.7198655,114.5921057261985
872.026116,-12.850009790683544
876.3258802,-296.620837727658
880.6191693,73.43293774953418
884.9059946,91.87572180423012
889.186367,-215.72766387144293
893.4602979,501.5943206191241
897.7277982,588.4550556607173
901.9888793,235.3871869745799
906.2435521,96.43848730157151
910.4918277,377.92514908269914
914.7337174,425.7325818962745
918.9692321,424.48453762441386
923.1983831,88.49422559919003
927.4211813,280.33482139310036
931.6376378,-165.59641762901265
935.8477637,143.62821458946382
940.0515701,33.569178785954136
944.249068,-52.22461474609736
948.4402684,518.5063909138044
952.6251825,-100.48310585427134
956.8038212,176.34684467443367
960.9761955,-239.50459855880763
965.1423166,84.58432570887999
969.3021953,1.1154674540275664
973.4558427,1.2785997143273562
977.6032699,80.35294635778155
981.7444877,-6.241238530335977
985.8795072,41.424954450926634
990.0083394,-62.44927570773507
994.1309953,143.56643903459553
998.2474857,-124.16088397919157
1002.357822,412.1690191719499
1006.462014,41.90544312133534
1010.560075,175.93556979305959
1014.652013,-67.02413731273191
1018.737841,-359.14909749551407
1022.81757,26.24559698343728
1026.891209,-4.679098400773
1030.958771,157.32566097785457
1035.020266,-189.87066419287294
1039.075705,48.19647812171752
1043.1251,143.69826870049292
1047.16846,57.53874793582054
1051.205797,-8.204682971427246
1055.237121,244.30582234275926
1059.262444,142.92811232343456
1063.281777,459.104940149085
1067.295131,433.859679786839
1071.302515,-68.18754628808892
1075.303942,236.7621812030593
1079.299422,-178.68608585827587
1083.288966,-18.92571879417369
1087.272585,105.87003255652871
1091.250289,-100.39837108930533
1095.222091,-111.82298376363792
1099.187999,87.0692584536539
1103.148026,83.45066597806931
1107.102183,77.95471728213715
1111.050479,-9.509650600657324
1114.992927,17.01186201811106
1118.929536,118.69789920554024
1122.860318,-142.09378736781144
1126.785283,313.1332889995852
1130.704443,417.8362440608365
1134.617808,-114.32289691950365
1138.52539,22.021779567278116
1142.427198,36.56727626441557
1146.323244,-61.518725843885484
1150.213538,147.9910093526028
1154.098093,-122.00520831252507
1157.976917,299.58726651951525
1161.850023,281.1647972876019
1165.717421,-42.988440168461025
1169.579121,62.62700823920625
1173.435135,-79.00423755507964
1177.285474,375.72293740549776
1181.130148,369.0338529219146
1184.969169,-45.63756582089022
1188.802547,94.27882334226967
1192.630292,146.5674610625166
1196.452416,430.6996473002109
1200.26893,128.6960612034352
1204.079844,487.59877939136663
1207.88517,572.5339927828277
1211.684917,292.85805318089064
1215.479098,353.47248678987
1219.267722,-523.2767422553011
1223.050801,240.84572657214323
1226.828346,400.3716651915322
1230.600366,9.30141757134021
1234.366874,127.26631653164071
1238.12788,123.71803884054381
1241.883395,172.99208767866244
1245.633429,-164.10328726804042
1249.377994,-25.093727398264726
1253.1171,309.00487043433134
1256.850759,87.916152839351
1260.578981,4.9240246651803545
1264.301776,59.63535155097163
1268.019157,26.464448344023374
1271.731133,210.32588663066292
1275.437715,321.21733193869386
1279.138915,-46.08498958042988
1282.834743,-160.78585802912897
1286.52521,111.00599647760447
1290.210328,224.66005241446402
1293.890106,110.30514128860987
1297.564555,-167.33171650857608
1301.233688,311.7782803677917
1304.897514,89.88169878393492
1308.556044,28.758345335006396
1312.209289,8.954134088319137
1315.857261,378.448262245649
1319.499969,280.6336514934527
1323.137425,-141.9537553155488
1326.769641,107.56511434154106
1330.396626,-235.5178637567793
1334.018391,58.51955706054187
1337.634948,27.17190939754417
1341.246307,122.37968436507789
1344.85248,255.4802842295344
1348.453477,221.35439986147696
1352.049309,316.1639206905526
1355.639987,132.77436445854428
1359.225522,-141.9473409196285
1362.805925,51.235675517222134
1366.381207,102.73271180613497
1369.951379,-51.273921353107625
1373.516452,-74.22820569544041
1377.076436,-213.27672865764413
1380.631343,-31.12405821093165
1384.181184,42.98009325518325
1387.725969,-33.43557796789844
1391.26571,110.92919422671775
1394.800417,171.25828986891997
1398.330102,42.116616936315836
1401.854776,-114.65495612276823
1405.374448,-123.43463998459856
1408.889132,171.8789882356425
1412.398837,337.01422618058155
1415.903574,99.12631788247654
1419.403355,-283.00125279865915
1422.89819,72.5663824752096
1426.388091,85.43729761201439
1429.873069,-247.80300033598064
1433.353134,131.47311738350072
1436.828298,75.28833597375205
1440.298571,-115.99600756795235
1443.763965,100.82296397197342
1447.224491,150.61975410418245
1450.68016,168.85431317123312
1454.130983,-139.00989560102562
1457.576971,-49.143658972936464
1461.018135,-148.30175974852
1464.454486,-147.94351833773044
1467.886036,120.82102846975431
1471.312794,121.9739535576523
1474.734774,308.2746885016063
1478.151985,-118.69490952579008
1481.564439,27.953091871030665
1484.972146,40.14079490851327
1488.375119,286.0124367792323
1491.773368,27.41621554978792
1495.166904,-388.2608585926191
1498.555739,24.91404233971207
1501.939883,5.981953510085987
1505.319349,273.7362135205922
1508.694146,-12.522878490709445
1512.064286,-67.8381887331443
1515.429781,99.84032237854535
1518.790642,91.85219892501937
1522.146879,167.64284877138834
1525.498505,404.9732791966526
1528.845529,601.5991956036441
1532.187965,117.69842094277647
1535.525822,772.6035528078719
1538.859112,786.8867825295165
1542.187846,774.0219779154013
1545.512036,1503.3645388221503
1548.831693,1020.1805688230033
1552.146829,1558.5254285430874
1555.457453,2506.9019354270267
1558.763579,2978.7301960482964
1562.065216,3185.5546445573873
1565.362377,3293.804215153971
1568.655073,3679.590931543703
1571.943315,4116.841230981485
1575.227114,4655.765914799108
1578.506482,5088.282819846725
1581.781431,5288.259255771337
1585.051971,6002.394874448491
1588.318114,6499.142745316819
1591.579872,7168.396094108669
1594.837255,7367.721439793556
1598.090275,6091.487847895511
1601.338945,4862.495034598534
1604.583274,4433.209657232417
1607.823275,3887.7486590058306
1611.058959,2986.5472503983915
1614.290338,2847.8558869485755
1617.517422,2464.024747480417
1620.740224,2345.829753309029
1623.958755,1972.753647635528
1627.173027,1460.5461518316024
1630.38305,1130.142301984637
1633.588838,1067.1209890565265
1636.7904,729.4181825701894
1639.987749,1010.9996806387685
1643.180896,632.441645737702
1646.369853,26.444009254449156
1649.554632,631.9876120019362
1652.735244,230.9324934665467
1655.9117,22.821567256658795
1659.084013,-111.458787233041
1662.252193,58.408343461588686
1665.416254,-170.8747443151847
1668.576205,-102.95174290890887
1671.732059,8.293279576769123
1674.883828,89.02654035677052
1678.031523,28.151163092306973
1681.175157,117.10582996250905
1684.314739,132.03435967863004
1687.450284,-166.01413892461454
1690.581801,-109.47791994527992
1693.709304,-94.8911433270324
1696.832803,72.77574663259655
1699.952311,-134.79464813323358
1703.067839,50.16166058313692
1706.179399,34.70988547051602
1709.287003,68.03048188040715
1712.390663,-90.41041530603191
1715.49039,86.71024702037363
1718.586197,139.04349231775433
1721.678095,26.903475586338587
1724.766096,-42.37437919966952
1727.850213,-127.60031491130448
1730.930456,-81.47681319577646
1734.006838,75.53627038392467
1737.079372,164.74504437569578
1740.148067,-26.08125898697884
1743.212938,130.44677794921
1746.273996,-93.8886154851102
1749.331252,260.06452488075735
1752.384718,90.07216886765681
1755.434408,177.16468904045422
1758.480332,149.70572231929475
1761.522503,-108.70398400094064
1764.560933,0.6811283482570332
1767.595634,-306.22510959775354
1770.626618,-24.99422976931612
1773.653896,-102.63161915083373
1776.677482,-282.42518066859475
1779.697388,-108.68965518281453
1782.713625,84.14836905195085
1785.726205,46.27085258185241
1788.735141,148.14941026303075
1791.740445,29.62209054120615
1794.742129,45.601539968104234
1797.740206,-5.116629761457965
1800.734687,129.236223063686
1803.725585,351.5407259385454
1806.712912,-36.90150830729047
1809.69668,-1.117710698108084
1812.676902,129.73149566030568
1815.65359,67.45802024922355
1818.626756,-6.206169208986921
1821.596413,-108.45410943183725
1824.562573,-81.82683761002804
1827.525247,127.40392427415411
1830.48445,14.987519947288973
1833.440192,-4.614676402972435
1836.392487,-111.78173103240321
1839.341347,24.78655403330029
1842.286784,-34.68088161798036
1845.22881,-167.5273452362705
1848.167439,289.6848820698922
1851.102682,174.81131041491386
1854.034553,-15.933577010555986
1856.963063,238.47956298377792
1859.888226,244.24404446197542
1862.810053,122.48104603023751
1865.728557,-82.70832323160492
1868.643751,88.05055791989273
1871.555648,24.368308820019422
1874.46426,-241.4412414995537
1877.369599,60.196574307212984
1880.271679,-106.53275222461514
1883.170512,-26.874466902904977
1886.06611,27.101957575037527
1888.958487,176.59162188389348
1891.847655,-40.78748022316893
1894.733626,-8.949856919978625
1897.616414,118.51615520180368
1900.496032,-117.99948214848096
1903.372491,-4.361494434681383
1906.245805,-3.0237714500029114
1909.115987,83.29202133991359
1911.983049,-36.41315304684629
1914.847004,80.29035916445002
1917.707866,-49.09578052542138
1920.565646,-37.28881181406949
1923.420359,32.706758355832356
1926.272016,-77.89882029278569
1929.120631,-42.559628056927295
1931.966216,53.513328356494796
1934.808786,92.03260545377704
1937.648351,-58.77205387306152
1940.484927,-44.07888548368385
1943.318525,-53.46003902757691
1946.149158,94.94077919298226
1948.97684,430.08198693614804
1951.801584,84.07682547043743
1954.623403,-92.72178031918968
1957.44231,-16.14989428645996
1960.258318,-148.29101054856622
1963.071439,82.45026506539664
1965.881688,38.00444842602946
1968.689078,146.97754496086927
1971.493621,-109.50339754373644
