Raman shift cm-1,4ATP_10fM_rep2_acc5_processed_intensity
-93.47115107,613.8407615555038
-87.69374369,104.50612431959692
-81.9253076,-64.85919261411617
-76.16582701,45.84860808491631
-70.41528615,32.19827607531435
-64.67366933,-210.92782971647065
-58.94096086,-32.132829461696765
-53.21714512,-35.62442382943815
-47.50220652,-47.55907681312567
-41.79612954,23.737140533216717
-36.09889866,128.29116243336406
-30.41049843,88.26338009211352
-24.73091343,83.5424297486289
-19.0601283,25.401190349447447
-13.39812769,-36.74378978917171
-7.744896327,-80.87672156196292
-2.100418946,-11.399257816581496
3.535319659,119.58321432698398
9.162334658,-133.25205698335043
14.78064118,57.963719563011146
20.39025432,-95.14763859383788
25.99118913,-9.621072807918672
31.58346061,255.34229254908104
37.16708375,77.48344326054558
42.74207347,50.78736247495149
48.30844468,20.726256664810435
53.86621222,-28.4063331681075
59.41539093,-93.91090167928442
64.95599558,-64.83832901429088
70.48804091,72.59074440480593
76.01154164,87.50398253531692
81.52651243,-209.57853288436098
87.03296792,102.56381741372387
92.5309227,243.86242955904686
98.02039134,-88.07563712133805
103.5013884,19.450232571935604
108.9739282,19.81878666515854
114.4380255,31.936272186439723
119.8936944,47.204170861009025
125.3409495,295.71283383251085
130.779805,31.630259892150207
136.2102753,-38.00144752088135
141.6323747,-96.57019517233061
147.0461174,96.86829188239098
152.4515176,54.45947266188903
157.8485895,-94.16643006449542
163.2373472,84.25500330110592
168.6178049,81.54515234905637
173.9899766,284.9842521161578
179.3538764,309.65719218613657
184.7095182,375.2777534723988
190.0569161,398.28954386239656
195.396084,425.83228807081025
200.7270358,305.3996425707498
206.0497854,475.5743108776507
211.3643466,382.82192250782396
216.6707333,458.84231190103685
221.9689593,436.2741902391691
227.2590382,440.5359745492959
232.5409839,444.39893180792
237.8148101,389.0120550311366
243.0805303,379.17228341774
248.3381582,337.8120404396353
253.5877075,250.57420287177467
258.8291917,287.43492661837536
264.0626244,68.80834710428351
269.288019,118.09954798707392
274.5053891,-144.55770821942747
279.7147481,-96.00976410713436
284.9161094,-137.46594711170465
290.1094865,1712.066646844451
295.2948927,7606.850355121262
300.4723414,21303.594722425958
305.6418459,39796.76536789702
310.8034194,45841.62482268252
315.9570752,44420.62631715778
321.1028267,43931.26117226868
326.2406869,43241.44488862266
331.370669,42712.70359526186
336.4927863,41967.9565602824
341.6070517,41391.41423270802
346.7134786,40836.7479839393
351.8120798,40105.17823161447
356.9028684,39572.12130463778
361.9858576,38924.61926465474
367.0610602,38000.834158173515
372.1284892,37580.021509768885
377.1881577,36592.81156701356
382.2400784,36151.440837562746
387.2842644,35467.70574941978
392.3207284,34661.750130607616
397.3494833,34085.6212641143
402.370542,33082.42523203673
407.3839172,32395.49608781586
412.3896217,31704.454117370708
417.3876683,31114.153143382122
422.3780697,30147.876869729684
427.3608386,29209.670672906097
432.3359876,28144.99012189843
437.3035295,27190.182776180132
442.2634769,26302.101191879898
447.2158423,25975.285212894803
452.1606383,25016.34963040289
457.0978776,24067.622298591832
462.0275727,23620.968956787678
466.9497361,22491.512412930468
471.8643802,22047.87537112572
476.7715176,20857.84815871652
481.6711608,19981.28672960637
486.5633221,18976.27494956492
491.448014,18276.69047362113
496.3252488,17518.478262816483
501.195039,16656.39200905487
506.0573969,15587.87521421595
510.9123349,14986.846476472529
515.7598651,14558.931019210951
520.6,13437.868642910358
525.4327518,12833.24533701986
530.2581327,11918.894946053857
535.076155,11617.180805376716
539.8868309,10557.09640237079
544.6901726,9818.416395619814
549.4861922,9296.818074584073
554.2749019,8019.391563856778
559.0563139,7887.412519642436
563.8304402,7439.579128811711
568.597293,6066.270371867551
573.3568844,5782.850322437476
578.1092263,5403.598680512514
582.8543308,4581.809851481747
587.5922101,4111.289576838986
592.322876,3868.7865538941987
597.0463405,3254.5764195899537
601.7626157,2626.695205281845
606.4717135,2484.5749684998373
611.1736458,2153.2365490566153
615.8684246,1707.909678665943
620.5560617,1198.0670896640513
625.2365691,1083.045601962469
629.9099585,429.9108612023556
634.5762419,79.45118010917213
639.2354312,456.2806231289869
643.887538,104.44103022333002
648.5325743,196.27577729133918
653.1705518,94.18020766070549
657.8014823,-70.29996802529058
662.4253775,272.2895451325385
667.0422493,40.55413515509281
671.6521092,9.019725668695173
676.2549691,-108.01961617556663
680.8508407,-117.69834257556795
685.4397355,41.414063884287316
690.0216654,-81.27268506816836
694.5966419,105.99917363628992
699.1646767,-224.64962723996723
703.7257814,27.4798436950623
708.2799676,-40.7968856956868
712.827247,-100.42526484995687
717.367631,45.435710564939654
721.9011314,56.440922941368626
726.4277595,511.02650979033933
730.9475271,7.913915149416425
735.4604456,127.37192098333253
739.9665264,-255.83484736634637
744.4657813,158.95421394783625
748.9582215,75.61976732348194
753.4438587,502.92147394841595
757.9227042,445.5269186257756
762.3947696,161.75607593456152
766.8600662,363.67772592682377
771.3186056,-489.84693256050014
775.770399,31.604397851966496
780.215458,-100.85926923730949
784.6537939,176.06821530785965
789.0854181,325.64448240544516
793.510342,110.03439231256925
797.9285769,-138.04555277606778
802.3401342,102.7927482405903
806.7450253,29.22757329500746
811.1432614,-105.3309225973644
815.5348538,78.22652687774462
819.9198139,82.17856851207762
824.2981531,58.81636681185046
828.6698824,-208.74399607817395
833.0350133,51.11775150763788
837.393557,127.87996851843491
841.7455248,-15.678099432629097
846.0909278,-18.50253652695028
850.4297774,174.13509131471073
854.7620848,3.947841597168008
859.0878611,-97.20240348691368
863.4071176,384.19675557898154
867.7198655,108.77009610699679
872.026116,-36.839985858958244
876.3258802,-269.11297169659156
880.6191693,36.67049840867185
884.9059946,66.39522048455183
889.186367,-286.5240640284537
893.4602979,125.88144488644684
897.7277982,112.46282898589561
901.9888793,52.514035578860785
906.2435521,-10.50852393392779
910.4918277,284.57124421203116
914.7337174,246.92115453394217
918.9692321,324.21678148254796
923.1983831,51.840785901520576
927.4211813,84.83067076666339
931.6376378,-180.4766364223433
935.8477637,59.15074700198238
940.0515701,-25.8583076875002
944.249068,17.715407639345358
948.4402684,400.735246838547
952.6251825,-145.5570094211398
956.8038212,147.54162951556282
960.9761955,-178.04219149806158
965.1423166,59.417059585030074
969.3021953,1.285000047289941
973.4558427,11.597627074745105
977.6032699,125.60591434516209
981.7444877,-19.890302203155443
985.8795072,10.49478104672744
990.0083394,-115.00633886186188
994.1309953,41.19299287850117
998.2474857,33.03597804200763
1002.357822,238.42297027554196
1006.462014,-32.64381542139381
1010.560075,152.76824649998343
1014.652013,-48.642385337609085
1018.737841,-198.32644337331112
1022.81757,115.75908488770256
1026.891209,41.739321125927745
1030.958771,180.69328047940144
1035.020266,-25.88761634306138
1039.075705,43.746426857291226
1043.1251,-128.8302861920256
1047.16846,-43.627263105885504
1051.205797,2.6894786720495176
1055.237121,-112.66693016948557
1059.262444,-31.52132207892646
1063.281777,160.9512111655422
1067.295131,810.3730327410158
1071.302515,872.4683109680482
1075.303942,1096.7490215318558
1079.299422,840.5390845445636
1083.288966,878.9871550162225
1087.272585,650.8479149865143
1091.250289,148.3378860336179
1095.222091,404.539132769356
1099.187999,-419.34283685402625
1103.148026,-33.58491878608038
1107.102183,42.21049176491033
1111.050479,-277.49702555685144
1114.992927,133.87114899531662
1118.929536,165.8299925964784
1122.860318,107.53481485460088
1126.785283,469.6274208553741
1130.704443,824.0754510260149
1134.617808,970.8998425095324
1138.52539,1223.5291915908701
1142.427198,1058.702804350526
1146.323244,967.9462965162702
1150.213538,881.1253787931255
1154.098093,1026.2752501757914
1157.976917,334.87808940980267
1161.850023,74.24119691599662
1165.717421,198.8955378070441
1169.579121,-34.84376638882895
1173.435135,304.5265420311134
1177.285474,24.184448306942613
1181.130148,128.85615742452683
1184.969169,367.06497133679295
1188.802547,-43.95010756453394
1192.630292,116.85202277838016
1196.452416,-369.20125870940274
1200.26893,171.35360042033562
1204.079844,-42.42930768600354
1207.88517,-95.13909816201385
1211.684917,71.29255307436097
1215.479098,-260.2999338000577
1219.267722,539.1069805321608
1223.050801,-115.43460277590839
1226.828346,47.81190339736622
1230.600366,235.0783362892098
1234.366874,68.2103608023449
1238.12788,133.91408397152463
1241.883395,34.899319253392605
1245.633429,-233.4876756800429
1249.377994,111.12346563691085
1253.1171,33.004637608820985
1256.850759,97.22541233159382
1260.578981,-65.54040842342931
1264.301776,115.6562362004139
1268.019157,265.2987826384176
1271.731133,-173.89430800938032
1275.437715,257.3640936617563
1279.138915,120.14645435287741
1282.834743,344.4492530970772
1286.52521,116.83767890939691
1290.210328,-87.23194734951505
1293.890106,-307.4837622527553
1297.564555,112.7909626323194
1301.233688,48.861266834762205
1304.897514,251.04989452650506
1308.556044,155.8133416908027
1312.209289,315.3504133259363
1315.857261,89.47207771127867
1319.499969,-181.30946516473747
1323.137425,454.4880406521395
1326.769641,-190.3853298368074
1330.396626,245.27617413162295
1334.018391,-9.318156801113957
1337.634948,166.31754292778479
1341.246307,-8.620807015867115
1344.85248,64.60285808303783
1348.453477,176.05134110244703
1352.049309,-143.41573905631088
1355.639987,196.72725250065704
1359.225522,21.108740233972696
1362.805925,-181.97486671091218
1366.381207,-390.50177010521844
1369.951379,83.41725915937462
1373.516452,1.5519737883931555
1377.076436,103.46870088669988
1380.631343,372.44476477253426
1384.181184,343.73148644178036
1387.725969,556.4533428008076
1391.26571,519.8211395042957
1394.800417,160.74904176129462
1398.330102,145.20156662063192
1401.854776,185.54603141385928
1405.374448,-275.3320943103013
1408.889132,169.33167091613683
1412.398837,-154.81961486328046
1415.903574,-287.0291154938679
1419.403355,323.5832004481538
1422.89819,102.39441625824139
1426.388091,474.88606952815815
1429.873069,814.981773623404
1433.353134,893.3964545467226
1436.828298,464.2916124389765
1440.298571,172.20016624993698
1443.763965,-51.02484553589426
1447.224491,-27.362250560629548
1450.68016,-69.53002301885547
1454.130983,32.713540602528866
1457.576971,-50.07158466676091
1461.018135,181.29488306333855
1464.454486,165.04780015087522
1467.886036,-285.2222171130212
1471.312794,85.75760281036723
1474.734774,151.63651869387274
1478.151985,414.2092981971958
1481.564439,162.3009281255903
1484.972146,-213.95902628588482
1488.375119,-338.9958381984923
1491.773368,17.199941543653765
1495.166904,39.619936913806754
1498.555739,157.78418379789144
1501.939883,-31.27695695461307
1505.319349,-277.372551943909
1508.694146,-3.2656473284756657
1512.064286,161.26477040649257
1515.429781,199.06314297144672
1518.790642,21.906818896348796
1522.146879,374.0055734063676
1525.498505,11.95684169144647
1528.845529,-494.8732086082384
1532.187965,202.8512830735192
1535.525822,-85.30592539854092
1538.859112,-85.214267714372
1542.187846,103.65010537580451
1545.512036,-199.25212106805702
1548.831693,122.93494996965933
1552.146829,157.87812513186873
1555.457453,54.85624199840595
1558.763579,-334.7574014500549
1562.065216,188.64639360618048
1565.362377,77.75749337769639
1568.655073,60.897982095298175
1571.943315,160.06923662237568
1575.227114,178.95997667934307
1578.506482,415.7818177940526
1581.781431,382.87199897829487
1585.051971,344.59029167369226
1588.318114,296.9795051888368
1591.579872,505.9484049672128
1594.837255,-102.859639423815
1598.090275,26.266679660665204
1601.338945,-110.53614297644413
1604.583274,44.78083418455185
1607.823275,34.689454309728944
1611.058959,-109.44487711176043
1614.290338,183.66583644647721
1617.517422,-168.43860302296025
1620.740224,43.57332406756461
1623.958755,66.77942385359177
1627.173027,42.40253502353653
1630.38305,-141.6568617724268
1633.588838,-39.17544046010306
1636.7904,28.637396457733416
1639.987749,286.3647929115815
1643.180896,20.263943875917164
1646.369853,-83.64563398832443
1649.554632,236.07758778621613
1652.735244,25.18672143209608
1655.9117,-184.42228027427134
1659.084013,-67.89973350023065
1662.252193,192.952207574784
1665.416254,-153.48653882575445
1668.576205,18.09016711696077
1671.732059,146.18925721969356
1674.883828,192.4659384673622
1678.031523,-56.99773304972837
1681.175157,-100.12783894603466
1684.314739,18.24644390884704
1687.450284,-23.830206672263706
1690.581801,42.22701730438759
1693.709304,-180.12448768344248
1696.832803,-117.32792030283363
1699.952311,94.83657365510709
1703.067839,51.556435632160316
1706.179399,87.88421022170897
1709.287003,32.0331143949351
1712.390663,-1.7392516379683514
1715.49039,-12.316911539635555
1718.586197,-95.7311260975226
1721.678095,184.24936133596773
1724.766096,91.33361088841531
1727.850213,-176.23895635566123
1730.930456,-131.36447988370824
1734.006838,-49.37749133927852
1737.079372,135.17047369488216
1740.148067,30.95425997070484
1743.212938,202.97494657153294
1746.273996,45.607728003954236
1749.331252,-51.180081451824286
1752.384718,-29.091263348980306
1755.434408,2.8339836609834883
1758.480332,125.28492472996695
1761.522503,5.328945038802587
1764.560933,-40.160270839156425
1767.595634,-344.11143182965577
1770.626618,79.61711687918452
1773.653896,-11.119926640832233
1776.677482,-161.66173559798966
1779.697388,-213.12613211917886
1782.713625,77.18338489783277
1785.726205,169.58241713626745
1788.735141,96.76477658387893
1791.740445,72.28579721959504
1794.742129,-97.01563438613739
1797.740206,156.9619184653711
1800.734687,274.6086959807387
1803.725585,292.80655840844287
1806.712912,15.84018768263303
1809.69668,-33.9174658832426
1812.676902,47.65940317600781
1815.65359,-64.43472230140388
1818.626756,-45.8383881345732
1821.596413,277.1803939738256
1824.562573,-79.68758523881694
1827.525247,21.42237239578298
1830.48445,77.20581020788634
1833.440192,46.85703047573863
1836.392487,-5.37061784040278
1839.341347,38.30403398532108
1842.286784,-10.586424525109315
1845.22881,-158.23034200586645
1848.167439,131.59407204541245
1851.102682,-23.373746965949245
1854.034553,-104.72683425735752
1856.963063,-73.20633554837693
1859.888226,138.44224659194106
1862.810053,157.6397645165057
1865.728557,-75.01837249604024
1868.643751,92.92849997387773
1871.555648,27.753700445069647
1874.46426,-277.0588080773263
1877.369599,88.1242231856647
1880.271679,6.095683031510248
1883.170512,-144.66771000175189
1886.06611,52.17776349281297
1888.958487,72.65027182658571
1891.847655,-24.39323197286377
1894.733626,85.13397971909806
1897.616414,-47.89322208677878
1900.496032,-126.51573841225493
1903.372491,-17.01236969776973
1906.245805,129.042175160909
1909.115987,113.50661094489077
1911.983049,-36.05194291369047
1914.847004,-31.98638643622113
1917.707866,76.99655431429808
1920.565646,35.00788355880022
1923.420359,-104.9639327776896
1926.272016,-24.593129004928795
1929.120631,-68.57464119372386
1931.966216,73.36203301804522
1934.808786,-12.449414962964715
1937.648351,-40.839556507471244
1940.484927,8.847748105863246
1943.318525,-96.95318365080396
1946.149158,257.1477710752471
1948.97684,536.1854563404439
1951.801584,59.25396543905673
1954.623403,79.59427091179948
1957.44231,71.52022705164943
1960.258318,-11.86868515483171
1963.071439,-3.5181603741509857
1965.881688,10.53311756431571
1968.689078,305.9888137341723
1971.493621,-78.06654247441413
