Raman shift cm-1,4ATP_10uM_rep2_acc4_processed_intensity
-93.47115107,446.47657934891333
-87.69374369,109.94578837997886
-81.9253076,-20.835848890584145
-76.16582701,19.164649198481854
-70.41528615,80.52764925525199
-64.67366933,-9.48711636647576
-58.94096086,-33.993848787829826
-53.21714512,72.48940988600884
-47.50220652,44.99835816230418
-41.79612954,104.39438235658704
-36.09889866,218.1878614936793
-30.41049843,125.99027978769212
-24.73091343,80.13290104185538
-19.0601283,91.46337754207104
-13.39812769,42.55087079766557
-7.744896327,-26.50652737586877
-2.100418946,-56.61353590947758
3.535319659,35.01677867710487
9.162334658,52.55898838915857
14.78064118,-4.716899956728437
20.39025432,-27.449258513671772
25.99118913,-10.460019897064011
31.58346061,111.09585523022346
37.16708375,102.46588800878499
42.74207347,41.76048775472869
48.30844468,42.198305121199446
53.86621222,-70.40562926298698
59.41539093,-73.51008260519328
64.95599558,-6.720125885601053
70.48804091,44.13238569104087
76.01154164,53.360733474700474
81.52651243,-84.99967821232455
87.03296792,20.547304775247035
92.5309227,183.46499941594504
98.02039134,42.692076803144
103.5013884,4.810212692556826
108.9739282,38.49307923864526
114.4380255,-39.7245881361432
119.8936944,108.98127397787854
125.3409495,289.39689829380256
130.779805,95.97250417450871
136.2102753,-69.2234510093586
141.6323747,13.16077839090768
147.0461174,49.082515495746534
152.4515176,10.111288222374338
157.8485895,-32.69837008535361
163.2373472,-67.93855995059864
168.6178049,23.727389230330353
173.9899766,148.42311597308446
179.3538764,49.6490645003275
184.7095182,6.788465869226343
190.0569161,134.6988324346832
195.396084,85.3396613882677
200.7270358,40.67989059119178
206.0497854,39.61973728258273
211.3643466,-15.722916814529382
216.6707333,43.93877277414735
221.9689593,14.014413704218118
227.2590382,-40.99901434150795
232.5409839,10.995637042206383
237.8148101,2.7626474658773787
243.0805303,-4.766471225719783
248.3381582,-0.9329947597468831
253.5877075,20.482268219949788
258.8291917,23.1317936393
264.0626244,-27.141226001772303
269.288019,-40.35129254641809
274.5053891,-69.06851899738183
279.7147481,-74.26412006892403
284.9161094,50.64238909312928
290.1094865,652.5628130056882
295.2948927,3048.0768222077836
300.4723414,8563.913380906937
305.6418459,16123.209272575286
310.8034194,22668.243913805352
315.9570752,26472.53343687554
321.1028267,28004.927733964578
326.2406869,28384.983305852435
331.370669,28530.85413008905
336.4927863,28863.50081734361
341.6070517,29436.20719994882
346.7134786,30130.04994129196
351.8120798,30606.716849036475
356.9028684,30495.632767701223
361.9858576,30088.85374635936
367.0610602,30079.33810579725
372.1284892,30610.87450649445
377.1881577,32787.004357047714
382.2400784,37517.05018527979
387.2842644,42223.424077721014
392.3207284,43966.60093822421
397.3494833,42469.96070449434
402.370542,38902.697403788065
407.3839172,34658.33110790032
412.3896217,30926.26330711419
417.3876683,28188.128273720788
422.3780697,25927.487883908383
427.3608386,24324.24175440719
432.3359876,23259.811222713994
437.3035295,22181.973199258737
442.2634769,21315.840960009933
447.2158423,19982.73687827491
452.1606383,18827.464488953727
457.0978776,19105.04915306459
462.0275727,19541.086411621098
466.9497361,18890.76331351271
471.8643802,18039.795801694156
476.7715176,18665.141713610814
481.6711608,19960.912092015962
486.5633221,20125.39674445652
491.448014,19248.925300667473
496.3252488,17492.92735135486
501.195039,15477.108989032284
506.0573969,14090.083703315655
510.9123349,13003.067325075188
515.7598651,12127.248412933637
520.6,11529.8998613314
525.4327518,10917.437259180666
530.2581327,10328.59389173355
535.076155,10351.20047714218
539.8868309,10700.349343771422
544.6901726,9751.538200355584
549.4861922,8115.5605795837055
554.2749019,7291.1084810973625
559.0563139,6576.451228085953
563.8304402,6012.899721608577
568.597293,5930.909837244701
573.3568844,5445.495111825334
578.1092263,4824.894857760082
582.8543308,4754.095291451113
587.5922101,4480.424765307333
592.322876,3944.547895697411
597.0463405,3974.083973853889
601.7626157,4046.1172258172373
606.4717135,3863.230639464582
611.1736458,3612.5857215977812
615.8684246,3240.503013663172
620.5560617,3286.9788893841032
625.2365691,3518.034003133449
629.9099585,3562.8175834166177
634.5762419,3850.1168042097815
639.2354312,4069.7047839072184
643.887538,3408.962361149359
648.5325743,2283.8328759804754
653.1705518,1562.1092516910285
657.8014823,924.7573497657686
662.4253775,552.4617035090196
667.0422493,685.5250892114054
671.6521092,644.0455021204507
676.2549691,364.57552620035494
680.8508407,42.2716923126427
685.4397355,48.295604452294356
690.0216654,253.37963659581874
694.5966419,518.2227916370612
699.1646767,1406.6788747587634
703.7257814,2321.1838930026133
708.2799676,3202.9785058750167
712.827247,4171.986806695248
717.367631,3844.3521420635298
721.9011314,2394.790994835388
726.4277595,1177.375264510687
730.9475271,663.4020511677627
735.4604456,695.7408444502726
739.9665264,774.7278421171904
744.4657813,748.315249051222
748.9582215,524.4571105509021
753.4438587,158.2149372898275
757.9227042,28.919674189255602
762.3947696,-48.498563311597536
766.8600662,-26.28273763805919
771.3186056,179.3292832908155
775.770399,101.33736024561222
780.215458,40.971769534218765
784.6537939,273.512484563611
789.0854181,557.9877379395566
793.510342,950.2884071504359
797.9285769,1398.7467289236174
802.3401342,1792.0101487794218
806.7450253,1994.7832776049327
811.1432614,2001.269675371852
815.5348538,1850.3701545477306
819.9198139,1497.9311711226492
824.2981531,1342.1320486588047
828.6698824,1068.1483511398164
833.0350133,362.09908561615157
837.393557,205.33980442512802
841.7455248,278.6337695627208
846.0909278,-38.131466700388046
850.4297774,-39.021808127799886
854.7620848,26.037320094399547
859.0878611,-75.96293571295246
863.4071176,1.020244229994205
867.7198655,150.9292067266233
872.026116,311.1483244926676
876.3258802,334.92792566116805
880.6191693,293.8483710904311
884.9059946,296.7510679198713
889.186367,197.03085042677958
893.4602979,50.49098156285436
897.7277982,136.2842702758353
901.9888793,691.0918801478383
906.2435521,1378.1457468300378
910.4918277,1740.1464595706948
914.7337174,2128.3383803345496
918.9692321,2662.777712644898
923.1983831,2548.358003144569
927.4211813,2191.4257655840775
931.6376378,2275.243777484342
935.8477637,2367.8269634462285
940.0515701,2659.447742542041
944.249068,2788.570129283631
948.4402684,2385.721509380315
952.6251825,2261.9855160174575
956.8038212,2380.1960821067096
960.9761955,2309.1426059964597
965.1423166,2143.3911739407285
969.3021953,2065.0581771835878
973.4558427,1945.8577390930786
977.6032699,1648.5448264437946
981.7444877,1483.533314028411
985.8795072,1391.6993394296787
990.0083394,1265.0738758339485
994.1309953,1735.6410511735903
998.2474857,3106.726274501789
1002.357822,4872.528973912371
1006.462014,5614.607201476139
1010.560075,4061.2834761812464
1014.652013,1725.133464842911
1018.737841,499.8681894919373
1022.81757,14.387054374879881
1026.891209,3.4645006584923976
1030.958771,524.8710087208165
1035.020266,1108.761927122443
1039.075705,1862.3201401006572
1043.1251,2768.1583446640325
1047.16846,3914.2722834048254
1051.205797,5978.702378320948
1055.237121,8912.935150721907
1059.262444,15589.425243189795
1063.281777,25862.066625660136
1067.295131,31557.05716442683
1071.302515,31362.981042561165
1075.303942,31024.916333347603
1079.299422,31615.274103103133
1083.288966,27421.565376547227
1087.272585,16391.95150022927
1091.250289,7752.59723293774
1095.222091,4602.427084746765
1099.187999,2468.602068852708
1103.148026,1793.8648320238408
1107.102183,2278.1839923655407
1111.050479,2562.8446778533907
1114.992927,4107.060416000837
1118.929536,7101.439166845637
1122.860318,11957.03485866613
1126.785283,21534.9551454124
1130.704443,30328.161677423028
1134.617808,31491.871765583746
1138.52539,30505.174190932346
1142.427198,31515.77563449643
1146.323244,31032.938100126634
1150.213538,25115.358964194416
1154.098093,16122.920616568203
1157.976917,10792.048955571745
1161.850023,9517.773704462963
1165.717421,9311.725934028727
1169.579121,9282.436183144298
1173.435135,9144.570872096436
1177.285474,9438.540813534837
1181.130148,10689.876184431363
1184.969169,11683.923782026695
1188.802547,11081.708484836085
1192.630292,8868.070458232554
1196.452416,5776.1387238656025
1200.26893,3126.666302228301
1204.079844,1585.5393907162124
1207.88517,852.7612392920128
1211.684917,378.1958179424764
1215.479098,445.66881074000776
1219.267722,726.2130799957122
1223.050801,268.64533197778655
1226.828346,214.38376444772257
1230.600366,311.3126737231105
1234.366874,46.862788092999835
1238.12788,384.95863789782743
1241.883395,448.7648834735119
1245.633429,374.2966097628032
1249.377994,653.7000010253851
1253.1171,482.06331148202116
1256.850759,248.36787245795858
1260.578981,210.97133929397933
1264.301776,127.81104645303276
1268.019157,32.57743942877278
1271.731133,-116.48387294588974
1275.437715,25.41937055424205
1279.138915,456.08982286340324
1282.834743,586.5693469706112
1286.52521,663.4998840146309
1290.210328,1264.445645069598
1293.890106,2390.5078753404487
1297.564555,3590.8676173454696
1301.233688,4066.5856628615184
1304.897514,3802.6279776629235
1308.556044,3274.601035900985
1312.209289,2481.9747550001757
1315.857261,1885.2424775604595
1319.499969,1836.4450468001323
1323.137425,1701.7197661011996
1326.769641,1369.2131767134906
1330.396626,1294.2311612592257
1334.018391,1466.4359154448339
1337.634948,1665.638854695304
1341.246307,1949.3367209862226
1344.85248,2605.3517795140942
1348.453477,3117.7547179756148
1352.049309,3366.791884910488
1355.639987,4045.3604657220385
1359.225522,4634.5950014708
1362.805925,4884.905926972277
1366.381207,5363.047601763963
1369.951379,6240.545643416688
1373.516452,7860.367746997257
1377.076436,10865.096876534852
1380.631343,15610.447894318248
1384.181184,21216.533694583304
1387.725969,25357.2487186105
1391.26571,24726.091834451094
1394.800417,18822.533952940856
1398.330102,11890.8745038914
1401.854776,6946.663565971741
1405.374448,4457.196964061297
1408.889132,4160.634779440024
1412.398837,5107.4725256018955
1415.903574,8236.545664244628
1419.403355,13972.734901290292
1422.89819,20920.047349971577
1426.388091,28061.155730503746
1429.873069,33199.474846040495
1433.353134,34567.40192894614
1436.828298,32179.050777500008
1440.298571,26839.20915995378
1443.763965,20513.311786383107
1447.224491,14603.175270875112
1450.68016,9713.306899700003
1454.130983,6359.513834418183
1457.576971,4452.270891351665
1461.018135,3703.254109332489
1464.454486,3691.934865204965
1467.886036,4090.309317889065
1471.312794,4254.964188278334
1474.734774,3483.5490253010375
1478.151985,2255.1822573987974
1481.564439,1246.5148774619283
1484.972146,527.5472935038488
1488.375119,204.1295119852748
1491.773368,164.80668180411703
1495.166904,-1.4227545649682725
1498.555739,28.91655408891711
1501.939883,328.0006486769071
1505.319349,377.7204981022678
1508.694146,667.2956536599013
1512.064286,1142.2881292483326
1515.429781,1053.54172256751
1518.790642,1079.1451266360255
1522.146879,1509.4185257060835
1525.498505,1673.6623139298754
1528.845529,2222.9674421008403
1532.187965,3360.3063424765933
1535.525822,4053.9947645659067
1538.859112,4624.779232875089
1542.187846,5422.947890969604
1545.512036,6149.110542969608
1548.831693,7256.266633566639
1552.146829,8647.739366829876
1555.457453,9877.76532626103
1558.763579,11376.27270893183
1562.065216,13331.63671312108
1565.362377,15265.651045297354
1568.655073,17052.070876989004
1571.943315,18472.39145702804
1575.227114,18846.566748565452
1578.506482,18085.666368648643
1581.781431,16707.011698431717
1585.051971,15154.48020528974
1588.318114,13211.250859382304
1591.579872,10636.697798095993
1594.837255,7939.010053814079
1598.090275,5556.602031889178
1601.338945,3923.164281161773
1604.583274,3060.5060677470065
1607.823275,2417.018850613198
1611.058959,1986.003525944623
1614.290338,1663.1377007256128
1617.517422,1396.1921541708093
1620.740224,1351.544746483069
1623.958755,1204.0583975544446
1627.173027,925.4557415962895
1630.38305,779.4602206711256
1633.588838,766.6178545732691
1636.7904,692.3785658327783
1639.987749,547.444682376241
1643.180896,369.63771462793693
1646.369853,199.9547950554661
1649.554632,297.3026486516874
1652.735244,239.9649468776165
1655.9117,-71.40410345796249
1659.084013,17.979690395669877
1662.252193,158.2741386915868
1665.416254,36.34376830366796
1668.576205,24.7765882313131
1671.732059,74.89500898192341
1674.883828,33.51138268733962
1678.031523,-39.291364979616674
1681.175157,7.479610153389785
1684.314739,17.2696965160319
1687.450284,-67.75474101289501
1690.581801,30.24903510579952
1693.709304,16.421198995743794
1696.832803,-50.06221722003227
1699.952311,101.32379618683979
1703.067839,143.13844836450767
1706.179399,189.15424230912504
1709.287003,203.51068329368644
1712.390663,83.21935007464037
1715.49039,183.20213730671907
1718.586197,239.77453006902346
1721.678095,26.936125917176412
1724.766096,-58.19575926141522
1727.850213,6.886113340665503
1730.930456,28.55328784684903
1734.006838,69.66601082324226
1737.079372,28.6679486373599
1740.148067,20.944519361989848
1743.212938,160.01561576224495
1746.273996,77.30199694753207
1749.331252,-5.025262646586469
1752.384718,105.26417552308139
1755.434408,108.0777341426637
1758.480332,138.60805633410232
1761.522503,109.78752020135896
1764.560933,-47.708364717834314
1767.595634,-38.517078418793375
1770.626618,43.4624028106808
1773.653896,110.20509065155893
1776.677482,81.98833656088071
1779.697388,24.467887100900498
1782.713625,145.47933166912452
1785.726205,169.34553475266975
1788.735141,146.84490531784724
1791.740445,126.12759413907257
1794.742129,-9.118545949752601
1797.740206,147.99670999516547
1800.734687,351.16191977976797
1803.725585,209.18631890833242
1806.712912,134.2698832769554
1809.69668,194.74803434967606
1812.676902,118.70492994707121
1815.65359,4.419205808355031
1818.626756,-11.752030289311016
1821.596413,-28.91789690246486
1824.562573,8.022679387271637
1827.525247,97.68704767044736
1830.48445,44.83208429266779
1833.440192,-21.853228605722382
1836.392487,5.271746889686286
1839.341347,105.37972450764681
1842.286784,126.60573270676002
1845.22881,-17.21280674138725
1848.167439,27.79937119258461
1851.102682,110.83085871854549
1854.034553,5.165763323045357
1856.963063,28.378217423383454
1859.888226,164.7057922271925
1862.810053,136.2377702949615
1865.728557,-5.873092603483782
1868.643751,18.473861576284712
1871.555648,15.03658395861481
1874.46426,-87.27940253545263
1877.369599,8.70630568206484
1880.271679,28.044034589094462
1883.170512,-50.03416369357415
1886.06611,98.09756085427254
1888.958487,159.18392576183982
1891.847655,0.640880990147604
1894.733626,20.892593592473318
1897.616414,41.433215757779415
1900.496032,-80.72243298510591
1903.372491,32.549222194100366
1906.245805,153.04007686842587
1909.115987,124.68277662175268
1911.983049,98.36423283497808
1914.847004,28.674352560365115
1917.707866,50.36881692933371
1920.565646,13.102437292815202
1923.420359,-73.74222993943307
1926.272016,-9.702255207473772
1929.120631,14.394738811696115
1931.966216,28.80806827220343
1934.808786,-4.901415184195389
1937.648351,-23.176204619656207
1940.484927,71.07933152171536
1943.318525,3.75090925775919
1946.149158,128.0851235431768
1948.97684,376.0534045835579
1951.801584,196.5182417053805
1954.623403,115.47188872931045
1957.44231,171.46375692306032
1960.258318,-24.544694942984112
1963.071439,-44.89691056539498
1965.881688,49.299929620255185
1968.689078,13.299886409116906
1971.493621,153.62201921236206
