Raman shift cm-1,4ATP_100nM_rep1_acc1_processed_intensity
-93.47115107,294.5376974532282
-87.69374369,54.01606415484578
-81.9253076,53.22317009567316
-76.16582701,-86.7161013814421
-70.41528615,113.789671882665
-64.67366933,-43.24229385920914
-58.94096086,-26.243760362124647
-53.21714512,6.676692046271507
-47.50220652,-34.74839108633513
-41.79612954,107.60690160745618
-36.09889866,180.12012797802345
-30.41049843,55.6283745071768
-24.73091343,36.99650092671516
-19.0601283,51.229156267339356
-13.39812769,15.52610092752613
-7.744896327,-88.48776117618009
-2.100418946,-40.85873101626366
3.535319659,139.34554054379672
9.162334658,22.685490890065232
14.78064118,56.28646489391446
20.39025432,-51.421936841652624
25.99118913,19.688620913250652
31.58346061,148.0898463196348
37.16708375,141.94025267244822
42.74207347,62.14464780663994
48.30844468,18.974832502552456
53.86621222,16.523965476591556
59.41539093,-87.54106251951151
64.95599558,-0.17258978362520416
70.48804091,93.47423520320436
76.01154164,178.5126107231282
81.52651243,-67.78780636971476
87.03296792,144.32665008783357
92.5309227,287.3715878105629
98.02039134,16.896507477190468
103.5013884,41.08867848042226
108.9739282,58.42991867150644
114.4380255,119.99651645009016
119.8936944,204.4534092446241
125.3409495,367.9574554686637
130.779805,105.6911765831598
136.2102753,-119.2780407917885
141.6323747,-31.697940698823782
147.0461174,115.57172975005386
152.4515176,34.04762230579449
157.8485895,-5.331521753045145
163.2373472,-10.979163802203196
168.6178049,12.417872606632784
173.9899766,109.26049505464269
179.3538764,43.076731763071464
184.7095182,7.11778546602433
190.0569161,46.209510017790365
195.396084,52.13930378177031
200.7270358,-47.97387883786708
206.0497854,53.16324269386722
211.3643466,-17.128698357810762
216.6707333,57.77260572859068
221.9689593,-35.936509830181144
227.2590382,-72.8820571821133
232.5409839,104.92358248475487
237.8148101,-25.99937287545496
243.0805303,-12.796611463266721
248.3381582,49.03590806957834
253.5877075,-60.24159144023114
258.8291917,7.285576159103897
264.0626244,42.580128989493026
269.288019,34.196128631837034
274.5053891,78.87572955969036
279.7147481,-54.08189577462836
284.9161094,-31.76684445493869
290.1094865,13.74898599387108
295.2948927,420.32573753502095
300.4723414,1381.5036448997635
305.6418459,2655.959054964401
310.8034194,3902.8000759162965
315.9570752,4712.341413954494
321.1028267,5003.1682586422985
326.2406869,4945.705093153545
331.370669,5130.494881439884
336.4927863,5199.312005810746
341.6070517,5186.652812068083
346.7134786,5397.925842123937
351.8120798,5417.814055215709
356.9028684,5257.621624584217
361.9858576,5161.8183137816295
367.0610602,5155.680975220243
372.1284892,5092.231173910826
377.1881577,5533.871384150583
382.2400784,6196.486168833922
387.2842644,7551.7837345775015
392.3207284,8169.730812884239
397.3494833,7371.391062065722
402.370542,6596.136942653425
407.3839172,5421.543926871801
412.3896217,4544.277764095687
417.3876683,3966.1383290551366
422.3780697,3589.794112835294
427.3608386,3229.5115025564282
432.3359876,3133.21029599933
437.3035295,3013.80868962381
442.2634769,2832.1364867240272
447.2158423,2430.5270071816367
452.1606383,2212.9672408527335
457.0978776,2174.8099761311164
462.0275727,1846.851608873073
466.9497361,2039.3478248998426
471.8643802,1645.6188126800917
476.7715176,1569.1461426552987
481.6711608,1668.0966968124835
486.5633221,1657.6612178803903
491.448014,1539.8571294395979
496.3252488,1361.1662358922076
501.195039,1290.8500094015362
506.0573969,1099.1729860099185
510.9123349,1048.0005373018676
515.7598651,732.4814560668387
520.6,828.2921637807785
525.4327518,691.7811138930083
530.2581327,574.7337276544281
535.076155,425.543739880452
539.8868309,423.04775485151686
544.6901726,329.35979313355665
549.4861922,284.5634152779553
554.2749019,461.49905288475475
559.0563139,29.757988365782694
563.8304402,12.66036036144169
568.597293,302.8350441971361
573.3568844,235.3988743523546
578.1092263,-47.7418568604694
582.8543308,92.25798879996319
587.5922101,37.67597751646235
592.322876,20.219846011179925
597.0463405,-34.69381296180518
601.7626157,45.39236594830436
606.4717135,32.93326786262014
611.1736458,-64.02549483985058
615.8684246,22.916760196133964
620.5560617,-0.6362941843062799
625.2365691,51.01204274952215
629.9099585,-51.630244081163255
634.5762419,279.91125999023507
639.2354312,216.15058073186674
643.887538,158.26118793018486
648.5325743,185.94990665955402
653.1705518,154.57609556224133
657.8014823,140.77611406150072
662.4253775,-78.08563489250582
667.0422493,-23.70749628514841
671.6521092,83.16582848833013
676.2549691,129.30899025844155
680.8508407,49.760174093177966
685.4397355,9.048618690029798
690.0216654,169.18752161134785
694.5966419,-63.39837275859941
699.1646767,44.77839867623538
703.7257814,152.1882348908798
708.2799676,169.82024503438834
712.827247,209.03626041047596
717.367631,-2.429238379079834
721.9011314,202.01397369096821
726.4277595,11.319689647094947
730.9475271,45.39517272827493
735.4604456,12.703627838172679
739.9665264,103.11407312085589
744.4657813,28.78381691042705
748.9582215,55.84278645591121
753.4438587,-110.36243308758708
757.9227042,-53.95177710791063
762.3947696,50.42544424480934
766.8600662,-73.74695647418196
771.3186056,333.6571909624803
775.770399,-7.8075271891515285
780.215458,120.4771397952212
784.6537939,50.58655869884626
789.0854181,-3.860648807620464
793.510342,55.51788266224912
797.9285769,197.24764707080033
802.3401342,346.89881269008504
806.7450253,192.06631194442718
811.1432614,265.9575298810945
815.5348538,7.805561823066057
819.9198139,-21.32656483610242
824.2981531,49.516453882801216
828.6698824,147.1562083837727
833.0350133,10.944154962162315
837.393557,-69.58732910899312
841.7455248,118.68566139913271
846.0909278,8.533295106037556
850.4297774,16.88878739874753
854.7620848,26.269529376756658
859.0878611,1.7990686175083042
863.4071176,-122.94863181103867
867.7198655,156.0843416689181
872.026116,320.96406956855367
876.3258802,254.89447690575366
880.6191693,252.61679813864384
884.9059946,302.10101153660634
889.186367,392.1619139887789
893.4602979,129.41786750688652
897.7277982,62.90202756549397
901.9888793,15.02317732727306
906.2435521,159.94275121307493
910.4918277,121.9612354702167
914.7337174,-90.2131037608224
918.9692321,-4.0821075499200035
923.1983831,209.6293550052166
927.4211813,51.79616996833529
931.6376378,101.09265671349047
935.8477637,28.648586399941024
940.0515701,97.25963944220345
944.249068,118.54355168518518
948.4402684,-119.2482252904619
952.6251825,65.15332408878166
956.8038212,-5.241048797897406
960.9761955,167.65844567243033
965.1423166,26.176207167667485
969.3021953,13.790992720010365
973.4558427,32.25787658566088
977.6032699,-21.43751966045801
981.7444877,59.26200958957082
985.8795072,30.535424233513766
990.0083394,-25.44469972664666
994.1309953,-33.87002232567775
998.2474857,163.0827660790993
1002.357822,-12.074388698305427
1006.462014,139.50915442444074
1010.560075,100.95837936079823
1014.652013,-11.207271050530522
1018.737841,32.38162721821051
1022.81757,12.297282480974928
1026.891209,61.925819490911024
1030.958771,-68.16672229839287
1035.020266,110.42182017446589
1039.075705,-53.33273337052539
1043.1251,-73.53037554077498
1047.16846,7.006599826056307
1051.205797,49.777075307859306
1055.237121,7.127977609156199
1059.262444,193.54453851912987
1063.281777,403.2970504719081
1067.295131,1146.3217693447234
1071.302515,2390.006331653982
1075.303942,2941.368625223179
1079.299422,3566.7870560113925
1083.288966,2799.2260563563154
1087.272585,1556.5515745355951
1091.250289,721.9703458179066
1095.222091,288.0373262143165
1099.187999,175.71479660032452
1103.148026,15.947451200655896
1107.102183,33.31158610819386
1111.050479,24.43871737655295
1114.992927,-12.416281223209475
1118.929536,-40.37741324194292
1122.860318,111.8845062662852
1126.785283,264.71893765446043
1130.704443,530.2061615220416
1134.617808,856.5356817186101
1138.52539,913.7191069573887
1142.427198,888.590444346202
1146.323244,773.8714908597144
1150.213538,445.7170756294803
1154.098093,517.3186855275403
1157.976917,306.27429302894427
1161.850023,382.7786337466304
1165.717421,417.16134784584654
1169.579121,498.5777674582653
1173.435135,816.3736501415839
1177.285474,669.5217388668416
1181.130148,868.1393631201436
1184.969169,859.9851666121878
1188.802547,585.4638695060153
1192.630292,449.9687767845507
1196.452416,247.10250741995753
1200.26893,117.5354472712191
1204.079844,-22.166726083683017
1207.88517,-14.045674549459722
1211.684917,-14.320192133500544
1215.479098,15.601405001071798
1219.267722,367.9905777084646
1223.050801,31.932473681620458
1226.828346,-38.96912580822625
1230.600366,164.55735085803568
1234.366874,9.51211863022235
1238.12788,131.92666152874625
1241.883395,55.23964836978106
1245.633429,252.366574711109
1249.377994,225.75260171812647
1253.1171,6.556145068955139
1256.850759,121.54905151030248
1260.578981,97.51790765839671
1264.301776,148.7615697589148
1268.019157,56.94078931790645
1271.731133,16.123750148735624
1275.437715,-110.9287792581595
1279.138915,170.13712036115453
1282.834743,208.85609420776933
1286.52521,120.36393513292903
1290.210328,-7.3374043328400305
1293.890106,-9.670458689472639
1297.564555,255.01235036587943
1301.233688,1.8060126716016427
1304.897514,190.29575956409548
1308.556044,174.9341761134562
1312.209289,203.07029426285922
1315.857261,-33.2706304190693
1319.499969,32.4741923747212
1323.137425,222.60729221710702
1326.769641,97.06168755602535
1330.396626,242.40475625165385
1334.018391,170.06183315096268
1337.634948,184.9635967451008
1341.246307,55.37175653452431
1344.85248,-27.27571165125301
1348.453477,88.41517558874727
1352.049309,12.729542265103923
1355.639987,-8.647652242395715
1359.225522,202.32747063273843
1362.805925,185.89570279646708
1366.381207,198.95384408998842
1369.951379,144.38732004742687
1373.516452,162.37095504546855
1377.076436,320.1346168726286
1380.631343,298.2657606463836
1384.181184,359.49019106403006
1387.725969,474.88165092676525
1391.26571,465.59551147400214
1394.800417,276.11844796418853
1398.330102,283.9567449206103
1401.854776,227.90936488320594
1405.374448,34.681349601077486
1408.889132,-1.5237394175439896
1412.398837,-106.6041874974028
1415.903574,53.19175220590522
1419.403355,319.90979598950867
1422.89819,375.4740334695391
1426.388091,416.2716152166192
1429.873069,492.5487851180078
1433.353134,373.6028596688884
1436.828298,345.1334176587809
1440.298571,250.6093255451147
1443.763965,84.24264050413976
1447.224491,12.66064917393765
1450.68016,-99.3284494067909
1454.130983,41.69658172961576
1457.576971,9.01606321774949
1461.018135,58.517316108798184
1464.454486,26.378968307078807
1467.886036,3.7445071727270083
1471.312794,-8.888836582779959
1474.734774,-57.98685074086964
1478.151985,138.44383812818236
1481.564439,62.26733395842707
1484.972146,42.834438113286
1488.375119,-1.7582925120498114
1491.773368,83.52452907203696
1495.166904,119.9179809982509
1498.555739,-108.3829510718549
1501.939883,-12.381723082302038
1505.319349,-41.992177578307235
1508.694146,-21.12559626002534
1512.064286,54.78147317711913
1515.429781,17.323447726570166
1518.790642,51.23775477653395
1522.146879,25.745856884238457
1525.498505,-50.11747431238063
1528.845529,3.712365719894377
1532.187965,220.78883827741964
1535.525822,3.067569869901326
1538.859112,201.57192479301938
1542.187846,316.0423111564639
1545.512036,233.2810844822359
1548.831693,451.56378840283537
1552.146829,347.64126321000623
1555.457453,392.71996900151584
1558.763579,242.79569366395805
1562.065216,549.8441894056888
1565.362377,845.8063124501875
1568.655073,905.3928880973355
1571.943315,1122.459794889222
1575.227114,1161.7698814045277
1578.506482,1348.9558776425456
1581.781431,1552.6100581106095
1585.051971,1613.8616389115916
1588.318114,1522.9338885106363
1591.579872,1575.9634981225374
1594.837255,1197.1935908278774
1598.090275,786.7290600505212
1601.338945,433.8725761856167
1604.583274,399.3862031653782
1607.823275,156.7325247821662
1611.058959,12.24182365950453
1614.290338,128.6396805780038
1617.517422,-55.4654771727184
1620.740224,189.60729896092704
1623.958755,199.03251415152704
1627.173027,164.46214033040684
1630.38305,60.804653930682804
1633.588838,193.4202355324549
1636.7904,17.93088374719724
1639.987749,197.55973187731706
1643.180896,270.71471199822685
1646.369853,148.95453734379373
1649.554632,311.00543678174387
1652.735244,124.54178031549661
1655.9117,-21.86319847750112
1659.084013,102.82066621979925
1662.252193,251.23607451152014
1665.416254,-68.03743293687137
1668.576205,120.3858366754757
1671.732059,172.76279838950808
1674.883828,84.83571109497876
1678.031523,38.41539726324591
1681.175157,33.693948753021935
1684.314739,-34.3795806153492
1687.450284,5.6227725419805035
1690.581801,20.70541645253804
1693.709304,-62.01137898104023
1696.832803,-12.241580839938521
1699.952311,29.01029761446146
1703.067839,46.844569208609826
1706.179399,19.02298127527576
1709.287003,133.9257747547127
1712.390663,0.16073249442407445
1715.49039,62.20241478921288
1718.586197,-18.84594061208387
1721.678095,35.2576069722421
1724.766096,-39.628082933544036
1727.850213,-128.31095982076744
1730.930456,-9.505008735563518
1734.006838,-32.035838197231904
1737.079372,65.87697356148949
1740.148067,103.94443469240507
1743.212938,290.61934174142715
1746.273996,4.378330157289508
1749.331252,8.285561221444336
1752.384718,92.14294912081263
1755.434408,1.382020227603006
1758.480332,54.35242874019489
1761.522503,31.034237663404955
1764.560933,6.313008172055637
1767.595634,-73.13809319906613
1770.626618,152.25029743271847
1773.653896,210.66317765863033
1776.677482,-3.6468041112270875
1779.697388,6.299153722283517
1782.713625,230.22203029833767
1785.726205,180.03482268892023
1788.735141,240.09121634847097
1791.740445,25.54656614123393
1794.742129,-43.74941450173083
1797.740206,185.49031839731987
1800.734687,185.20788386797346
1803.725585,166.0258697009241
1806.712912,154.53400671131092
1809.69668,36.85970520270652
1812.676902,103.78701906918012
1815.65359,32.24653655878068
1818.626756,-67.95547873241972
1821.596413,113.13852358776835
1824.562573,-62.13803031558476
1827.525247,133.43205124958953
1830.48445,65.04806926119238
1833.440192,28.884568972602843
1836.392487,-19.67583598819268
1839.341347,51.49521171623635
1842.286784,95.3999199241315
1845.22881,-71.10949619548178
1848.167439,7.86104946907745
1851.102682,-18.437228488311362
1854.034553,8.758596714316655
1856.963063,45.02841884075448
1859.888226,215.30457044372102
1862.810053,160.94206598911492
1865.728557,57.69303768660224
1868.643751,-16.730492296641422
1871.555648,-31.22368816000724
1874.46426,-49.04888760410384
1877.369599,111.25880960651936
1880.271679,29.297566262211006
1883.170512,-33.89348391564059
1886.06611,168.46824770734324
1888.958487,92.41027663052819
1891.847655,-7.2348957765687825
1894.733626,35.76041564069185
1897.616414,-26.88799175422205
1900.496032,-37.99818423624898
1903.372491,-12.213604742483497
1906.245805,54.28919089512623
1909.115987,122.06882080987023
1911.983049,20.536081050176634
1914.847004,18.012987512554112
1917.707866,49.37650562452983
1920.565646,92.59545899196209
1923.420359,-15.488089822641658
1926.272016,-1.4919563501198678
1929.120631,-119.39432330508032
1931.966216,63.41093939863813
1934.808786,150.41474826255939
1937.648351,-5.5566126868656
1940.484927,26.93064144698524
1943.318525,-12.945106284378289
1946.149158,242.0798438522641
1948.97684,438.05056773684623
1951.801584,137.3084352747679
1954.623403,3.3962906595879154
1957.44231,189.00024132244502
1960.258318,-6.643253493914027
1963.071439,-68.71364305436441
1965.881688,49.59780975316102
1968.689078,93.34523392864787
1971.493621,16.193681711938556
