Raman shift cm-1,4ATP_10pM_rep1_acc4_processed_intensity
-93.47115107,555.7506107762383
-87.69374369,132.17263052022506
-81.9253076,10.158779163601949
-76.16582701,71.08047728787187
-70.41528615,72.32822705154038
-64.67366933,6.364420340556286
-58.94096086,-29.696122892451108
-53.21714512,-2.596726547686952
-47.50220652,88.8939360029111
-41.79612954,203.15205415040364
-36.09889866,255.67074836741304
-30.41049843,223.99006615918842
-24.73091343,163.64733264819733
-19.0601283,99.38780352377556
-13.39812769,17.85870108713826
-7.744896327,-22.17501097477313
-2.100418946,39.31332088347331
3.535319659,102.00098719285035
9.162334658,58.7310315154767
14.78064118,-15.406370696963771
20.39025432,-15.318284588316153
25.99118913,50.86876946855577
31.58346061,107.18205799154363
37.16708375,91.73111940856917
42.74207347,40.95718053186275
48.30844468,26.990803444083383
53.86621222,13.86462449485381
59.41539093,-37.33305215887856
64.95599558,-43.07250541594809
70.48804091,4.954129665937783
76.01154164,-6.79983543352675
81.52651243,-21.314273336799378
87.03296792,87.98843332917987
92.5309227,193.13144318050084
98.02039134,149.0852667149449
103.5013884,40.55164578506316
108.9739282,-21.699988241351353
114.4380255,33.53254028764108
119.8936944,212.3695538351011
125.3409495,298.2084136055962
130.779805,136.24752695717694
136.2102753,-34.0681995997358
141.6323747,18.26569858763451
147.0461174,121.15128857130398
152.4515176,69.7790075304681
157.8485895,-23.14993778476304
163.2373472,16.5931474285749
168.6178049,147.7717513054397
173.9899766,206.46429626891796
179.3538764,150.73076374978143
184.7095182,117.05732141527211
190.0569161,163.8674902615358
195.396084,163.36699313529704
200.7270358,74.38317311138432
206.0497854,11.445481511580443
211.3643466,5.986227908815431
216.6707333,-3.305722882893717
221.9689593,-11.876910243269524
227.2590382,18.010168252018524
232.5409839,64.79297938264064
237.8148101,76.95948895995832
243.0805303,35.44994937766912
248.3381582,-14.010891602157745
253.5877075,-20.308757844623166
258.8291917,-5.5364354356419305
264.0626244,31.04966309161056
269.288019,122.57652651332678
274.5053891,168.41529673775887
279.7147481,64.10544130606462
284.9161094,-67.56738073691457
290.1094865,10.523880656439928
295.2948927,457.30833915629734
300.4723414,1265.3792410731214
305.6418459,2265.448982986078
310.8034194,3221.2870174613677
315.9570752,3880.8398103902705
321.1028267,4126.625435735007
326.2406869,4148.539190874337
331.370669,4192.063211741339
336.4927863,4262.330031944744
341.6070517,4300.74954657486
346.7134786,4326.0509261866855
351.8120798,4307.03055415886
356.9028684,4223.219976916093
361.9858576,4150.390650230287
367.0610602,4112.592154690543
372.1284892,4076.6128749705595
377.1881577,4143.4658402987825
382.2400784,4523.011289219599
387.2842644,5147.301904460106
392.3207284,5499.443145766969
397.3494833,5215.177129998186
402.370542,4562.80877651306
407.3839172,3950.897074937684
412.3896217,3447.6061137384986
417.3876683,3008.480946298798
422.3780697,2696.7106148275193
427.3608386,2551.920947491125
432.3359876,2503.994968448385
437.3035295,2439.3670644607096
442.2634769,2262.55907945334
447.2158423,1997.021968216895
452.1606383,1779.290150393376
457.0978776,1649.4250208222359
462.0275727,1543.5849479444564
466.9497361,1453.3904327487012
471.8643802,1392.7614664914431
476.7715176,1347.6782180246914
481.6711608,1332.3935853446696
486.5633221,1350.1161177439258
491.448014,1313.4556497576273
496.3252488,1178.0930798505938
501.195039,1042.6459843085868
506.0573969,930.8742208798872
510.9123349,760.660962156403
515.7598651,596.2144959360253
520.6,552.519437069056
525.4327518,548.762460041015
530.2581327,462.7941118841245
535.076155,348.5086886854906
539.8868309,313.3007814619009
544.6901726,360.8319215192978
549.4861922,393.55745244039053
554.2749019,267.66404588351406
559.0563139,36.67158361338534
563.8304402,-2.093058877971089
568.597293,160.79469424003628
573.3568844,182.87273509115448
578.1092263,32.55208639220746
582.8543308,-17.47420167787186
587.5922101,52.805025944639965
592.322876,91.6266359096021
597.0463405,72.96070939178753
601.7626157,10.101489321358258
606.4717135,-51.35466084624659
611.1736458,-3.079890302923559
615.8684246,103.64442137505239
620.5560617,93.08100086441573
625.2365691,-4.176085261250591
629.9099585,-14.952319256574356
634.5762419,68.44463176476302
639.2354312,115.01411866849548
643.887538,70.05221953740693
648.5325743,17.725311506047547
653.1705518,29.533592531040085
657.8014823,39.96974252383643
662.4253775,10.29353854403962
667.0422493,3.66820435064119
671.6521092,3.969705973056307
676.2549691,-31.493792574964573
680.8508407,-45.322152570710614
685.4397355,-20.328446759809367
690.0216654,-6.074938222696574
694.5966419,14.755422417402315
699.1646767,90.48870393099696
703.7257814,213.26048663959455
708.2799676,317.3681838937232
712.827247,329.78946270485903
717.367631,256.08748971353407
721.9011314,164.80711127484483
726.4277595,128.96908320438433
730.9475271,198.45842704462143
735.4604456,302.95635966335453
739.9665264,313.129573778514
744.4657813,227.32533259529055
748.9582215,114.80140367551894
753.4438587,22.131810435161924
757.9227042,-12.020465600529178
762.3947696,15.800782903698064
766.8600662,100.76409411113184
771.3186056,213.89734270954966
775.770399,251.2442978664751
780.215458,158.00852434886292
784.6537939,15.356130753680077
789.0854181,-36.07468826200102
793.510342,62.101084816067896
797.9285769,194.0242607587203
802.3401342,247.2548697901541
806.7450253,256.5266159250767
811.1432614,213.55005152299407
815.5348538,84.53691528492607
819.9198139,16.48061488314545
824.2981531,94.61316756606931
828.6698824,135.01814533636087
833.0350133,40.61854733105804
837.393557,-33.265170661277864
841.7455248,-6.323359200741834
846.0909278,26.224827322733063
850.4297774,24.44800065313825
854.7620848,16.929882641984634
859.0878611,-31.21453784608623
863.4071176,-70.81001208015897
867.7198655,72.76325916777074
872.026116,318.1901986590571
876.3258802,373.8021311690868
880.6191693,299.50646854901385
884.9059946,336.44609182402417
889.186367,335.2470048237345
893.4602979,125.62742988734603
897.7277982,-3.8319476791297404
901.9888793,145.21571629521236
906.2435521,266.6006583876259
910.4918277,135.81740221043665
914.7337174,-0.2471419042824028
918.9692321,73.56407378758202
923.1983831,195.34265623602636
927.4211813,194.51738582536424
931.6376378,137.06683710805703
935.8477637,103.31810296903117
940.0515701,59.72482154708005
944.249068,3.604102561987119
948.4402684,21.123759597188297
952.6251825,117.32618378698325
956.8038212,186.10534662511424
960.9761955,198.08617669830147
965.1423166,201.03288425153238
969.3021953,184.31253080098259
973.4558427,108.03669664562
977.6032699,16.496644173888825
981.7444877,7.511242180916952
985.8795072,68.07491427966801
990.0083394,82.98583076695148
994.1309953,21.341923966834088
998.2474857,-36.613975360454624
1002.357822,-13.269357138416666
1006.462014,82.41795138672366
1010.560075,162.69389063526546
1014.652013,182.16623780413346
1018.737841,161.4321521135667
1022.81757,108.8553827871225
1026.891209,52.09030017833642
1030.958771,36.51008758816451
1035.020266,30.027764595522545
1039.075705,-18.883538967047468
1043.1251,-48.57062386743641
1047.16846,7.012387222541621
1051.205797,53.13877973624037
1055.237121,-1.8860276702829895
1059.262444,-7.955203498046707
1063.281777,294.65245406027145
1067.295131,916.0367572573882
1071.302515,1565.419021287787
1075.303942,1984.2385958510777
1079.299422,2056.9467152890275
1083.288966,1698.3051451162958
1087.272585,1013.6845865261846
1091.250289,360.1232180923696
1095.222091,14.329706616393423
1099.187999,-43.62140752242009
1103.148026,2.995460147206673
1107.102183,24.602621685102417
1111.050479,4.004467282340144
1114.992927,-11.791342809175475
1118.929536,31.348799577398026
1122.860318,128.75652401072173
1126.785283,277.8772084392631
1130.704443,553.4860153417955
1134.617808,937.4931614560267
1138.52539,1217.3870006188786
1142.427198,1207.971303255573
1146.323244,969.1411155761319
1150.213538,705.1121571741662
1154.098093,481.9703156807429
1157.976917,263.37299854853654
1161.850023,160.95395225086324
1165.717421,276.1871970175485
1169.579121,438.2427154019405
1173.435135,435.1020248560855
1177.285474,356.5183002587974
1181.130148,431.31556876788875
1184.969169,600.8526760658896
1188.802547,611.3347618864451
1192.630292,453.27294965533804
1196.452416,297.34351267084514
1200.26893,176.33140221644157
1204.079844,37.14145294532943
1207.88517,-79.96319202463351
1211.684917,-37.910115238037044
1215.479098,174.10499845836472
1219.267722,277.1375329444368
1223.050801,122.48878211551856
1226.828346,-11.686724001406628
1230.600366,38.67538658879283
1234.366874,80.22936679761528
1238.12788,36.7888332011977
1241.883395,40.80736696401081
1245.633429,107.87099345938645
1249.377994,125.73745568337185
1253.1171,66.10206486636011
1256.850759,12.16087071273271
1260.578981,25.70901788070029
1264.301776,52.21787420680947
1268.019157,-4.10718777117936
1271.731133,-74.61458384542304
1275.437715,12.693993675868228
1279.138915,187.57151945631352
1282.834743,187.09207095083218
1286.52521,5.858846436500517
1290.210328,-79.61754756723086
1293.890106,35.504396684105565
1297.564555,155.9495051719701
1301.233688,160.5671980288196
1304.897514,163.5534773276732
1308.556044,204.2291373546719
1312.209289,151.4921077965628
1315.857261,25.769556414216577
1319.499969,8.432429552295932
1323.137425,103.23482546220788
1326.769641,172.91792495152453
1330.396626,177.4183606400896
1334.018391,144.48933631437552
1337.634948,111.74814694438108
1341.246307,103.45531250301681
1344.85248,71.6808797099873
1348.453477,0.5204742601921097
1352.049309,4.782839368377463
1355.639987,147.64173019280196
1359.225522,294.24063952612784
1362.805925,309.8930217905434
1366.381207,245.55982213561506
1369.951379,220.66724270189658
1373.516452,267.4912766815527
1377.076436,340.0947224416543
1380.631343,414.7634846927927
1384.181184,504.24579161276966
1387.725969,558.1891313131359
1391.26571,523.0356167839141
1394.800417,470.1947581155103
1398.330102,443.87868361807875
1401.854776,350.769435955622
1405.374448,160.89706129146435
1408.889132,-6.734430556175198
1412.398837,-19.85234291094161
1415.903574,156.52045227513912
1419.403355,406.39570938559734
1422.89819,588.6841635773989
1426.388091,710.7483539788416
1429.873069,776.181262047678
1433.353134,684.1253243712013
1436.828298,475.0287518019961
1440.298571,308.66162653760955
1443.763965,193.17787865239578
1447.224491,85.05558756855854
1450.68016,37.98656964311882
1454.130983,66.31140318877843
1457.576971,119.79832337288322
1461.018135,153.18075165919652
1464.454486,111.84807073233878
1467.886036,8.978198662126301
1471.312794,-32.359465573579904
1474.734774,69.76397056548052
1478.151985,217.01329827549168
1481.564439,210.76542695076918
1484.972146,35.39350991694768
1488.375119,-72.31321559199608
1491.773368,5.027562091482459
1495.166904,94.39017408349142
1498.555739,74.11847322507727
1501.939883,22.680417165237508
1505.319349,7.953144545798498
1508.694146,27.901357045769483
1512.064286,54.74519327195085
1515.429781,67.86177953603644
1518.790642,86.02196901194696
1522.146879,72.22719403333771
1525.498505,-4.72151622338189
1528.845529,-18.22893631507168
1532.187965,99.86409156904588
1535.525822,219.98135404243808
1538.859112,253.77026444542648
1542.187846,255.68321496013675
1545.512036,308.42536865421164
1548.831693,402.4980194299093
1552.146829,422.074024674346
1555.457453,328.0268026501818
1558.763579,266.27561646152265
1562.065216,394.1227735556392
1565.362377,654.471531229686
1568.655073,813.45935113181
1571.943315,784.9911278171872
1575.227114,766.7937284037416
1578.506482,899.0273588904332
1581.781431,1030.152115208326
1585.051971,1030.257203512842
1588.318114,991.0734486965982
1591.579872,935.875355084558
1594.837255,775.88990599404
1598.090275,583.5445097273296
1601.338945,466.02980116865893
1604.583274,340.5867844873308
1607.823275,152.04318087381915
1611.058959,4.8857255095901735
1614.290338,-42.94195833917035
1617.517422,-14.657022093657943
1620.740224,55.77674336026536
1623.958755,81.15007836505991
1627.173027,32.37176487259441
1630.38305,0.0635475589142942
1633.588838,9.090408719590755
1636.7904,10.905994838485299
1639.987749,14.928731268519215
1643.180896,61.97928944874789
1646.369853,145.90792621391464
1649.554632,157.96897023767113
1652.735244,36.56444193071192
1655.9117,-22.226203543028404
1659.084013,93.5823566716355
1662.252193,125.85546691404126
1665.416254,-9.970495181746713
1668.576205,-15.82798955367322
1671.732059,145.97960030964762
1674.883828,187.73578175528033
1678.031523,68.76748856265397
1681.175157,-11.949525820592392
1684.314739,18.45134442776917
1687.450284,72.95586849009267
1690.581801,57.803149865664
1693.709304,-7.101696378785594
1696.832803,-30.146597346362984
1699.952311,-2.2593575727797495
1703.067839,33.732253150492895
1706.179399,85.55023865012373
1709.287003,144.63298219340842
1712.390663,164.79391711953934
1715.49039,152.28078347042648
1718.586197,128.4530915621934
1721.678095,66.40873371706581
1724.766096,-11.825364183354157
1727.850213,-21.587748480119256
1730.930456,15.549302247582286
1734.006838,7.135379976081396
1737.079372,11.124244114569418
1740.148067,129.4217211771247
1743.212938,249.61766939266633
1746.273996,220.8364182220213
1749.331252,127.29879588809679
1752.384718,101.3104003382806
1755.434408,101.99207578705212
1758.480332,60.920546286500624
1761.522503,-2.6182883350646153
1764.560933,-37.25364416819701
1767.595634,21.178192972306803
1770.626618,136.89830572329686
1773.653896,132.2509536523855
1776.677482,7.689083475392117
1779.697388,2.2658689675108583
1782.713625,146.64430505013516
1785.726205,207.98950855470224
1788.735141,106.10903817374401
1791.740445,-1.9261029649773036
1794.742129,29.539070829609322
1797.740206,168.96514052761438
1800.734687,250.12285546762783
1803.725585,201.45637399528462
1806.712912,133.4481646546823
1809.69668,104.44779025170672
1812.676902,32.52452936964783
1815.65359,-67.77300696208272
1818.626756,-74.43520359033518
1821.596413,-6.171539982828499
1824.562573,31.182326915715457
1827.525247,38.46108231501944
1830.48445,38.188511085758975
1833.440192,6.867912268555266
1836.392487,-25.256015937266994
1839.341347,-14.005888560702111
1842.286784,15.153079741499063
1845.22881,41.10450807048644
1848.167439,58.360125369260984
1851.102682,23.708844590142917
1854.034553,-37.70522580172705
1856.963063,-0.19902928075417847
1859.888226,140.16676207123166
1862.810053,208.81470015115144
1865.728557,119.71276851280642
1868.643751,-15.997512468693238
1871.555648,-62.27981217162001
1874.46426,-6.867777462093027
1877.369599,34.38270909574376
1880.271679,12.921763851183147
1883.170512,50.883235982479505
1886.06611,150.4921873105182
1888.958487,132.81346208229712
1891.847655,15.176536897027987
1894.733626,-20.844079657348797
1897.616414,10.946555623292703
1900.496032,-3.7910058434778335
1903.372491,-21.45902398342259
1906.245805,38.783390530250564
1909.115987,114.0644939245067
1911.983049,114.57988938806139
1914.847004,75.78050225557118
1917.707866,61.85047792698909
1920.565646,54.03716891634439
1923.420359,26.924738536825693
1926.272016,-8.53678247029174
1929.120631,-36.10024871189722
1931.966216,-13.56952894934475
1934.808786,61.836168164785796
1937.648351,84.99147370219706
1940.484927,31.971917681518015
1943.318525,84.29974341962597
1946.149158,301.03748133354685
1948.97684,422.60937013370364
1951.801584,314.04137694639235
1954.623403,177.09135821091965
1957.44231,107.96084141057379
1960.258318,18.24598936666286
1963.071439,-25.4388920951055
1965.881688,74.82012994944472
1968.689078,189.30360207587842
1971.493621,191.09731472843575
