Raman shift cm-1,4ATP_1uM_rep2_acc3_processed_intensity
-93.47115107,464.9729279420407
-87.69374369,41.97209703617849
-81.9253076,-39.81369342988168
-76.16582701,82.26149764388862
-70.41528615,103.6192141686295
-64.67366933,16.131861810747367
-58.94096086,-31.23000549350361
-53.21714512,-11.014784085072893
-47.50220652,55.856182937961805
-41.79612954,162.1578311849844
-36.09889866,232.93794899764984
-30.41049843,205.54198088421003
-24.73091343,138.37746966236534
-19.0601283,89.23070728238076
-13.39812769,33.36694430085079
-7.744896327,-7.471931310612646
-2.100418946,26.865047730172794
3.535319659,80.42896533309364
9.162334658,55.943754495417025
14.78064118,-13.162511453742093
20.39025432,-13.841447329945368
25.99118913,74.3566296662932
31.58346061,126.66751756088028
37.16708375,67.73049419089158
42.74207347,16.004201894159117
48.30844468,35.79993725298192
53.86621222,2.7277054630942397
59.41539093,-77.5559666079695
64.95599558,-30.46634214154196
70.48804091,94.61409614057061
76.01154164,92.5724964537923
81.52651243,31.965802206741703
87.03296792,87.47759294913621
92.5309227,156.3990676726354
98.02039134,107.61683151880618
103.5013884,38.02706846602541
108.9739282,29.95751990119491
114.4380255,81.44322657848498
119.8936944,205.4012740834022
125.3409495,268.31074802624096
130.779805,113.04018349761563
136.2102753,-64.32931243069946
141.6323747,-9.200263671845018
147.0461174,120.77415169011996
152.4515176,91.67706824252926
157.8485895,-0.14048791770569835
163.2373472,12.35918122238215
168.6178049,101.60855180305603
173.9899766,161.160359934279
179.3538764,152.81245947360773
184.7095182,122.49861750330604
190.0569161,120.46349908197618
195.396084,132.6781163339596
200.7270358,122.39800557319597
206.0497854,83.1360160743047
211.3643466,30.765618610932535
216.6707333,-8.557824939896799
221.9689593,-4.554015129038641
227.2590382,42.321025486107644
232.5409839,77.15006238912471
237.8148101,55.843344470024526
243.0805303,9.673174182778762
248.3381582,-15.368549697208522
253.5877075,-20.06877958919558
258.8291917,0.4941180590516723
264.0626244,71.50386840993778
269.288019,150.33358735259347
274.5053891,141.4622885912905
279.7147481,34.33128778428159
284.9161094,-65.23471736866907
290.1094865,-5.998465932854909
295.2948927,346.86889855565283
300.4723414,1006.2581493786583
305.6418459,1829.3197885261643
310.8034194,2613.0259899121684
315.9570752,3153.353671125901
321.1028267,3383.858439472134
326.2406869,3483.770441453591
331.370669,3610.178504050729
336.4927863,3739.7393787106353
341.6070517,3880.0095804224648
346.7134786,4036.068638603734
351.8120798,4096.267732782155
356.9028684,4043.3814768142
361.9858576,3982.6889065016467
367.0610602,3961.5189959304084
372.1284892,4147.395330899561
377.1881577,5054.514086794683
382.2400784,7053.088890297475
387.2842644,9479.427520130064
392.3207284,10821.953646583734
397.3494833,10224.938134788626
402.370542,8266.01718631719
407.3839172,6071.266206856581
412.3896217,4346.210007441792
417.3876683,3239.4097494878883
422.3780697,2576.3467692732556
427.3608386,2183.28461719581
432.3359876,2002.7031935466975
437.3035295,1900.3014988860002
442.2634769,1680.304724500874
447.2158423,1336.636250964036
452.1606383,1040.041948214302
457.0978776,901.1238266674259
462.0275727,853.2906662809353
466.9497361,768.4974121128128
471.8643802,663.1810109574301
476.7715176,650.5825324828897
481.6711608,712.8726183299291
486.5633221,728.4978957013027
491.448014,662.6243917417955
496.3252488,588.3521888531714
501.195039,542.5572744665005
506.0573969,451.0040343682376
510.9123349,310.05721415748985
515.7598651,271.1784872092594
520.6,333.27574758150377
525.4327518,285.05089881112735
530.2581327,117.17152812255472
535.076155,28.10214067274501
539.8868309,19.283270156620347
544.6901726,-11.20461807484071
549.4861922,13.766689296835466
554.2749019,106.02585435126184
559.0563139,119.80923065252728
563.8304402,95.76286234345707
568.597293,141.49355189845937
573.3568844,145.2947802330582
578.1092263,53.34072512896728
582.8543308,-8.07799280238578
587.5922101,-11.137498460564984
592.322876,-1.2883504760761753
597.0463405,32.66483414520985
601.7626157,60.18277567610107
606.4717135,31.26644798734128
611.1736458,-24.302817709384726
615.8684246,-58.09015309186134
620.5560617,-42.891126631078805
625.2365691,37.77233867317909
629.9099585,146.0574184663119
634.5762419,220.8542330592427
639.2354312,250.86312364921923
643.887538,236.6668485921357
648.5325743,190.92958155548854
653.1705518,157.0831129395183
657.8014823,110.1292253990282
662.4253775,12.163066931104595
667.0422493,-53.297133622965475
671.6521092,-26.22638567028116
676.2549691,22.011402533445334
680.8508407,29.04150444836796
685.4397355,11.230109780449084
690.0216654,33.61298988973135
694.5966419,161.28169751001883
699.1646767,341.10144127443345
703.7257814,426.64348531793894
708.2799676,380.6168053888223
712.827247,286.8869456058668
717.367631,194.96765637635838
721.9011314,116.94745909869675
726.4277595,96.90046835175008
730.9475271,158.22140706176594
735.4604456,248.84676317069557
739.9665264,303.2479814040612
744.4657813,283.35808023600373
748.9582215,164.60814925772831
753.4438587,7.484870642853252
757.9227042,-31.13273509445321
762.3947696,94.73953699389017
766.8600662,236.56608433113286
771.3186056,284.7001622999771
775.770399,291.2299615944177
780.215458,278.8358397940567
784.6537939,209.9607706113435
789.0854181,213.54375600851523
793.510342,447.06859044775774
797.9285769,740.5482978706793
802.3401342,820.8197163090264
806.7450253,719.2935037659754
811.1432614,589.4639683803714
815.5348538,455.40034351312113
819.9198139,342.54980844250747
824.2981531,292.19601373391686
828.6698824,245.14624810435387
833.0350133,145.07096325327888
837.393557,37.22152956444015
841.7455248,-10.312283356608319
846.0909278,7.197407393832549
850.4297774,29.99416395553306
854.7620848,4.4008047930061736
859.0878611,-49.63669726378392
863.4071176,-44.20495708092293
867.7198655,85.76814757756759
872.026116,251.51509470273297
876.3258802,280.1419956266632
880.6191693,206.89002802744295
884.9059946,214.89805772856434
889.186367,239.3500224730205
893.4602979,118.79813790873177
897.7277982,26.165257290229377
901.9888793,167.61535368526748
906.2435521,349.802950679546
910.4918277,352.15386907060605
914.7337174,322.5632663939746
918.9692321,435.37803168621735
923.1983831,572.3283376951364
927.4211813,594.7225460699232
931.6376378,571.6073047704788
935.8477637,588.1677371787406
940.0515701,602.5621911062505
944.249068,590.4143465241374
948.4402684,633.885364297895
952.6251825,761.8016723274682
956.8038212,864.5200485348496
960.9761955,862.1526061835218
965.1423166,811.220814245529
969.3021953,787.8936343364072
973.4558427,781.5587983021146
977.6032699,757.2521241164275
981.7444877,720.6638143897187
985.8795072,667.9052001871361
990.0083394,593.5012987221138
994.1309953,566.9115827015007
998.2474857,662.537310419172
1002.357822,800.4891106399008
1006.462014,792.9802014755384
1010.560075,594.3461990747895
1014.652013,346.13401093979616
1018.737841,154.87912196168452
1022.81757,35.152492955743284
1026.891209,3.1019648542869867
1030.958771,22.93730352865588
1035.020266,1.6091928959515354
1039.075705,-48.59284220073143
1043.1251,-17.957702485740477
1047.16846,96.82902111210929
1051.205797,180.36379787441373
1055.237121,205.43399618143584
1059.262444,355.8914636975479
1063.281777,970.9737687635695
1067.295131,2346.388128232038
1071.302515,4381.781467831941
1075.303942,6253.843700518627
1079.299422,6729.980675780331
1083.288966,5363.673474040412
1087.272585,3157.060517535414
1091.250289,1437.0298515790284
1095.222091,553.6763883855109
1099.187999,167.75069453979228
1103.148026,17.16487990379659
1107.102183,-21.110483370105534
1111.050479,-24.898179956772196
1114.992927,-0.7183445363754419
1118.929536,42.165547036182645
1122.860318,95.6671996125831
1126.785283,262.6131822398
1130.704443,684.0720802256376
1134.617808,1293.4476980196239
1138.52539,1752.7828976502587
1142.427198,1748.026655617708
1146.323244,1348.3532798782196
1150.213538,915.3845269445189
1154.098093,647.8619478312294
1157.976917,502.9013455064629
1161.850023,479.21348045629736
1165.717421,608.8422847400379
1169.579121,817.6183773521669
1173.435135,1036.164251472894
1177.285474,1276.9222993516291
1181.130148,1462.1932468045266
1184.969169,1379.8241148975808
1188.802547,994.8450256619855
1192.630292,567.7411234080744
1196.452416,302.400498928691
1200.26893,155.2853440872592
1204.079844,36.626754575752656
1207.88517,-44.28755656139098
1211.684917,-4.920438454630073
1215.479098,167.81079850525845
1219.267722,274.4733695562042
1223.050801,177.48093331417934
1226.828346,87.5283905393091
1230.600366,170.84139691696308
1234.366874,274.57777427890517
1238.12788,320.96564211945224
1241.883395,418.35098237040717
1245.633429,513.3701971091419
1249.377994,435.4800487785885
1253.1171,243.37623350688804
1256.850759,146.74482149589414
1260.578981,165.53098387607022
1264.301776,146.38347950404264
1268.019157,37.26863056511541
1271.731133,-36.9234902786079
1275.437715,28.93577176392407
1279.138915,136.71847290206787
1282.834743,111.88350496212605
1286.52521,-13.53362116043765
1290.210328,-50.97051295376702
1293.890106,39.5374721668431
1297.564555,136.21884687816527
1301.233688,181.88003037685024
1304.897514,201.10482017826735
1308.556044,170.77898703785965
1312.209289,60.83226342405979
1315.857261,-30.638809705416534
1319.499969,28.60239044332204
1323.137425,167.5727313695459
1326.769641,200.3207440605569
1330.396626,124.17162999145768
1334.018391,82.21761815920621
1337.634948,111.19062857415801
1341.246307,122.65800738995732
1344.85248,69.40826125085559
1348.453477,5.438334514742799
1352.049309,11.760041360863063
1355.639987,112.64351618769572
1359.225522,232.63614487298662
1362.805925,272.01428106966836
1366.381207,251.8443410415728
1369.951379,294.944474915233
1373.516452,445.34498960253904
1377.076436,604.0131762780783
1380.631343,703.535912365752
1384.181184,814.1739928057935
1387.725969,938.7894109406283
1391.26571,916.3701063159974
1394.800417,700.0923776775581
1398.330102,472.1776052777228
1401.854776,351.66974818353447
1405.374448,232.07725541214168
1408.889132,26.747111696956367
1412.398837,-104.01919396645934
1415.903574,41.26591382693717
1419.403355,384.0136293049552
1422.89819,702.89260744223
1426.388091,928.9359094753449
1429.873069,1042.2421988057956
1433.353134,980.0011095781051
1436.828298,792.279151116446
1440.298571,584.4132286018213
1443.763965,382.7867987620775
1447.224491,212.65062502285693
1450.68016,100.33485594915857
1454.130983,26.29384674336405
1457.576971,3.8778116367507636
1461.018135,42.65027850095132
1464.454486,63.01986356888513
1467.886036,10.995047974052852
1471.312794,-45.841462667738185
1474.734774,-13.512833639973234
1478.151985,92.4315760395402
1481.564439,139.72653869350444
1484.972146,70.87903680029167
1488.375119,16.49668324916564
1491.773368,70.2450392539688
1495.166904,122.40802035756086
1498.555739,77.29778882669497
1501.939883,-0.02323403147485692
1505.319349,-33.449197326545075
1508.694146,-15.104350535335481
1512.064286,35.760995634721894
1515.429781,90.84825361788981
1518.790642,120.74750003586168
1522.146879,84.31740744618722
1525.498505,-2.4420048309377975
1528.845529,-7.13399865176082
1532.187965,128.8950441496998
1535.525822,271.8218744702396
1538.859112,316.0441230396706
1542.187846,335.2412828675157
1545.512036,428.65696488426767
1548.831693,542.618285281117
1552.146829,554.3683800030127
1555.457453,494.0057532822933
1558.763579,530.8922632898491
1562.065216,777.9311593690568
1565.362377,1174.4354910606548
1568.655073,1513.1802782125803
1571.943315,1693.49281646277
1575.227114,1892.1650910283406
1578.506482,2254.885731577776
1581.781431,2656.5131936305133
1585.051971,2953.836226612728
1588.318114,3065.277829990838
1591.579872,2798.0131707585856
1594.837255,2094.8130594610984
1598.090275,1297.0090206535867
1601.338945,765.9227952225226
1604.583274,474.4591165387255
1607.823275,227.2391398330621
1611.058959,22.03291182466802
1614.290338,-45.70804109447321
1617.517422,-7.139414069154938
1620.740224,34.43173724415634
1623.958755,23.171299704136445
1627.173027,-18.136184405729466
1630.38305,-22.726328594556364
1633.588838,21.75435228743794
1636.7904,55.76356577019871
1639.987749,35.257919482014884
1643.180896,7.944335466932273
1646.369853,64.2894248843183
1649.554632,136.0153842083621
1652.735244,65.07100187323996
1655.9117,-43.979074993047576
1659.084013,-0.41735155188358064
1662.252193,64.64971837531586
1665.416254,2.727108939385362
1668.576205,-38.99353797023535
1671.732059,16.388844965869488
1674.883828,32.71010926189772
1678.031523,-17.050335693819804
1681.175157,-33.80455032832436
1684.314739,-4.825805678576415
1687.450284,15.516744803913964
1690.581801,6.99370734275389
1693.709304,-8.946933884059353
1696.832803,-5.8344369931535915
1699.952311,7.558799191717775
1703.067839,27.786669492562943
1706.179399,72.92631985344428
1709.287003,90.79747280364101
1712.390663,42.35466174365548
1715.49039,34.48136004606946
1718.586197,110.26812031225967
1721.678095,111.56608267148282
1724.766096,-15.16682452038389
1727.850213,-85.5000498129672
1730.930456,-16.45626353357507
1734.006838,55.78369166580554
1737.079372,86.12434346447182
1740.148067,160.05396864982202
1743.212938,219.8862848761903
1746.273996,149.47092997133657
1749.331252,40.52699085897697
1752.384718,43.15228908886601
1755.434408,112.41706459907229
1758.480332,108.56873548407442
1761.522503,3.5990082821208738
1764.560933,-82.96467930656722
1767.595634,-28.36217804158354
1770.626618,97.08841862346732
1773.653896,115.72656640287586
1776.677482,41.126202202550274
1779.697388,30.870609399619692
1782.713625,99.5514083178013
1785.726205,129.33461562038227
1788.735141,61.747214966084336
1791.740445,-20.451388976673243
1794.742129,19.19821144461234
1797.740206,145.98833508119
1800.734687,182.3930283102841
1803.725585,118.3887418563021
1806.712912,84.6033233052298
1809.69668,83.05740664440879
1812.676902,40.14756318286837
1815.65359,-18.46248980410099
1818.626756,-31.36434296141232
1821.596413,-9.440990661104683
1824.562573,11.124517404158292
1827.525247,18.843136162304013
1830.48445,-3.033185077566319
1833.440192,-39.24112422259488
1836.392487,-24.153124595696326
1839.341347,37.00698143002991
1842.286784,67.48339786978705
1845.22881,56.12755178764144
1848.167439,31.567434315699312
1851.102682,-3.173515618053102
1854.034553,-5.954609809589471
1856.963063,61.81285834232096
1859.888226,129.43158358577773
1862.810053,125.51027356817812
1865.728557,77.08542720489773
1868.643751,13.0159057121571
1871.555648,-33.876976941928426
1874.46426,6.172153625706095
1877.369599,88.71280607855971
1880.271679,99.75328780749213
1883.170512,86.06247123036154
1886.06611,133.58047601496455
1888.958487,165.86872307000215
1891.847655,100.80768299361183
1894.733626,-2.0946093581539458
1897.616414,-40.0198138887654
1900.496032,10.352108706912116
1903.372491,71.72313949921961
1906.245805,70.78861143851488
1909.115987,31.312554533958668
1911.983049,9.205086758142684
1914.847004,26.04145799790873
1917.707866,66.12362535166119
1920.565646,72.81960095600141
1923.420359,18.142705797041685
1926.272016,-40.36060425201018
1929.120631,-40.20217097600727
1931.966216,1.3926787447747273
1934.808786,20.703423499294562
1937.648351,-4.284559070939597
1940.484927,-22.962424819454625
1943.318525,37.12331038621977
1946.149158,164.17926891599956
1948.97684,230.75241110664172
1951.801584,174.60840305880984
1954.623403,86.7271222565378
1957.44231,22.39950521218818
1960.258318,-27.653375499691236
1963.071439,-20.11347840100426
1965.881688,37.35326580530328
1968.689078,38.45060339115618
1971.493621,-51.7232705459641
