Raman shift cm-1,4ATP_100fM_rep1_acc2_processed_intensity
-93.47115107,567.0801730874978
-87.69374369,22.90841797221205
-81.9253076,-89.39429575282156
-76.16582701,78.46795893684094
-70.41528615,57.612735899358405
-64.67366933,-42.77650985880341
-58.94096086,-62.42108635629975
-53.21714512,-62.74068669715347
-47.50220652,51.639590407817764
-41.79612954,20.733113555872205
-36.09889866,198.93980278996392
-30.41049843,150.02284983996367
-24.73091343,65.58661383426698
-19.0601283,21.391112553868062
-13.39812769,-10.206226507797943
-7.744896327,-20.585643381780343
-2.100418946,-107.6425891966836
3.535319659,85.50167244599803
9.162334658,4.9534332301975255
14.78064118,29.337724903854024
20.39025432,-54.21750743568923
25.99118913,18.281494376223815
31.58346061,208.9067482370245
37.16708375,162.62932195251818
42.74207347,17.380004161126458
48.30844468,37.016292509448974
53.86621222,61.795104293615935
59.41539093,-108.01271626296145
64.95599558,-71.41598341526294
70.48804091,73.6486941537392
76.01154164,186.95327746457917
81.52651243,-88.51288140241093
87.03296792,122.2973212985986
92.5309227,227.21469667474818
98.02039134,59.12645792624098
103.5013884,20.148641594264607
108.9739282,13.583075621633402
114.4380255,-35.25496417013253
119.8936944,84.03415303234468
125.3409495,412.83272071953496
130.779805,10.24031068495179
136.2102753,-146.174470386428
141.6323747,-49.2399431517466
147.0461174,86.66862607613083
152.4515176,16.445450695252177
157.8485895,-57.561176602384606
163.2373472,12.238257177135807
168.6178049,-3.2856102430763627
173.9899766,165.9269030693626
179.3538764,76.28502202031699
184.7095182,7.366797895246833
190.0569161,148.01490853682563
195.396084,80.6091057921777
200.7270358,-63.40643091744141
206.0497854,-11.845197292031408
211.3643466,-56.99810844651018
216.6707333,90.87553416890545
221.9689593,31.0719382484677
227.2590382,-65.15091783892771
232.5409839,40.16735760630783
237.8148101,-62.789497100493136
243.0805303,-1.1843361729925448
248.3381582,8.15529976256667
253.5877075,-6.94179694493269
258.8291917,-0.6733959338844286
264.0626244,-31.581708191234256
269.288019,75.36428255330006
274.5053891,72.0204873786435
279.7147481,-25.359479739957713
284.9161094,-96.47186118089226
290.1094865,-94.97349153085636
295.2948927,65.88680785749618
300.4723414,596.2055443068123
305.6418459,1136.6894896081565
310.8034194,1562.9630126446475
315.9570752,2164.9509180005966
321.1028267,2264.608661929103
326.2406869,2210.3275832547424
331.370669,2212.591464019117
336.4927863,2107.544002523601
341.6070517,2173.0140445607517
346.7134786,2164.4889599782964
351.8120798,2224.69440052506
356.9028684,1922.8273338726397
361.9858576,1806.2302325271562
367.0610602,1989.672675568006
372.1284892,1731.4242086041145
377.1881577,2046.1645916235946
382.2400784,2520.392762743259
387.2842644,3297.7056348384167
392.3207284,3805.117455809364
397.3494833,3381.262293209934
402.370542,2654.005593920904
407.3839172,1824.3249075169083
412.3896217,1280.9889497925333
417.3876683,882.8934947454684
422.3780697,600.8574361419032
427.3608386,439.9327267683693
432.3359876,502.871354912832
437.3035295,400.500328313316
442.2634769,451.0337853688063
447.2158423,52.983379801876936
452.1606383,75.16914538662616
457.0978776,54.21968374287758
462.0275727,-39.58888895387406
466.9497361,207.9011875477487
471.8643802,-168.39875343252163
476.7715176,126.49960780288075
481.6711608,52.09108953733539
486.5633221,-10.76273420356722
491.448014,49.01666240422287
496.3252488,15.988626108641597
501.195039,-19.668603387122744
506.0573969,70.7709332056329
510.9123349,-14.009608994681685
515.7598651,-162.02248191769377
520.6,85.91647341301143
525.4327518,56.19661395789029
530.2581327,149.40945602827372
535.076155,-45.69519475208506
539.8868309,170.73852393302417
544.6901726,144.0791140256921
549.4861922,41.27049711335738
554.2749019,274.9035864675021
559.0563139,-4.899004210311631
563.8304402,-75.78556500143299
568.597293,310.29460026989943
573.3568844,250.4159164471925
578.1092263,-141.94285643883177
582.8543308,69.988035400421
587.5922101,89.98010365149892
592.322876,-82.38331176074469
597.0463405,10.731402938255588
601.7626157,47.8661249154321
606.4717135,9.672928039419723
611.1736458,35.85135053575223
615.8684246,-36.50341825094043
620.5560617,-1.7850203303875567
625.2365691,14.154994854900142
629.9099585,-42.55013768752458
634.5762419,25.783065561283937
639.2354312,66.95360109485559
643.887538,134.5041701452229
648.5325743,116.05321323520424
653.1705518,39.03076340310061
657.8014823,-17.549197886828246
662.4253775,-117.39868584679442
667.0422493,-8.571684272609811
671.6521092,62.73213710675979
676.2549691,25.42276048511691
680.8508407,45.85582577781618
685.4397355,-123.06370463402641
690.0216654,-15.88631271184439
694.5966419,-42.998877814702595
699.1646767,91.19922104433039
703.7257814,143.72728658095383
708.2799676,159.3823409326107
712.827247,217.3578375585653
717.367631,151.39310885437442
721.9011314,70.27354144197733
726.4277595,-127.12078083905085
730.9475271,79.27418498547279
735.4604456,167.56343630457957
739.9665264,358.92063273475765
744.4657813,43.82424645738077
748.9582215,53.03952113112461
753.4438587,-74.11537918365029
757.9227042,-77.94423201838076
762.3947696,178.74832739656355
766.8600662,54.65842098458914
771.3186056,433.5128049633116
775.770399,157.3744658426877
780.215458,183.25940556305525
784.6537939,70.59339493862495
789.0854181,-135.91613542074586
793.510342,170.53116196299246
797.9285769,330.37651308443714
802.3401342,221.92597123319706
806.7450253,164.99646147569308
811.1432614,246.16590724768952
815.5348538,64.2832546267408
819.9198139,-15.696395957462844
824.2981531,-21.6135837065009
828.6698824,96.25723677985545
833.0350133,-13.376934814098679
837.393557,50.67447756486873
841.7455248,133.36792619828296
846.0909278,-24.559805678937867
850.4297774,-88.34995776076298
854.7620848,23.371677774702036
859.0878611,85.13664692016894
863.4071176,-176.55362298114684
867.7198655,64.85916011303468
872.026116,382.33568587036154
876.3258802,435.01887466336603
880.6191693,236.94774602472444
884.9059946,316.54197086742374
889.186367,342.6541717566688
893.4602979,-14.574865579972855
897.7277982,-0.036628524142813035
901.9888793,132.16829854964394
906.2435521,291.8335310585061
910.4918277,41.15692630757168
914.7337174,-133.68902602597444
918.9692321,-6.979497385324862
923.1983831,77.37318660586234
927.4211813,40.644000933405835
931.6376378,269.52553468883787
935.8477637,69.42502146876404
940.0515701,78.05799463595417
944.249068,43.168464865696166
948.4402684,-273.9064665647415
952.6251825,149.87388927675616
956.8038212,33.47007704144099
960.9761955,265.6375221032899
965.1423166,46.1877220232268
969.3021953,42.62323186521181
973.4558427,229.45420776226595
977.6032699,-52.2622992845464
981.7444877,-0.3477499569193583
985.8795072,45.78603264058714
990.0083394,167.9102493723349
994.1309953,-14.67171767832636
998.2474857,58.06564279395883
1002.357822,-144.4299143090574
1006.462014,48.19813427084577
1010.560075,91.28462006548807
1014.652013,55.93985356237678
1018.737841,267.3233251813558
1022.81757,-65.36150240004388
1026.891209,-94.22464147449618
1030.958771,-19.821240332590065
1035.020266,127.94703457630212
1039.075705,74.0790365357678
1043.1251,-56.153192312042215
1047.16846,66.0668699078506
1051.205797,44.567395388378166
1055.237121,-117.77163717061455
1059.262444,40.53651932254179
1063.281777,5.734400565231123
1067.295131,424.62818631845045
1071.302515,1189.4307349887918
1075.303942,1583.1112693507093
1079.299422,2186.0869921186954
1083.288966,1858.185796111908
1087.272585,974.0711038773966
1091.250289,537.5699239134422
1095.222091,212.8178692346098
1099.187999,31.287480524157633
1103.148026,128.9375675407544
1107.102183,5.66910951458226
1111.050479,-5.684875792339078
1114.992927,29.78719047580712
1118.929536,-92.50910763788863
1122.860318,62.03146304946874
1126.785283,-64.13619932369787
1130.704443,-51.74936860448562
1134.617808,359.95849062638865
1138.52539,359.1709988683641
1142.427198,285.88445037011996
1146.323244,255.7847783105268
1150.213538,69.50465863665252
1154.098093,363.0775221527872
1157.976917,82.29499294361538
1161.850023,-0.59265221611615
1165.717421,275.20805947950714
1169.579121,181.93041133304223
1173.435135,403.3273226629774
1177.285474,235.69450757466765
1181.130148,460.6265346232747
1184.969169,560.7116006486374
1188.802547,450.855367533889
1192.630292,302.2773076023746
1196.452416,7.50316012871032
1200.26893,144.6588591630255
1204.079844,-124.82215366439726
1207.88517,-37.92033958548907
1211.684917,-40.133662295947005
1215.479098,75.76270617183059
1219.267722,398.18104374759326
1223.050801,-71.81327011736396
1226.828346,11.947749364360899
1230.600366,98.845479664197
1234.366874,-33.28224452528276
1238.12788,71.11545085148131
1241.883395,25.58676922602379
1245.633429,254.4048420126283
1249.377994,150.3328264009917
1253.1171,-82.10243306964482
1256.850759,83.04018136909575
1260.578981,-4.985575360079224
1264.301776,18.34821085667162
1268.019157,60.11170131453044
1271.731133,-94.97153051192504
1275.437715,-19.322950437187835
1279.138915,243.95807386291304
1282.834743,218.53074773671744
1286.52521,43.840691361346344
1290.210328,-139.69552959659487
1293.890106,70.18981955692774
1297.564555,250.64804743896917
1301.233688,34.419307863593076
1304.897514,178.70179473200216
1308.556044,154.52854878844116
1312.209289,206.9036006468022
1315.857261,-60.57142178396741
1319.499969,43.971575968365755
1323.137425,403.2430237754108
1326.769641,245.7787653859463
1330.396626,302.5659122330201
1334.018391,238.42447724411016
1337.634948,60.130109137782824
1341.246307,-69.5898024893041
1344.85248,-57.44285217389227
1348.453477,43.8186523737289
1352.049309,6.036989010457788
1355.639987,-79.79336368215034
1359.225522,200.94142247433354
1362.805925,73.52337205274799
1366.381207,3.532754435059161
1369.951379,61.24974559862722
1373.516452,-79.33677056297503
1377.076436,54.554443414385055
1380.631343,31.084409135449118
1384.181184,67.65338348834096
1387.725969,245.52149320566494
1391.26571,158.68741700240867
1394.800417,-13.224121435253394
1398.330102,161.86586422503893
1401.854776,227.37798817757084
1405.374448,135.21212850932227
1408.889132,-57.23060285429207
1412.398837,-206.40696597882933
1415.903574,-26.606528750198493
1419.403355,158.67305192143027
1422.89819,93.72453885658655
1426.388091,147.69238800482464
1429.873069,300.0780731779744
1433.353134,95.59841826353042
1436.828298,72.9566500907994
1440.298571,89.95800354460499
1443.763965,-57.05323316080809
1447.224491,-99.81447393645507
1450.68016,-123.77283072076892
1454.130983,70.41796999037625
1457.576971,58.013549923427775
1461.018135,163.9718289600826
1464.454486,146.23250523543
1467.886036,-3.546733221230326
1471.312794,32.389305232125835
1474.734774,-41.69728674498512
1478.151985,207.14474851615282
1481.564439,194.95942383584472
1484.972146,119.15584084196871
1488.375119,-60.17278031466004
1491.773368,90.52497496306589
1495.166904,298.1544221795049
1498.555739,43.91896412186743
1501.939883,34.72989168646162
1505.319349,-33.210083777192466
1508.694146,-43.865430229787115
1512.064286,178.3873785174698
1515.429781,206.6891951368351
1518.790642,134.3433598727742
1522.146879,338.2339853162413
1525.498505,-15.895715867362732
1528.845529,-146.81039972716871
1532.187965,179.30953656096332
1535.525822,23.790519047778613
1538.859112,81.22279794256153
1542.187846,223.21847197907405
1545.512036,126.88976887918989
1548.831693,347.30583959740176
1552.146829,382.75723494551534
1555.457453,20.58089499694738
1558.763579,27.776956907210604
1562.065216,208.02335607302922
1565.362377,403.68637240975676
1568.655073,554.8841318702302
1571.943315,522.8037130360171
1575.227114,509.0939552883447
1578.506482,692.7272745495309
1581.781431,1004.7177963547947
1585.051971,982.3603810364347
1588.318114,964.6474167748355
1591.579872,1000.3832275896266
1594.837255,726.487378899424
1598.090275,430.99333181271135
1601.338945,172.94470803796594
1604.583274,365.5790977189057
1607.823275,65.8381901340833
1611.058959,-101.83878518448125
1614.290338,4.8508163264857025
1617.517422,-140.55192491219654
1620.740224,96.97080444599473
1623.958755,68.24810050135571
1627.173027,19.167377572879737
1630.38305,-86.772488396455
1633.588838,65.27543657065543
1636.7904,25.01403412967052
1639.987749,189.08174137762083
1643.180896,170.43938044227824
1646.369853,-34.692712500978985
1649.554632,192.84836954402058
1652.735244,49.06475661193105
1655.9117,-69.6938053361097
1659.084013,144.354391754797
1662.252193,186.58160494063694
1665.416254,-65.82482832795031
1668.576205,77.97353615659387
1671.732059,151.0134635733699
1674.883828,192.28525984751144
1678.031523,7.230649714294763
1681.175157,66.55763998016045
1684.314739,-28.933117331269646
1687.450284,-10.812906457988156
1690.581801,69.25704064167537
1693.709304,-166.6962651188939
1696.832803,-27.218229698393962
1699.952311,11.676286107640525
1703.067839,59.97310045240749
1706.179399,63.09495976025906
1709.287003,149.39938792317992
1712.390663,-36.59964378950444
1715.49039,67.31322161966017
1718.586197,26.70526714284976
1721.678095,40.417826510740525
1724.766096,-66.96236418492444
1727.850213,-158.27400314575237
1730.930456,29.823106582873763
1734.006838,9.726742329153854
1737.079372,10.846164745925995
1740.148067,-22.713517089600472
1743.212938,252.82801827000222
1746.273996,23.858687003489962
1749.331252,37.41265804347674
1752.384718,35.93313034972657
1755.434408,-13.240554241994866
1758.480332,62.708486939973405
1761.522503,42.85027112434448
1764.560933,-68.86467763276524
1767.595634,-143.1190698240489
1770.626618,36.86067298850657
1773.653896,64.75851651779081
1776.677482,-48.42846818628867
1779.697388,-125.44567720164171
1782.713625,94.247625929667
1785.726205,59.7510330759802
1788.735141,194.1172598097691
1791.740445,62.322386452689585
1794.742129,-51.161326982782406
1797.740206,174.6752171730801
1800.734687,157.02698868653025
1803.725585,55.552159408045256
1806.712912,-1.0759654537330459
1809.69668,2.4449067378425537
1812.676902,35.92225385134749
1815.65359,-55.50504974815366
1818.626756,-48.66819101322115
1821.596413,2.872498915796097
1824.562573,-60.56736974581726
1827.525247,125.95611467222487
1830.48445,20.124650162402933
1833.440192,-8.932217121001608
1836.392487,-48.12361115397847
1839.341347,43.22400133332549
1842.286784,39.06547178280516
1845.22881,-27.79661673295577
1848.167439,69.27695965854564
1851.102682,46.1049660343771
1854.034553,47.794765313348755
1856.963063,-36.776541504806104
1859.888226,166.32439540152745
1862.810053,145.25409464975374
1865.728557,-48.586155422064614
1868.643751,-13.159741879167356
1871.555648,-34.825230823625944
1874.46426,-166.87403390219458
1877.369599,88.40937363801172
1880.271679,63.89410914179304
1883.170512,-40.4599379098371
1886.06611,79.4962774631688
1888.958487,-25.749621169855068
1891.847655,79.31407176806721
1894.733626,-49.768027315809995
1897.616414,-41.101139408673795
1900.496032,-33.16127012878151
1903.372491,8.430011933593207
1906.245805,119.29998667201866
1909.115987,76.18197164814029
1911.983049,87.51875276154271
1914.847004,-72.09419555527899
1917.707866,96.67607694825764
1920.565646,-55.1387270826077
1923.420359,-72.09421453849811
1926.272016,4.103648599347263
1929.120631,-146.52634150572538
1931.966216,56.9624130051605
1934.808786,-13.819035945133987
1937.648351,58.083624741904806
1940.484927,49.410189137701956
1943.318525,39.823470074469355
1946.149158,237.88170525332916
1948.97684,456.30260420188125
1951.801584,283.0471099329179
1954.623403,145.57753211549468
1957.44231,235.59700793440217
1960.258318,-92.01554453820064
1963.071439,-68.28945482251329
1965.881688,35.61825388993901
1968.689078,64.63319294164052
1971.493621,3.367976531234058
