Raman shift cm-1,4ATP_100uM_rep3_acc5_processed_intensity
-93.47115107,371.5720912630769
-87.69374369,46.712530999095975
-81.9253076,-2.808963488476536
-76.16582701,-21.151290266098606
-70.41528615,53.70646431976735
-64.67366933,-48.08752615752081
-58.94096086,-106.9556004318881
-53.21714512,-63.02514701007475
-47.50220652,-70.53064932268006
-41.79612954,67.45258169964775
-36.09889866,114.35210380957867
-30.41049843,70.49643997411616
-24.73091343,60.92519888352743
-19.0601283,-6.734257715708878
-13.39812769,-21.389644241431775
-7.744896327,-7.698400056579043
-2.100418946,-14.233088417164147
3.535319659,-5.290616676565106
9.162334658,-18.718930115516763
14.78064118,-58.40987671752113
20.39025432,-84.55029442479558
25.99118913,29.014797937392416
31.58346061,176.37567118574205
37.16708375,87.0613389567247
42.74207347,-86.4295255451168
48.30844468,-19.836161615446755
53.86621222,13.35836180826216
59.41539093,-106.03373947160505
64.95599558,-100.27980750014687
70.48804091,39.8528673601999
76.01154164,18.436418740400445
81.52651243,-127.14760859353916
87.03296792,46.611448441257515
92.5309227,92.63780742785033
98.02039134,-51.55620660453931
103.5013884,21.742045604472153
108.9739282,5.291651178210373
114.4380255,-56.307182891066915
119.8936944,51.88093838283555
125.3409495,143.59565524064206
130.779805,4.909876433630199
136.2102753,-70.38331609935919
141.6323747,109.58440929038338
147.0461174,228.31928296858615
152.4515176,273.97563608020585
157.8485895,241.97415067723884
163.2373472,274.1176090898883
168.6178049,433.3858169222987
173.9899766,554.9856614615136
179.3538764,698.4584797676921
184.7095182,681.8327437110277
190.0569161,796.3786768898981
195.396084,869.2084333348232
200.7270358,870.5467618770896
206.0497854,871.3920382890951
211.3643466,892.2592439433398
216.6707333,1001.1991935465047
221.9689593,878.9604210098737
227.2590382,945.6043563589834
232.5409839,894.518533282902
237.8148101,946.2441907437641
243.0805303,813.4393800157859
248.3381582,838.4730323945439
253.5877075,601.1664553893038
258.8291917,647.471987367572
264.0626244,546.3879159629026
269.288019,84.73041653522989
274.5053891,603.191592936372
279.7147481,-264.03147533456706
284.9161094,1717.0892994465983
290.1094865,4180.765722837066
295.2948927,17910.654581471506
300.4723414,42974.20184252498
305.6418459,49192.015489625235
310.8034194,46325.372351738915
315.9570752,46221.25272709526
321.1028267,44652.38976703307
326.2406869,44663.46780901734
331.370669,43648.39070914219
336.4927863,43093.65307304264
341.6070517,42430.45129559702
346.7134786,41793.40721515172
351.8120798,41130.78097679946
356.9028684,40464.33262373178
361.9858576,39864.87206200333
367.0610602,38872.075986122996
372.1284892,38420.724997769226
377.1881577,37438.92570173864
382.2400784,36921.81886815062
387.2842644,36257.12342171292
392.3207284,35393.179988454074
397.3494833,34796.67450198135
402.370542,33792.00291802426
407.3839172,33025.23507573364
412.3896217,32392.77543297551
417.3876683,31674.327685246128
422.3780697,30798.711065390406
427.3608386,29721.109022409997
432.3359876,28740.663909068928
437.3035295,27678.77522260131
442.2634769,26821.593877112035
447.2158423,26464.901633603477
452.1606383,25445.643749859402
457.0978776,24566.206883720988
462.0275727,23962.968020017237
466.9497361,22989.2772749118
471.8643802,22331.39390729187
476.7715176,21324.63313315023
481.6711608,20240.89777085664
486.5633221,19380.001043080116
491.448014,18542.2507526481
496.3252488,17843.856695942915
501.195039,16942.32298872377
506.0573969,15831.655077757096
510.9123349,15288.812945928352
515.7598651,14734.507008331839
520.6,13738.138473777904
525.4327518,12970.975894712647
530.2581327,12188.71559105063
535.076155,11749.994222384921
539.8868309,10775.840740123444
544.6901726,9959.119277519676
549.4861922,9464.972322921796
554.2749019,8160.754867822943
559.0563139,8023.95098163775
563.8304402,7565.1362216381785
568.597293,6186.686275505232
573.3568844,5889.487851789621
578.1092263,5508.564538275834
582.8543308,4676.888881232404
587.5922101,4194.983917299447
592.322876,3959.5513001696017
597.0463405,3315.2046005618213
601.7626157,2714.890820880908
606.4717135,2529.012892125589
611.1736458,2233.2798425791225
615.8684246,1747.4956254691024
620.5560617,1261.6016049054124
625.2365691,1128.6065379370484
629.9099585,474.004995397976
634.5762419,132.22447019415995
639.2354312,489.16559739650256
643.887538,153.33655397623806
648.5325743,232.75408646715005
653.1705518,124.51853103096437
657.8014823,-35.37574839683657
662.4253775,286.5252648787173
667.0422493,59.651508037863096
671.6521092,28.564395210956718
676.2549691,-122.27942903112125
680.8508407,-77.91678852341283
685.4397355,-6.33735208915823
690.0216654,-27.902735849998862
694.5966419,47.09216128068147
699.1646767,-188.8296673517143
703.7257814,-4.947761264513247
708.2799676,-57.64295942161698
712.827247,-75.45146315615057
717.367631,-41.74297705737263
721.9011314,141.7728962491019
726.4277595,369.8377664935506
730.9475271,132.03557724278653
735.4604456,-18.250945273586694
739.9665264,-137.4875132809393
744.4657813,65.79480486535613
748.9582215,142.16199070849325
753.4438587,501.75512177994096
757.9227042,433.5012175102929
762.3947696,254.3237224568329
766.8600662,282.47047063132413
771.3186056,-345.2954016840813
775.770399,-78.90049722461117
780.215458,43.18866697229896
784.6537939,83.12330633750025
789.0854181,430.99430583073627
793.510342,59.272440226370236
797.9285769,-87.67233761420721
802.3401342,98.50426601895742
806.7450253,28.60012375140286
811.1432614,-71.75265535920335
815.5348538,44.68923643136441
819.9198139,137.86745103468274
824.2981531,21.826312819663144
828.6698824,-154.66240046126768
833.0350133,30.68597980360937
837.393557,162.23140132315893
841.7455248,-15.097209190324065
846.0909278,29.032887794026465
850.4297774,237.7729848771014
854.7620848,-5.0966539011369605
859.0878611,-27.411771037850485
863.4071176,338.5793220422038
867.7198655,187.05371884089436
872.026116,-77.75916290235182
876.3258802,-269.34774494542216
880.6191693,16.93366629107004
884.9059946,45.17498065291329
889.186367,-266.10178009104857
893.4602979,374.67197911258154
897.7277982,537.4404443007334
901.9888793,37.69999989204189
906.2435521,40.5655347131742
910.4918277,137.33943664326034
914.7337174,368.9245775491436
918.9692321,186.41902264322925
923.1983831,30.47657186824108
927.4211813,100.84242588652342
931.6376378,-241.39750316753634
935.8477637,67.09852423444136
940.0515701,-80.36999938993722
944.249068,-21.926960386061182
948.4402684,366.866133175643
952.6251825,-0.30561831998966227
956.8038212,24.351646275486928
960.9761955,-127.62187336415809
965.1423166,-24.15763142015294
969.3021953,68.24157171560728
973.4558427,-34.77521845914271
977.6032699,72.90930455696525
981.7444877,34.783887980577674
985.8795072,-39.696072532693506
990.0083394,30.809989378362843
994.1309953,20.457559841599505
998.2474857,-20.24941278049573
1002.357822,296.2116062460718
1006.462014,114.6464575029213
1010.560075,115.9706151734772
1014.652013,-48.20243446787936
1018.737841,-344.898313742302
1022.81757,-7.413699857354004
1026.891209,72.46015022300799
1030.958771,95.95088992137335
1035.020266,-83.18782307215952
1039.075705,-12.853790353823115
1043.1251,242.46628529732834
1047.16846,13.78845178177744
1051.205797,44.526293910327695
1055.237121,224.25896217384025
1059.262444,133.97177634848867
1063.281777,465.640298746403
1067.295131,369.78788346850934
1071.302515,-39.95646369894666
1075.303942,142.14302227512553
1079.299422,-144.9112282666856
1083.288966,-106.2825477010781
1087.272585,132.8502996725665
1091.250289,-157.8973397694249
1095.222091,-100.60516373341898
1099.187999,63.626796905287165
1103.148026,79.36692097128275
1107.102183,81.00748316357158
1111.050479,-26.24212093549636
1114.992927,35.96299829087002
1118.929536,96.27138527816487
1122.860318,-119.77826352651061
1126.785283,293.4318369029424
1130.704443,438.2619324066389
1134.617808,-127.89851327361711
1138.52539,43.68934323897042
1142.427198,22.098480178592524
1146.323244,-42.34685771746734
1150.213538,132.7705189998567
1154.098093,-109.11535102333278
1157.976917,293.8037042304288
1161.850023,282.7544465238012
1165.717421,-42.38336088767129
1169.579121,60.47503949253914
1173.435135,-85.99208212193918
1177.285474,382.962291676159
1181.130148,340.41219974678586
1184.969169,-27.053242326968274
1188.802547,46.173203581461806
1192.630292,159.14345625709382
1196.452416,384.59273941348147
1200.26893,104.86668722007047
1204.079844,467.5968451545699
1207.88517,498.07670496803235
1211.684917,301.7705421816826
1215.479098,244.1740509407544
1219.267722,-503.79554937724424
1223.050801,137.50017072500506
1226.828346,406.27129759002247
1230.600366,-51.84775091923214
1234.366874,113.74879329964868
1238.12788,103.76501027340427
1241.883395,147.96989298126616
1245.633429,-164.9989601704378
1249.377994,-48.47479148715985
1253.1171,304.9301662231099
1256.850759,69.61495068787929
1260.578981,-14.086228122986842
1264.301776,42.99393126562346
1268.019157,-1.9058397404917322
1271.731133,188.6597418217921
1275.437715,300.8936580251117
1279.138915,-79.84649822734916
1282.834743,-153.13906578618747
1286.52521,57.5176524701707
1290.210328,262.3576159673746
1293.890106,38.36176956777827
1297.564555,-114.6254237008735
1301.233688,239.27611532974035
1304.897514,132.86995982080822
1308.556044,-18.973916355005187
1312.209289,16.243620882878943
1315.857261,373.9920180605342
1319.499969,241.01024097541034
1323.137425,-108.57458545993144
1326.769641,35.82667910839537
1330.396626,-187.0777103815563
1334.018391,-21.342454215687084
1337.634948,61.60169861334923
1341.246307,54.47307946577516
1344.85248,263.1454245406933
1348.453477,175.3861609151672
1352.049309,301.268029205454
1355.639987,112.87307276448323
1359.225522,-163.97733722577732
1362.805925,50.745034960753486
1366.381207,82.3063198431786
1369.951379,-39.437693863037836
1373.516452,-90.86777519842349
1377.076436,-198.03488403813347
1380.631343,-41.57954793200593
1384.181184,53.626761166275394
1387.725969,-37.23145283217269
1391.26571,118.85646237467321
1394.800417,168.948344828635
1398.330102,47.87448207130186
1401.854776,-120.19024544663156
1405.374448,-115.70204629735103
1408.889132,164.74274881950868
1412.398837,342.9631239989126
1415.903574,93.51363500567649
1419.403355,-278.8670057995932
1422.89819,70.30281926685302
1426.388091,87.4225031065909
1429.873069,-251.66728554159704
1433.353134,138.5353120045131
1436.828298,60.96901227156786
1440.298571,-97.22654692553677
1443.763965,76.21458394521707
1447.224491,173.8306464668792
1450.68016,144.42294746937753
1454.130983,-129.09878503421314
1457.576971,-54.6970796717552
1461.018135,-168.19417339233635
1464.454486,-123.6081496702566
1467.886036,68.27625153473788
1471.312794,170.93807113022703
1474.734774,242.16831064501494
1478.151985,-67.51155327666167
1481.564439,-13.68790916312605
1484.972146,71.41579230162384
1488.375119,295.84204447679195
1491.773368,30.125512123817046
1495.166904,-324.70998951696697
1498.555739,13.600390186472161
1501.939883,100.35271507009254
1505.319349,275.5682329434594
1508.694146,71.88682957502411
1512.064286,-39.63145579527847
1515.429781,131.5160661267593
1518.790642,116.54017341287067
1522.146879,96.21373217118256
1525.498505,343.67488455326634
1528.845529,370.87483531522236
1532.187965,-151.41898870690736
1535.525822,299.7548172894253
1538.859112,163.37774479658148
1542.187846,-49.11880713726015
1545.512036,398.59492132513697
1548.831693,-298.0587026774663
1552.146829,-144.39772936278467
1555.457453,528.9044687957423
1558.763579,565.1251736060303
1562.065216,425.2721117855152
1565.362377,77.4894981388401
1568.655073,57.53898231847287
1571.943315,30.15530769366469
1575.227114,129.66030729867686
1578.506482,84.2638255002483
1581.781431,-175.87125427657054
1585.051971,31.12472992571503
1588.318114,20.753950694777757
1591.579872,57.64007414232523
1594.837255,126.86135209377483
1598.090275,104.70559263799885
1601.338945,93.2596296926879
1604.583274,-311.664685137299
1607.823275,-32.94575424233892
1611.058959,-30.939806611721338
1614.290338,-348.3397284921693
1617.517422,-26.13797484283384
1620.740224,4.782299476907269
1623.958755,46.0463705879788
1627.173027,155.3219659142244
1630.38305,156.9754370572448
1633.588838,-7.901233486609499
1636.7904,48.78276582005515
1639.987749,-39.91221096766458
1643.180896,-108.75734773373847
1646.369853,154.75615254308832
1649.554632,-192.64475393679913
1652.735244,58.64032687308736
1655.9117,535.0749654788908
1659.084013,66.78824003842192
1662.252193,-110.92247632152043
1665.416254,311.830361174028
1668.576205,393.5597931799507
1671.732059,155.33682710247058
1674.883828,321.1695003851901
1678.031523,676.3991606181489
1681.175157,792.2202244550003
1684.314739,828.988828936227
1687.450284,1049.4965731980037
1690.581801,1321.7053807153707
1693.709304,1547.1790537652196
1696.832803,1731.0735059752178
1699.952311,1730.555436445015
1703.067839,2013.0136434464325
1706.179399,2309.4742751184176
1709.287003,2319.8342850279832
1712.390663,2412.32927138633
1715.49039,2342.0535282700466
1718.586197,2398.392682232606
1721.678095,2231.358309051814
1724.766096,2210.963219337092
1727.850213,1968.223410465043
1730.930456,1373.8293045757418
1734.006838,1868.145821304839
1737.079372,1713.8329666767659
1740.148067,1571.9744550947178
1743.212938,1598.2459083517324
1746.273996,1098.842153470912
1749.331252,1169.58765737058
1752.384718,694.7608237552453
1755.434408,678.8414818004562
1758.480332,603.8572634355535
1761.522503,155.4967386721114
1764.560933,147.14840430897493
1767.595634,-82.59945474951593
1770.626618,85.47403692828259
1773.653896,-37.991087316226995
1776.677482,-367.57654986791863
1779.697388,-227.3563426508295
1782.713625,-15.130178101821997
1785.726205,15.186769066303611
1788.735141,31.12728459993255
1791.740445,-2.4601205119998255
1794.742129,-20.00816593577926
1797.740206,93.52690363760908
1800.734687,211.6878675673737
1803.725585,338.0438848635688
1806.712912,92.4037372955163
1809.69668,171.79288375987022
1812.676902,295.31906625984186
1815.65359,111.25038748735378
1818.626756,81.67542639582466
1821.596413,-49.831535663595076
1824.562573,-78.25640066564176
1827.525247,-138.24250702501496
1830.48445,-94.23942197042649
1833.440192,15.042801486857066
1836.392487,-25.656355376137867
1839.341347,133.46226693968143
1842.286784,56.9318337760441
1845.22881,-151.18909592744552
1848.167439,230.28291616432384
1851.102682,271.7433009770635
1854.034553,129.80861461113642
1856.963063,310.4904805828604
1859.888226,289.0034886863039
1862.810053,113.12791617875118
1865.728557,-216.06710155927112
1868.643751,177.91266809227062
1871.555648,88.38846371245063
1874.46426,-394.8065975657504
1877.369599,-53.163615164395424
1880.271679,-72.87936529404361
1883.170512,36.3078411394108
1886.06611,152.76074477273386
1888.958487,153.9936521431343
1891.847655,147.34736022573787
1894.733626,32.46033895846168
1897.616414,-62.36354185666617
1900.496032,-255.90097125359566
1903.372491,-159.54205468244766
1906.245805,92.63212355502998
1909.115987,142.06526066111542
1911.983049,-72.11341919939505
1914.847004,19.400533935914595
1917.707866,115.51499207025174
1920.565646,-18.01136530701821
1923.420359,-39.99569848439188
1926.272016,66.91793368557515
1929.120631,45.413777407969526
1931.966216,20.4593591865317
1934.808786,90.99377416296467
1937.648351,-57.50621718588193
1940.484927,-105.17937920534082
1943.318525,-238.39538787348712
1946.149158,104.50188454711898
1948.97684,357.3522999529358
1951.801584,1.7698657307667673
1954.623403,38.374665127915485
1957.44231,-19.27568591100306
1960.258318,-70.04978143333183
1963.071439,139.86054986193096
1965.881688,243.49564783020466
1968.689078,133.55703773488304
1971.493621,-146.95594908638765
