Raman shift cm-1,blank_rep3_acc5_processed_intensity
-93.52472366,996.2377250251544
-87.74731628,124.8011292801217
-81.97888019,-111.65919713180548
-76.2193996,34.58881175131921
-70.46885874,55.683561304905325
-64.72724191,-139.48716280853046
-58.99453344,-185.90358518174241
-53.2707177,31.44269692881923
-47.55577911,94.47878076642365
-41.84970212,98.43817763657091
-36.15247124,356.2530312883465
-30.46407101,443.0577387590439
-24.78448602,258.38004003002004
-19.11370089,211.2359116741975
-13.45170028,108.53168359417398
-7.798468914,-125.81114027788198
-2.153991534,-77.71850210555972
3.481747071,93.0103399272285
9.10876207,77.6860607229215
14.72706859,-1.6271443168371462
20.33668173,-80.35051498449062
25.93761654,14.719387731199959
31.52988803,284.66642286844757
37.11351116,265.96311592072084
42.68850089,47.77241969489378
48.25487209,65.19279118684078
53.81263964,66.43831303976388
59.36181834,-166.73330718827833
64.90242299,-155.0133525787785
70.43446832,149.97598743413255
75.95796905,104.95083005605753
81.47293984,-99.33944997006635
86.97939533,116.69184477876915
92.47735012,245.47401534561422
97.96681875,23.374875738294797
103.4478158,22.23412003417587
108.9203557,65.51674510163107
114.3844529,-22.863668178885725
119.8401218,338.9088974305448
125.2873769,720.3114811757349
130.7262324,283.94503199193906
136.1567027,-207.54789849469793
141.5788021,32.89426664401057
146.9925448,352.9053295659264
152.397945,247.55245571148174
157.7950169,25.577768140922363
163.1837747,20.64409512364422
168.5642323,265.62038465200254
173.936404,341.3361792057576
179.3003038,62.582310392174385
184.6559456,23.242159235580246
190.0033435,355.02659323398393
195.3425114,402.7155825567439
200.6734632,76.22208376852201
205.9962128,-105.43843719440387
211.310774,-21.092303567344857
216.6171607,21.027275455010045
221.9153867,-36.821659306567696
227.2054656,-4.835260085564389
232.4874113,36.77881327726226
237.7612375,14.622774083999396
243.0269577,60.25466580910047
248.2845856,66.74403309857308
253.5341349,-44.20411568087732
258.7756191,-62.114503618228184
264.0090518,64.29859836162206
269.2344464,186.00184782692486
274.4518165,201.7728393177104
279.6611755,76.20202070510688
284.8625368,-127.44125516646763
290.0559139,-100.01784000129764
295.2413201,497.08017061289894
300.4187688,1436.4750088346168
305.5882733,2278.712916147825
310.7498468,3060.9580324364997
315.9035027,3731.362802554578
321.0492541,3948.1103016092934
326.1871143,3840.335865029532
331.3170964,3806.617332620205
336.4392137,3824.173115831448
341.5534792,3745.485136802051
346.659906,3642.843346837848
351.7585072,3480.4394910312176
356.8492959,3262.185923994674
361.932285,3175.3396206503276
367.0074876,3122.9996104282645
372.0749167,2974.654280649602
377.1345851,2812.1913191845733
382.1865058,2595.8967232443993
387.2306918,2333.087427971705
392.2671558,2127.232853900691
397.2959107,2000.2468271415262
402.3169694,1919.1555476975118
407.3303446,1727.1893137092661
412.3360492,1377.1223573721122
417.3340958,1136.0539473009653
422.3244971,1123.04410558087
427.307266,1137.9654759253644
432.2824151,1201.3219309418282
437.2499569,1329.4574258964135
442.2099043,1121.5872699481447
447.1622697,675.198395690677
452.1070657,509.551956410467
457.044305,455.7136291908755
461.9740001,251.7984671594004
466.8961635,63.240735557376865
471.8108076,-16.347418170469155
476.717945,58.75717391138414
481.6175882,231.3856794315011
486.5097495,270.97135060700384
491.3944414,101.15650459927383
496.2716763,-29.556236343042656
501.1414665,165.31189067449986
506.0038244,369.42845169195516
510.8587623,136.95936204863756
515.7062925,-108.26271260897101
520.5464274,70.94885745592046
525.3791792,220.11795267505795
530.2045601,10.224748465654557
535.0225824,-115.49611400739968
539.8332583,-8.541441495830895
544.6366,21.509241696167464
549.4326196,184.91797033366902
554.2213293,341.2966811205865
559.0027413,4.38722035914293
563.7768676,-57.80316102175152
568.5437204,404.31972459117424
573.3033118,329.4581293558854
578.0556537,38.74721555198494
582.8007583,278.6720625419937
587.5386375,318.5878174757636
592.2693034,-24.305392678930275
596.9927679,25.034909921690996
601.7090431,244.89611965826293
606.4181409,48.54474211978277
611.1200732,-126.06630576812859
615.814852,24.551201574289962
620.5024891,39.60116606653742
625.1829965,84.88171191149922
629.8563859,457.5965930112791
634.5226693,500.933506829256
639.1818586,112.22584718936128
643.8339654,-55.381767196868395
648.4790017,8.302113007551725
653.1169792,55.46800753315688
657.7479097,-18.299687755850528
662.3718049,-195.47099204406948
666.9886767,-192.77571244647606
671.5985366,-27.842353411519753
676.2013965,54.270563111673255
680.7972681,75.23921566935917
685.386163,40.45383653532065
689.9680928,-43.720496502879996
694.5430693,-11.501620946624257
699.1111041,97.6624161219031
703.6722088,101.18932101323048
708.226395,61.46510549447396
712.7736744,115.52361856729544
717.3140584,147.33878388307323
721.8475588,-28.741804559564457
726.3741869,-193.5797856370391
730.8939545,0.44055362992844493
735.406873,338.2165966685198
739.9129539,434.6226387945767
744.4122087,306.2645615151709
748.9046489,74.07380626680822
753.3902861,-98.85730809655536
757.8691316,-69.30405984067372
762.341197,52.95531583397781
766.8064936,289.81888637034297
771.265033,586.4778723052689
775.7168264,583.2435172083158
780.1618854,326.3181059152412
784.6002213,50.39383219285743
789.0318455,-110.96662154673255
793.4567694,36.309448482540745
797.8750043,209.8679466677396
802.2865616,90.29195277525741
806.6914527,0.36064543069270627
811.0896888,62.441293243561624
815.4812812,-18.002146692071435
819.8662414,-143.18417067370382
824.2445805,3.4129073475021645
828.6163098,177.98171728302648
832.9814407,31.353282808355868
837.3399844,-65.18086591989683
841.6919522,89.42382843326845
846.0373552,50.74546187604031
850.3762048,-32.26277050176428
854.7085122,193.8160354465527
859.0342885,236.20642417403997
863.353545,-31.852533825195785
867.6662929,74.90088353612325
871.9725434,521.0332891652757
876.2723076,569.9055567200755
880.5655967,340.85889774630436
884.852422,463.690606399689
889.1327944,520.4356470094557
893.4067253,37.67471300767694
897.6742257,-183.60997999837792
901.9353067,214.4472149270183
906.1899795,387.10767211506356
910.4382551,94.27559363613877
914.6801448,-68.86244376703473
918.9156596,35.49453907872808
923.1448105,166.82328559393392
927.3676087,298.473572415087
931.5840652,348.57327534265545
935.7941911,289.61300508452297
939.9979975,262.4251802217803
944.1954954,119.63769987838637
948.3866958,-116.71979371504821
952.5716099,-70.85937439986205
956.7502486,177.78084955497494
960.9226229,222.08455473273233
965.088744,54.4645773804902
969.2486227,-12.381448432263369
973.4022701,35.25115533436457
977.5496973,24.54089497024998
981.6909151,28.209786382273904
985.8259346,53.03204138398834
989.9547668,39.077806350754685
994.0774227,36.676414765287376
998.1939132,-26.624999028067407
1002.304249,-114.32086898327582
1006.408442,-88.0344159120767
1010.506502,33.851742261932685
1014.598441,259.88086711469117
1018.684269,419.67013070974946
1022.763997,251.41508385001458
1026.837637,0.6729258382625289
1030.905199,78.54601867997125
1034.966694,283.0546982621671
1039.022133,170.66020112916743
1043.071527,-11.758738037757468
1047.114887,86.6687252258213
1051.152224,166.34536140123777
1055.183549,65.94004676488004
1059.208872,-84.2695718366759
1063.228205,-210.00171638684992
1067.241558,-145.78299138784828
1071.248943,10.292036436206331
1075.250369,122.69115610392666
1079.245849,259.503855815139
1083.235393,209.77684454104005
1087.219012,55.9672737015884
1091.196717,156.2160256815588
1095.168518,240.19623590641123
1099.134427,65.97170285135087
1103.094454,-49.93162270024533
1107.04861,47.039823496027395
1110.996907,102.8463023771705
1114.939354,63.43626572564881
1118.875963,197.77912717951068
1122.806745,240.88487259618296
1126.731711,-84.41728741657855
1130.650871,-120.45904225462627
1134.564236,273.1434929088001
1138.471817,393.39895174158306
1142.373625,255.6131302931663
1146.269671,258.42459315866915
1150.159966,352.6235620873323
1154.04452,285.1386721802224
1157.923344,49.463374325158355
1161.79645,17.97742539499282
1165.663848,282.4873141543895
1169.525549,470.1809990124591
1173.381563,305.54340741588453
1177.231902,-41.983659007855756
1181.076576,-28.072975887919796
1184.915596,328.6727533629566
1188.748974,340.7474753675299
1192.576719,58.590170360040986
1196.398844,46.940964524921526
1200.215357,111.13381787277626
1204.026272,-25.791821196328144
1207.831597,-141.5132526623816
1211.631345,-63.005295409247545
1215.425525,336.04001772105676
1219.21415,642.983234051019
1222.997229,321.3998093506939
1226.774773,41.103026042554795
1230.546794,244.19690518389748
1234.313302,242.20604142100598
1238.074307,-22.738859130649523
1241.829822,61.864901046451294
1245.579857,341.3128189422531
1249.324421,213.76968412695933
1253.063528,-89.26912794393863
1256.797186,-51.159280233026934
1260.525408,80.45135994128351
1264.248204,82.73269862435124
1267.965584,60.00629666366328
1271.67756,-87.3943757977058
1275.384142,-170.54688643137115
1279.085342,101.34366377689506
1282.781171,304.95202334173536
1286.471638,67.23993858473898
1290.156755,-114.3647301038432
1293.836533,119.38452857634502
1297.510983,242.46089669313466
1301.180115,25.378104844080305
1304.843941,45.33913535893706
1308.502471,290.49701503260394
1312.155716,154.4244438715162
1315.803688,-114.55675212564532
1319.446396,19.759245725000476
1323.083853,265.77743546867845
1326.716068,344.521698690348
1330.343053,377.7478721326851
1333.964818,322.69419176889267
1337.581375,183.13910356420368
1341.192735,82.36595936112354
1344.798907,10.195559536129014
1348.399904,-104.52909116747759
1351.995736,-175.970589012922
1355.586415,-14.228063338741983
1359.17195,178.4534393795588
1362.752353,111.96569884059984
1366.327635,12.721057262143475
1369.897807,75.84361337609889
1373.462879,172.97547381595666
1377.022864,186.67920521770014
1380.577771,96.98299793597171
1384.127611,40.64220117902225
1387.672397,60.69081652248078
1391.212137,-7.12790322826595
1394.746845,-94.28053808384496
1398.27653,12.147377197043067
1401.801203,255.02571370676438
1405.320876,311.81181464609045
1408.835559,-29.40086770503224
1412.345264,-286.666394794732
1415.850001,43.52693788386808
1419.349782,321.3267924622387
1422.844618,95.90587715426585
1426.334519,50.656580264995405
1429.819496,202.55475757191888
1433.299561,33.29458163482426
1436.774725,-65.7016954408755
1440.244998,93.6765222033442
1443.710393,5.02718537521983
1447.170919,-204.16816604166803
1450.626588,-82.05457585205355
1454.07741,122.40567248321567
1457.523398,119.49523338953021
1460.964562,124.98584745478354
1464.400914,172.17378985235126
1467.832463,49.31753138168415
1471.259222,-139.96396485332428
1474.681201,-116.93902096052035
1478.098412,117.0139610407047
1481.510866,228.45704742919105
1484.918574,14.575702559819703
1488.321546,-142.90726580617772
1491.719795,112.65893831491309
1495.113332,361.13346231297953
1498.502166,212.55844142149783
1501.886311,-47.80910730716202
1505.265776,-99.69991417503202
1508.640573,62.18840830821206
1512.010714,154.00624115889258
1515.376209,58.285074805791474
1518.737069,63.623937868761615
1522.093306,52.327597601071034
1525.444932,-96.21341882776612
1528.791957,56.368506317755774
1532.134392,292.27020354753654
1535.472249,246.7046268528646
1538.805539,297.20581290593447
1542.134274,356.78103300857674
1545.458464,395.8713012196656
1548.778121,729.9865530502029
1552.093256,684.6092154238204
1555.403881,20.650997222590576
1558.710006,-264.6915732822091
1562.011644,21.77611709709325
1565.308805,263.8632740611702
1568.6015,297.8594174558695
1571.889742,194.89873487174077
1575.173542,59.40341370798167
1578.45291,116.66798313844733
1581.727858,254.35290561720768
1584.998398,160.27196611055675
1588.264541,-7.227428302555232
1591.526299,5.942235564505907
1594.783682,-22.75140744610468
1598.036703,-138.62503829343092
1601.285372,23.276249578734976
1604.529701,227.91638855062345
1607.769702,100.43383135149895
1611.005386,95.5088405574799
1614.236765,261.9958549600678
1617.463849,121.03440340134003
1620.686651,-59.46914000193356
1623.905183,-37.027236499232146
1627.119454,-44.537334638022436
1630.329478,-60.48835455978909
1633.535265,-37.879493577001845
1636.736827,44.0479072614696
1639.934176,151.3746857508354
1643.127324,43.075585142746085
1646.316281,13.869911804840648
1649.50106,224.9007043985215
1652.681671,14.193573169969767
1655.858128,-286.9946773460726
1659.03044,119.11176847009796
1662.198621,414.7362308013841
1665.362681,55.81064127127064
1668.522632,-3.221795050355695
1671.678487,340.35190666078654
1674.830256,281.99083082613885
1677.977951,4.462380972753243
1681.121584,21.76274165100518
1684.261167,121.04023352221925
1687.396711,94.0429593931717
1690.528229,-16.14310100686936
1693.655731,-167.83516618650432
1696.779231,-152.17837889624695
1699.898738,-16.522127607668605
1703.014266,-14.811424257707042
1706.125826,23.174738897774183
1709.23343,117.84948133237597
1712.33709,36.21294623474485
1715.436818,6.450206136659531
1718.532624,183.9550175112276
1721.624522,267.5475989287179
1724.712524,99.09076785663376
1727.79664,-109.93769024715303
1730.876884,-82.2009231962218
1733.953266,24.294304560863125
1737.025799,-13.223622361099714
1740.094495,119.3696597541984
1743.159366,309.735287808983
1746.220423,67.08344336474183
1749.277679,-155.23298500510498
1752.331146,-2.640138562868003
1755.380835,44.26581837610107
1758.42676,23.099579522223962
1761.468931,97.1781586281027
1764.50736,-52.9136398617671
1767.542061,-126.10632005177082
1770.573045,193.97235945396056
1773.600324,282.23513037353007
1776.62391,8.66813401160201
1779.643815,15.975738347874241
1782.660052,300.460948307543
1785.672632,414.6123110433009
1788.681568,241.582627257483
1791.686873,-6.150097610057458
1794.688557,8.41177838949923
1797.686633,228.87237426174906
1800.681115,312.0920853754924
1803.672013,220.65269652682935
1806.65934,94.10256684806237
1809.643108,29.19497763485734
1812.62333,-1.5120067888832116
1815.600018,-51.108793122208255
1818.573184,-31.59231891557402
1821.542841,-10.073534509627248
1824.509,-65.56802428388701
1827.471675,-43.350733617679666
1830.430877,18.741479452918867
1833.38662,1.0455289545520579
1836.338914,64.65964784565864
1839.287774,172.79978441513538
1842.233211,39.901850711823265
1845.175238,-85.49180000040387
1848.113866,101.11314281230818
1851.04911,148.03079455566734
1853.98098,-48.27181508757182
1856.909491,105.35423727954877
1859.834653,420.08183784437034
1862.75648,298.66441767776905
1865.674985,34.973677885502156
1868.590179,-57.41011793971579
1871.502076,-154.00082667492063
1874.410687,-105.22575877174637
1877.316027,68.75623538641301
1880.218107,33.64908159348489
1883.116939,39.56840964350732
1886.012538,168.57264708803353
1888.904914,54.46939386412093
1891.794082,0.5882135693098993
1894.680054,195.88335584972683
1897.562842,115.27973651011658
1900.442459,-126.72734490823461
1903.318918,-2.599566326709779
1906.192232,267.82286455301363
1909.062414,294.4885504619925
1911.929476,191.38178515054673
1914.793432,192.93598257513415
1917.654293,228.97530932879266
1920.512074,96.937703631921
1923.366786,-71.47077887023386
1926.218443,-50.95993127219911
1929.067058,4.586508423261719
1931.912644,-70.93778738624974
1934.755213,-66.68497506867706
1937.594779,103.20401252279768
1940.431354,80.01267938249569
1943.264952,-0.550500975508605
1946.095586,408.0678227902778
1948.923268,742.5761347441595
1951.748012,373.7955324592183
1954.569831,39.734008488675364
1957.388737,62.372316411289674
1960.204745,-60.066831994132734
1963.017867,-153.5981421426827
1965.828116,16.745675827685
1968.635505,105.74230355868042
1971.440049,-33.53296061336747
