Wavelength,4ATP_1uM_rep1_acc2_I1
402.370542,10519.572914296998
407.3839172,7810.679631556362
412.3896217,5032.305819048477
417.3876683,3285.063563842512
422.3780697,2383.963596405876
427.3608386,1751.4815492089729
432.3359876,1196.224542828848
437.3035295,879.6099602894901
442.2634769,789.6152278419759
447.2158423,401.34128564577986
452.1606383,30.900805154098634
457.0978776,-17.818994998106064
462.0275727,162.67083010354327
466.9497361,464.45627942870124
471.8643802,771.1397599073243
476.7715176,1527.8767022696957
481.6711608,2953.38653658548
486.5633221,3853.500891186748
491.448014,3372.0775633126505
496.3252488,2525.927775252301
501.195039,1901.9512947773983
506.0573969,1480.656960259039
510.9123349,1205.5787893514716
515.7598651,886.3592035580587
520.6,738.8302128150026
525.4327518,765.8484714293809
530.2581327,866.2641270908352
535.076155,1054.9057702907921
539.8868309,1418.142360705875
544.6901726,1214.485850402256
549.4861922,504.65401117517104
554.2749019,331.16284594959507
559.0563139,48.86310454278646
563.8304402,-14.948810450812744
568.597293,491.2770200623636
573.3568844,238.79049398519055
578.1092263,-113.30546686180605
582.8543308,196.9151812404598
587.5922101,130.34167925667862
592.322876,-133.5595748786509
597.0463405,90.99178019794272
601.7626157,228.71749038630514
606.4717135,85.82337431550695
611.1736458,-34.60309522991156
615.8684246,32.37474450155787
620.5560617,189.92744824182955
625.2365691,132.72909719942982
629.9099585,249.09624206557783
634.5762419,335.4298588525926
639.2354312,208.53864412326948
643.887538,219.71910891415973
648.5325743,27.232719283234474
653.1705518,48.18717043423021
657.8014823,139.1037422731315
662.4253775,-76.59976697594902
667.0422493,12.368479217213462
671.6521092,58.914577724950504
676.2549691,24.825228012356092
680.8508407,27.38726674433201
685.4397355,-119.85994242432571
690.0216654,22.595512203704857
694.5966419,415.61490788628726
699.1646767,897.6505531076327
703.7257814,1398.5171327513308
708.2799676,1752.8493564911114
712.827247,2079.6110464484373
717.367631,2058.532587177873
721.9011314,1449.0136141582007
726.4277595,828.6161471744381
730.9475271,570.0148812380576
735.4604456,594.0600280304643
739.9665264,611.2268722832159
744.4657813,546.6426074033552
748.9582215,412.03729234901766
753.4438587,41.25419126170891
757.9227042,-49.37934529511767
762.3947696,17.913431784872955
766.8600662,18.931933026011393
771.3186056,388.72455586347496
775.770399,421.76479615002245
780.215458,180.5196617396723
784.6537939,302.25980897025147
789.0854181,347.2288910131174
793.510342,485.18877198614064
797.9285769,948.3435619564698
802.3401342,1199.9061096095284
806.7450253,1082.9451369395756
811.1432614,907.0180773726352
815.5348538,732.9424781595444
819.9198139,544.1048943874484
824.2981531,483.14712748413694
828.6698824,356.11416186309543
833.0350133,73.47632479620006
837.393557,-1.062278306530061
841.7455248,19.874634240202795
846.0909278,-107.96444666378375
850.4297774,-99.95650478752577
854.7620848,34.418628743311274
859.0878611,0.014537238801494823
863.4071176,-7.034600958455485
867.7198655,238.18485670334303
872.026116,551.2165305057606
876.3258802,623.5587954348812
880.6191693,398.1179745869813
884.9059946,336.9706516814258
889.186367,363.37155710746083
893.4602979,64.06553535355124
897.7277982,-2.496559645896923
901.9888793,445.53109000540826
906.2435521,898.3491803813813
910.4918277,1077.2244599885453
914.7337174,1268.6357731761855
918.9692321,1556.5241871200542
923.1983831,1496.8041523300199
927.4211813,1394.6536261112797
931.6376378,1424.9158917805453
935.8477637,1425.833870262677
940.0515701,1643.1804385436553
944.249068,1639.7258700527764
948.4402684,1498.4989426757893
952.6251825,1698.5769431365206
956.8038212,1884.7345705454463
960.9761955,1931.2695270769727
965.1423166,1901.148793375798
969.3021953,1814.5705078272804
973.4558427,1723.4827802352302
977.6032699,1609.474679854873
981.7444877,1527.5096007608772
985.8795072,1390.439067399655
990.0083394,1265.0888562537202
994.1309953,1430.4968683904299
998.2474857,1611.3679334360204
1002.357822,1918.8818478813519
1006.462014,2407.3075177286737
1010.560075,1900.6081925649705
1014.652013,792.2839498500671
1018.737841,414.93014043995026
1022.81757,222.63191654372895
1026.891209,-96.33177886775047
1030.958771,-24.286465980643698
1035.020266,76.80515528898286
1039.075705,22.075752699813165
1043.1251,152.35128766816524
1047.16846,325.7497635972559
1051.205797,659.3090447755512
1055.237121,1918.9868065587307
1059.262444,4392.443639142666
1063.281777,8155.569903479627
1067.295131,13507.001440953663
1071.302515,17821.609881205688
1075.303942,18073.60623650207
1079.299422,15420.014069471104
1083.288966,10806.764866906
1087.272585,5519.002830756905
1091.250289,2373.4437547755915
1095.222091,901.4127052083677
1099.187999,64.9910441507418
1103.148026,-9.224547099294796
1107.102183,-58.939275711198206
1111.050479,42.467309170046065
1114.992927,509.00273363981796
1118.929536,1499.0845003299855
1122.860318,3343.3521168869465
1126.785283,5972.476384792961
1130.704443,10405.61964758194
1134.617808,15380.252077316594
1138.52539,17545.9212647702
1142.427198,15839.786152436129
1146.323244,11148.976298464864
1150.213538,6498.529876916997
1154.098093,3787.4286365393036
1157.976917,2292.573768011027
1161.850023,1907.179938534131
1165.717421,1890.8243543378467
1169.579121,1825.8224812821227
1173.435135,2116.3796662228706
1177.285474,2341.4953587688306
1181.130148,2800.910329194283
1184.969169,3379.8752753377394
1188.802547,3316.3775381067844
1192.630292,2600.5822289042935
1196.452416,1702.8996966895356
1200.26893,899.0492907325697
1204.079844,190.19368833022963
1207.88517,11.460243259753042
1211.684917,-0.33818831413736916
1215.479098,38.81696593882407
1219.267722,183.66825106007127
1223.050801,-64.12693864870562
1226.828346,-13.361992470476252
1230.600366,220.90183768719908
1234.366874,316.03885588275625
1238.12788,416.6839277864565
1241.883395,247.8627172539509
1245.633429,316.30563765559964
1249.377994,385.8449296306135
1253.1171,86.9018919156133
1256.850759,-76.80472154270683
1260.578981,-36.04485264703544
1264.301776,61.21194889330218
1268.019157,43.879434961130755
1271.731133,-95.25876505265842
1275.437715,-149.148468096304
1279.138915,29.82167546864548
1282.834743,198.68293355816422
1286.52521,89.61133741003869
1290.210328,60.40359445386821
1293.890106,281.05825756921513
1297.564555,557.2860176927588
1301.233688,936.6626098744055
1304.897514,1248.2398733682712
1308.556044,1208.9594603227797
1312.209289,701.7821553666017
1315.857261,23.73740042195459
1319.499969,-10.330671836807596
1323.137425,89.88614198586038
1326.769641,-126.74808063012097
1330.396626,52.8319348131663
1334.018391,78.39431076994333
1337.634948,-135.07921927627103
1341.246307,-23.569561605518174
1344.85248,145.04057294138875
1348.453477,342.2454973855165
1352.049309,363.31970894472215
1355.639987,486.421072579089
1359.225522,780.7696566205013
1362.805925,729.8955172055485
1366.381207,954.4969432429389
1369.951379,1372.4524094052722
1373.516452,1766.0986994730156
1377.076436,2869.9310362479264
1380.631343,4485.666256495995
1384.181184,6168.941801204346
1387.725969,7307.250184193996
1391.26571,6745.5185580216075
1394.800417,4628.637019297823
1398.330102,2467.2472310507437
1401.854776,961.7853214591796
1405.374448,193.6763565947076
1408.889132,74.20877499661401
1412.398837,353.0491123311276
1415.903574,1642.8156632555838
1419.403355,3953.1180379577036
1422.89819,6616.673298372005
1426.388091,8994.711468171256
1429.873069,9949.834020042017
1433.353134,9052.945464835218
1436.828298,6945.2308993272
1440.298571,4781.791350850259
1443.763965,3054.077575649684
1447.224491,1664.5451178703097
1450.68016,923.6628257032498
1454.130983,430.926275023432
1457.576971,64.66755071915395
1461.018135,214.6569921103437
1464.454486,297.3321115191393
1467.886036,344.38317964353155
1471.312794,503.04455212509856
1474.734774,367.7345926449598
1478.151985,274.84150075547586
1481.564439,326.39324489177307
1484.972146,78.28929682756097
1488.375119,-163.21700120410787
1491.773368,32.04330423605461
1495.166904,29.165132713898856
1498.555739,-117.3884231676675
1501.939883,1.400244878985177
1505.319349,-84.40747373990234
1508.694146,-18.36404762782331
1512.064286,306.1067107333838
1515.429781,178.44750663174273
1518.790642,7.84304612257074
1522.146879,161.1511986569858
1525.498505,52.76067910564598
1528.845529,84.9230786381795
1532.187965,416.91107736870254
1535.525822,444.8553589541607
1538.859112,658.0534232349382
1542.187846,816.8478801732454
1545.512036,860.058154214652
1548.831693,1356.027193066524
1552.146829,1646.3382672134358
1555.457453,1850.4268257683962
1558.763579,2340.078415460812
1562.065216,3080.899052935467
1565.362377,4074.3955250542404
1568.655073,4852.833144195123
1571.943315,5386.485252974991
1575.227114,5609.268877773875
1578.506482,5722.768627327156
1581.781431,5680.683821206774
1585.051971,5230.2636589400845
1588.318114,4966.912976348705
1591.579872,4192.572455890675
1594.837255,2804.3849033800943
1598.090275,1824.7931248728455
1601.338945,1147.981504586458
1604.583274,753.5750529171128
1607.823275,363.10428142690034
1611.058959,212.6820662322334
1614.290338,334.7291797188409
1617.517422,70.49072414981856
1620.740224,82.45027925441173
1623.958755,174.5777440931397
1627.173027,-53.048357344796386
1630.38305,-5.1539185332603665
1633.588838,-45.81522936154215
1636.7904,-62.65303491379018
1639.987749,213.1746913621755
1643.180896,53.862303387664724
1646.369853,-42.66680103180897
1649.554632,219.02255939135648
1652.735244,29.271649022229212
1655.9117,-117.68691070611476
1659.084013,72.8674373633894
1662.252193,138.35138280124283
1665.416254,50.958244581092
1668.576205,17.101920116362635
1671.732059,224.85962996263606
1674.883828,180.05021675544413
1678.031523,-45.08042397487861
1681.175157,0.1805664860394245
1684.314739,18.73931080357943
1687.450284,18.335009652581903
1690.581801,-30.74825626355232
1693.709304,-85.24195172771215
1696.832803,-49.0431343567152
1699.952311,-59.166527377262355
1703.067839,35.77422195547297
1706.179399,85.62736323656736
1709.287003,53.293597760137345
1712.390663,29.289454310331166
1715.49039,-0.8594841322401408
1718.586197,45.37334478678531
1721.678095,7.309803274193655
1724.766096,-8.439359361072093
1727.850213,-24.670258061751156
1730.930456,-22.520654558977185
1734.006838,138.8906054823883
1737.079372,32.1617344315855
1740.148067,-77.38748921403112
1743.212938,124.24173244672238
1746.273996,123.48944595281955
1749.331252,-8.197348628117652
1752.384718,14.927421978338316
1755.434408,32.33186375470723
1758.480332,12.890336353260864
1761.522503,91.82399032056492
1764.560933,24.763962429035928
1767.595634,-213.447051334575
1770.626618,-16.254267528675882
1773.653896,193.89073839736102
1776.677482,-7.979804574825721
1779.697388,12.353501398354638
1782.713625,65.89651849060101
1785.726205,71.03289435119859
1788.735141,141.86862569328878
1791.740445,-62.71788885072965
1794.742129,11.69351402618031
1797.740206,310.89745019959446
1800.734687,228.56624008657218
1803.725585,180.2092787257443
1806.712912,172.90727582374438
1809.69668,88.30637760830177
1812.676902,32.11954076324491
1815.65359,-93.04957289597314
1818.626756,-33.538417565783675
1821.596413,5.875364903926311
1824.562573,-75.93345463665992
1827.525247,20.44796529476116
1830.48445,32.82260366542505
1833.440192,-23.481503344723933
1836.392487,-8.559468311305864
1839.341347,3.989481221603455
1842.286784,41.967853480524354
1845.22881,-7.432129129027999
1848.167439,26.02844988812012
1851.102682,84.78226551013722
1854.034553,-76.69235334667155
1856.963063,15.774003324220757
1859.888226,257.6261726015182
1862.810053,84.64473588059718
1865.728557,-65.84533782005201
1868.643751,59.786491296446
1871.555648,-74.19115712812345
1874.46426,-134.2574634299317
1877.369599,161.24951677295303
1880.271679,87.98798951555182
1883.170512,-33.80648434609793
1886.06611,149.72568705532922
1888.958487,144.204885986951
1891.847655,30.614968624492576
1894.733626,-5.0400060209931326
1897.616414,-13.391742948047977
1900.496032,-33.92869554131812
1903.372491,-10.648732739023217
1906.245805,36.74355226102398
1909.115987,42.25139429183582
1911.983049,-4.293146857558895
1914.847004,-28.705436327252755
1917.707866,92.24534579430656
1920.565646,71.8122656967189
1923.420359,-36.57624731685155
1926.272016,-32.49652713109026
1929.120631,-83.96405305382723
1931.966216,-5.746446037901478
1934.808786,26.536123207630226
1937.648351,-72.56145626971193
1940.484927,36.05068436206602
1943.318525,59.89429076204215
1946.149158,190.2039821484559
1948.97684,476.70688701502513
1951.801584,240.356828820828
1954.623403,21.252055417023257
1957.44231,122.44885121939114
1960.258318,-18.436775439427947
1963.071439,-96.58783614731874
1965.881688,2.8247750356877077
1968.689078,-1.5695184897422223
1971.493621,66.50120100791264
